 
 $NMID
 ID=''
 FMTDAT='(2E13.5)'
 TRAMP=   1.00000E+0
 VOLUME=   1.00000E+0
 $END
   4.75169E+5   5.16926E+5
   7.55266E+5   1.69501E+6
   9.43833E+5   1.51092E+6
   7.41023E+5   1.44138E+6
   6.64721E+5   1.58602E+6
   6.94510E+5   1.58085E+6
   6.49715E+5   1.53838E+6
   6.25187E+5   1.55378E+6
   5.93314E+5   1.51751E+6
   5.21513E+5   1.53099E+6
   5.23082E+5   1.57049E+6
   5.26504E+5   1.52617E+6
   4.68677E+5   1.49771E+6
   4.42224E+5   1.51149E+6
   4.28427E+5   1.49788E+6
   3.98269E+5   1.49039E+6
   3.86078E+5   1.49355E+6
   3.54137E+5   1.46770E+6
   2.98475E+5   1.46264E+6
   2.72885E+5   1.47050E+6
   2.46584E+5   1.45320E+6
   2.10635E+5   1.44288E+6
   1.89386E+5   1.43630E+6
   1.57474E+5   1.41739E+6
   1.19155E+5   1.40896E+6
   1.11201E+5   1.40333E+6
   9.62173E+4   1.38587E+6
   7.09064E+4   1.37296E+6
   5.32915E+4   1.35902E+6
   3.57015E+4   1.34502E+6
   9.13036E+3   1.33885E+6
  -1.00553E+4   1.32404E+6
  -3.41586E+4   1.30380E+6
  -6.17675E+4   1.29413E+6
  -8.45987E+4   1.28240E+6
  -1.06993E+5   1.26585E+6
  -1.31530E+5   1.25504E+6
  -1.54833E+5   1.24054E+6
  -1.77937E+5   1.22223E+6
  -1.95117E+5   1.21064E+6
  -2.08613E+5   1.19734E+6
  -2.25047E+5   1.17963E+6
  -2.38689E+5   1.16354E+6
  -2.50256E+5   1.15106E+6
  -2.64687E+5   1.13744E+6
  -2.78647E+5   1.12463E+6
  -2.93266E+5   1.10796E+6
  -3.10839E+5   1.09043E+6
  -3.28852E+5   1.07365E+6
  -3.44420E+5   1.05759E+6
  -3.59776E+5   1.04133E+6
  -3.75803E+5   1.02488E+6
  -3.91759E+5   1.00832E+6
  -4.07371E+5   9.92348E+5
  -4.20654E+5   9.75898E+5
  -4.32516E+5   9.59182E+5
  -4.45037E+5   9.42118E+5
  -4.55707E+5   9.25053E+5
  -4.64174E+5   9.09045E+5
  -4.74095E+5   8.94471E+5
  -4.84655E+5   8.78500E+5
  -4.94595E+5   8.62087E+5
  -5.04657E+5   8.45378E+5
  -5.15325E+5   8.27822E+5
  -5.25647E+5   8.08635E+5
  -5.34210E+5   7.90383E+5
  -5.41884E+5   7.72667E+5
  -5.49913E+5   7.55634E+5
  -5.58811E+5   7.38300E+5
  -5.66979E+5   7.21064E+5
  -5.74213E+5   7.03405E+5
  -5.79568E+5   6.86375E+5
  -5.84865E+5   6.70943E+5
  -5.91371E+5   6.54157E+5
  -5.97427E+5   6.36251E+5
  -6.02108E+5   6.19025E+5
  -6.07407E+5   6.02753E+5
  -6.12992E+5   5.85377E+5
  -6.17871E+5   5.67215E+5
  -6.22830E+5   5.48717E+5
  -6.27303E+5   5.31008E+5
  -6.30734E+5   5.13811E+5
  -6.34350E+5   4.96634E+5
  -6.37912E+5   4.79496E+5
  -6.40553E+5   4.61837E+5
  -6.42454E+5   4.45769E+5
  -6.43959E+5   4.30097E+5
  -6.45476E+5   4.14349E+5
  -6.45885E+5   3.99036E+5
  -6.46346E+5   3.83833E+5
  -6.46500E+5   3.69294E+5
  -6.47175E+5   3.54430E+5
  -6.47777E+5   3.38984E+5
  -6.47160E+5   3.23381E+5
  -6.46011E+5   3.08194E+5
  -6.45008E+5   2.93691E+5
  -6.44701E+5   2.79578E+5
  -6.43880E+5   2.64685E+5
  -6.42269E+5   2.49943E+5
  -6.40010E+5   2.36669E+5
  -6.38621E+5   2.23494E+5
  -6.36757E+5   2.10158E+5
  -6.33705E+5   1.96806E+5
  -6.30045E+5   1.84046E+5
  -6.26466E+5   1.72507E+5
  -6.23511E+5   1.61389E+5
  -6.20676E+5   1.49443E+5
  -6.16974E+5   1.37041E+5
  -6.12257E+5   1.25446E+5
  -6.07378E+5   1.15361E+5
  -6.03717E+5   1.05072E+5
  -6.00277E+5   9.33137E+4
  -5.96102E+5   8.20210E+4
  -5.91249E+5   7.11053E+4
  -5.86248E+5   6.05215E+4
  -5.81738E+5   4.94175E+4
  -5.76943E+5   3.89570E+4
  -5.70942E+5   2.88041E+4
  -5.64703E+5   1.99751E+4
  -5.59316E+5   1.12350E+4
  -5.54089E+5   2.47266E+3
  -5.48929E+5  -6.54627E+3
  -5.43007E+5  -1.56557E+4
  -5.37382E+5  -2.43748E+4
  -5.31114E+5  -3.34919E+4
  -5.24517E+5  -4.18381E+4
  -5.17597E+5  -4.99440E+4
  -5.11381E+5  -5.81810E+4
  -5.05028E+5  -6.61429E+4
  -4.98827E+5  -7.43877E+4
  -4.92169E+5  -8.28261E+4
  -4.84731E+5  -9.12450E+4
  -4.77488E+5  -9.87173E+4
  -4.70804E+5  -1.06062E+5
  -4.63716E+5  -1.13473E+5
  -4.56621E+5  -1.20636E+5
  -4.49143E+5  -1.27591E+5
  -4.42592E+5  -1.34255E+5
  -4.35670E+5  -1.41314E+5
  -4.27833E+5  -1.48189E+5
  -4.20671E+5  -1.54831E+5
  -4.12700E+5  -1.60318E+5
  -4.05468E+5  -1.65749E+5
  -3.98742E+5  -1.71421E+5
  -3.91599E+5  -1.77497E+5
  -3.83470E+5  -1.82941E+5
  -3.76064E+5  -1.87772E+5
  -3.68711E+5  -1.92661E+5
  -3.61279E+5  -1.97492E+5
  -3.53981E+5  -2.01617E+5
  -3.46660E+5  -2.05550E+5
  -3.39470E+5  -2.09256E+5
  -3.32752E+5  -2.13068E+5
  -3.25701E+5  -2.16844E+5
  -3.18732E+5  -2.20536E+5
  -3.11701E+5  -2.23490E+5
  -3.05036E+5  -2.26678E+5
  -2.98435E+5  -2.29253E+5
  -2.91728E+5  -2.32445E+5
  -2.85214E+5  -2.34754E+5
  -2.78582E+5  -2.37169E+5
  -2.72104E+5  -2.39261E+5
  -2.65627E+5  -2.41595E+5
  -2.58968E+5  -2.43324E+5
  -2.52408E+5  -2.44578E+5
  -2.46763E+5  -2.45703E+5
  -2.41039E+5  -2.47204E+5
  -2.34770E+5  -2.49047E+5
  -2.28577E+5  -2.50031E+5
  -2.23030E+5  -2.50765E+5
  -2.17248E+5  -2.51605E+5
  -2.11771E+5  -2.52464E+5
  -2.05807E+5  -2.52937E+5
  -2.00458E+5  -2.53130E+5
  -1.94897E+5  -2.53873E+5
  -1.89446E+5  -2.54288E+5
  -1.83904E+5  -2.54657E+5
  -1.77744E+5  -2.54694E+5
  -1.72574E+5  -2.54434E+5
  -1.67373E+5  -2.54300E+5
  -1.62541E+5  -2.54163E+5
  -1.57013E+5  -2.54588E+5
  -1.51610E+5  -2.54380E+5
  -1.46379E+5  -2.53762E+5
  -1.41298E+5  -2.53671E+5
  -1.36232E+5  -2.52670E+5
  -1.31195E+5  -2.51937E+5
  -1.26509E+5  -2.50694E+5
  -1.22133E+5  -2.49803E+5
  -1.17659E+5  -2.49289E+5
  -1.12739E+5  -2.48871E+5
  -1.07814E+5  -2.48185E+5
  -1.02471E+5  -2.46861E+5
  -9.76154E+4  -2.45558E+5
  -9.31546E+4  -2.44151E+5
  -8.84397E+4  -2.43165E+5
  -8.38239E+4  -2.41982E+5
  -7.94124E+4  -2.40606E+5
  -7.47929E+4  -2.39570E+5
  -6.97489E+4  -2.38156E+5
  -6.53938E+4  -2.36625E+5
  -6.06967E+4  -2.34814E+5
  -5.66389E+4  -2.33038E+5
  -5.25802E+4  -2.31465E+5
  -4.82006E+4  -2.29928E+5
  -4.40007E+4  -2.28310E+5
  -3.96989E+4  -2.26185E+5
  -3.58612E+4  -2.24337E+5
  -3.18119E+4  -2.22731E+5
  -2.78040E+4  -2.20350E+5
  -2.38966E+4  -2.18444E+5
  -2.02342E+4  -2.16169E+5
  -1.68131E+4  -2.14368E+5
  -1.32236E+4  -2.12640E+5
  -9.29509E+3  -2.10541E+5
  -5.60008E+3  -2.08132E+5
  -2.20336E+3  -2.05727E+5
   5.19311E+2  -2.03097E+5
   3.56958E+3  -2.01262E+5
   6.79221E+3  -1.98757E+5
   9.51670E+3  -1.96600E+5
   1.22633E+4  -1.94316E+5
   1.51681E+4  -1.92127E+5
   1.78677E+4  -1.89752E+5
   2.04797E+4  -1.87265E+5
   2.30722E+4  -1.84576E+5
   2.51073E+4  -1.82344E+5
   2.73933E+4  -1.80055E+5
   2.97790E+4  -1.77621E+5
   3.20632E+4  -1.75370E+5
   3.43027E+4  -1.72829E+5
   3.61085E+4  -1.70256E+5
   3.76390E+4  -1.67891E+5
   3.93716E+4  -1.65484E+5
   4.11348E+4  -1.63233E+5
   4.26606E+4  -1.60767E+5
   4.40040E+4  -1.58501E+5
   4.57311E+4  -1.56305E+5
   4.72704E+4  -1.53569E+5
   4.83438E+4  -1.51181E+5
   4.97809E+4  -1.49040E+5
   5.11225E+4  -1.47027E+5
   5.23771E+4  -1.44651E+5
   5.35877E+4  -1.42062E+5
   5.44660E+4  -1.39419E+5
   5.54463E+4  -1.37641E+5
   5.63183E+4  -1.35239E+5
   5.79518E+4  -1.32700E+5
   5.84137E+4  -1.30311E+5
   5.89869E+4  -1.28031E+5
   5.99505E+4  -1.26178E+5
   6.08102E+4  -1.24053E+5
   6.16976E+4  -1.21765E+5
   6.25661E+4  -1.19070E+5
   6.30277E+4  -1.16919E+5
   6.36308E+4  -1.14844E+5
   6.44563E+4  -1.12730E+5
   6.51958E+4  -1.10639E+5
   6.58707E+4  -1.08270E+5
   6.64638E+4  -1.06426E+5
   6.75166E+4  -1.04010E+5
   6.82158E+4  -1.01695E+5
   6.84899E+4  -9.94028E+4
   6.87103E+4  -9.73371E+4
   6.92789E+4  -9.54167E+4
   6.97904E+4  -9.34899E+4
   7.06028E+4  -9.12526E+4
   7.10885E+4  -8.87957E+4
   7.11634E+4  -8.69098E+4
   7.14630E+4  -8.49624E+4
   7.19309E+4  -8.32091E+4
   7.20758E+4  -8.10627E+4
   7.23535E+4  -7.91894E+4
   7.26491E+4  -7.71591E+4
   7.31205E+4  -7.51255E+4
   7.35418E+4  -7.30333E+4
   7.39229E+4  -7.10276E+4
   7.37877E+4  -6.91717E+4
   7.40184E+4  -6.74636E+4
   7.41429E+4  -6.56180E+4
   7.44481E+4  -6.36652E+4
   7.43838E+4  -6.17534E+4
   7.43614E+4  -6.00637E+4
   7.47000E+4  -5.84185E+4
   7.48222E+4  -5.64670E+4
   7.46817E+4  -5.46794E+4
   7.45244E+4  -5.29846E+4
   7.41805E+4  -5.15677E+4
   7.43175E+4  -5.00641E+4
   7.46190E+4  -4.82817E+4
   7.44925E+4  -4.67261E+4
   7.43570E+4  -4.49787E+4
   7.41468E+4  -4.35626E+4
   7.39106E+4  -4.20345E+4
   7.38609E+4  -4.04419E+4
   7.37532E+4  -3.90169E+4
   7.34474E+4  -3.78532E+4
   7.30505E+4  -3.63493E+4
   7.31020E+4  -3.48711E+4
   7.25743E+4  -3.34159E+4
   7.22555E+4  -3.20579E+4
   7.20078E+4  -3.05718E+4
   7.17443E+4  -2.95914E+4
   7.16029E+4  -2.82401E+4
   7.11040E+4  -2.66972E+4
   7.05317E+4  -2.56925E+4
   6.99497E+4  -2.44339E+4
   6.97596E+4  -2.33245E+4
   6.94650E+4  -2.21399E+4
   6.87749E+4  -2.08265E+4
   6.84635E+4  -1.99081E+4
   6.78694E+4  -1.89120E+4
   6.76335E+4  -1.78194E+4
   6.71197E+4  -1.63867E+4
   6.64401E+4  -1.54114E+4
   6.59383E+4  -1.43418E+4
   6.53789E+4  -1.33477E+4
   6.47880E+4  -1.23641E+4
   6.41207E+4  -1.14834E+4
   6.36401E+4  -1.05323E+4
   6.29443E+4  -9.95070E+3
   6.25973E+4  -8.88105E+3
   6.17880E+4  -8.16182E+3
   6.11942E+4  -7.20086E+3
   6.04182E+4  -6.12101E+3
   6.00217E+4  -5.52161E+3
   5.94432E+4  -4.60833E+3
   5.89464E+4  -3.83944E+3
   5.83768E+4  -2.87053E+3
   5.75753E+4  -2.64895E+3
   5.70207E+4  -2.03988E+3
   5.62000E+4  -8.20789E+2
   5.56890E+4  -1.07305E+2
   5.51204E+4   7.61828E+1
   5.46600E+4   7.85682E+2
   5.40504E+4   1.76288E+3
   5.33809E+4   2.31875E+3
   5.24443E+4   3.11840E+3
   5.20033E+4   3.55117E+3
   5.12843E+4   3.91932E+3
   5.07138E+4   4.48226E+3
   4.99082E+4   4.84146E+3
   4.93617E+4   5.43794E+3
   4.90062E+4   6.01112E+3
   4.82261E+4   6.59731E+3
   4.75158E+4   6.94167E+3
   4.68401E+4   7.44167E+3
   4.62309E+4   7.84927E+3
   4.55018E+4   8.01406E+3
   4.51784E+4   8.69437E+3
   4.47073E+4   9.16869E+3
   4.38736E+4   9.37085E+3
   4.33332E+4   9.64961E+3
   4.26505E+4   9.91140E+3
   4.24616E+4   1.01805E+4
   4.16406E+4   1.05793E+4
   4.10739E+4   1.08307E+4
   4.04219E+4   1.10733E+4
   4.01449E+4   1.12981E+4
   3.94678E+4   1.17848E+4
   3.89286E+4   1.18002E+4
   3.84948E+4   1.20837E+4
   3.78126E+4   1.22546E+4
   3.72737E+4   1.24506E+4
   3.69672E+4   1.26026E+4
   3.66137E+4   1.27210E+4
   3.58089E+4   1.30182E+4
