 
 $NMID
 ID=''
 FMTDAT='(2E13.5)'
 TRAMP=   1.00000E+0
 VOLUME=   1.00000E+0
 $END
   1.03320E+4  -1.47207E+3
   2.34442E+3  -6.27177E+3
  -1.57610E+3   1.53745E+3
   8.63211E+3   2.84295E+3
   1.24000E+3  -4.85660E+2
  -5.17109E+3   3.85061E+3
   2.61360E+3   1.07319E+3
   1.03723E+3  -3.75163E+3
  -3.70587E+3   1.79633E+3
   2.63859E+3   2.60701E+3
   7.02163E+2  -1.13639E+2
  -4.66805E+3   2.14562E+3
   2.84904E+2  -1.36253E+2
   1.91015E+3  -1.95867E+3
  -2.69564E+3   1.61603E+3
  -1.93991E+3  -6.90890E+2
   1.57757E+3  -4.72212E+3
   1.78235E+3   6.98508E+2
   1.29516E+3   1.91690E+3
  -6.05666E+2  -1.26562E+3
  -1.58107E+2   8.05345E+2
   1.23701E+3   1.76667E+3
   3.33218E+2  -6.26685E+2
   5.01301E+1   1.11385E+3
  -2.29938E+2   1.71504E+3
  -1.62855E+3  -1.06558E+3
  -8.19106E+1  -8.90192E+2
   1.55006E+3   1.09485E+3
  -1.10444E+3   5.34092E+2
  -1.37344E+3  -6.67751E+2
   6.97889E+2  -1.23469E+3
   4.67599E+2  -5.01938E+2
   2.09851E+2   9.23419E+2
  -2.34257E+2   8.16415E+2
  -1.71433E+3  -8.31079E+2
  -8.65648E+2  -2.00484E+3
   1.86318E+3  -1.26105E+3
   1.32471E+3   8.32112E+2
  -2.39389E+2   8.43332E+2
   3.18148E+2  -1.31865E+2
   3.88654E+2   1.20053E+3
  -1.06552E+3   1.44474E+3
  -1.55269E+3  -6.91924E+2
  -1.88831E+2  -1.32484E+3
   8.72072E+1  -1.30317E+2
  -2.96655E+2  -5.32068E+2
   8.76695E+2  -7.55945E+2
   1.10068E+3   1.06286E+3
  -7.21949E+2   1.40116E+3
  -1.48699E+3  -1.47858E+2
  -5.51429E+2  -1.10646E+3
   1.78944E+2  -5.74958E+2
  -2.50394E+2  -1.93408E+2
  -4.80773E+1  -4.36986E+2
   5.21189E+2  -3.95044E+2
   7.82078E+2   3.30599E+2
   8.57294E+1   1.29272E+3
  -7.04588E+2   8.02525E+2
  -7.43011E+2  -3.93457E+1
  -1.90886E+2  -4.63274E+2
   2.01926E+0  -3.59693E+2
   1.98543E+2  -4.94477E+1
   8.72066E+2  -4.21488E+2
   7.30306E+2   2.03377E+2
  -1.96059E+2   1.28821E+3
  -7.08824E+2   6.63562E+2
  -5.09312E+2  -2.27069E+2
  -5.66765E+2  -3.60606E+2
  -4.38010E+2  -8.06719E+2
   5.75504E+2  -4.81226E+2
   7.08387E+2   2.73810E+2
  -1.91620E+1   3.02914E+2
   6.03020E+1  -1.42865E+2
   7.06330E+2  -3.16075E+2
   7.01134E+2   3.11498E+2
  -1.14778E+2   2.80712E+2
  -1.62976E+2  -2.50581E+1
   9.51362E+1   6.64128E+1
   2.50309E+2   9.66790E+1
  -1.47532E+2   7.78904E+1
  -1.71511E+2   2.28743E+2
  -1.23803E+2  -1.06693E+1
   4.22093E+1  -1.20690E+2
  -1.24770E+2  -2.14660E+2
  -5.90931E+1  -2.26761E+2
  -5.30933E+1  -4.09531E+1
  -1.26270E+1  -2.38662E+2
   3.28096E+2  -4.08071E+2
   4.28180E+2  -1.45445E+2
   2.23316E+2   5.88475E+1
   1.73742E+2  -1.16417E+2
   2.01734E+2   2.65414E+1
   4.92326E+2   1.48927E+2
   4.91633E+2   5.44259E+2
  -5.41348E+1   4.16132E+2
  -2.94204E+2  -7.08363E+1
  -5.62288E+2  -1.10853E+2
  -2.21590E+1  -1.68995E+2
  -8.92261E+1  -4.68764E+1
  -4.54323E+2  -3.44719E+1
  -1.30659E+2  -4.21757E+2
   4.33117E+2  -3.37604E+2
   1.81052E+2   2.92488E+1
  -1.92883E+2   2.61002E+2
  -1.79754E+2  -1.75516E+2
  -1.25989E+2  -2.47704E+2
   2.70218E+2   5.87503E+1
   1.23182E+2   1.94039E+2
   1.15665E+2   5.86343E+2
  -1.03427E+2   2.46422E+2
  -4.06717E+2  -3.72508E+1
  -1.61435E+2  -3.76583E+2
  -6.02533E+1  -2.30337E+2
  -9.08415E+1   9.57594E+1
  -1.26602E+2  -3.43833E+1
   9.15209E+1  -8.47067E+1
   1.91914E+2   2.16537E+2
   7.86883E+1   2.26994E+2
  -5.24230E+2   1.42222E+2
  -3.83427E+2  -2.92176E+2
   7.54816E+1  -2.95815E+2
   4.80354E+1  -8.09926E+1
   2.07650E+1  -1.80818E+2
   1.63265E+2  -1.80279E+2
   1.91946E+2   5.40072E+1
   2.81961E+2   9.76473E+1
  -6.13130E+1   1.39175E+2
   1.42899E+2  -4.14583E+1
   8.88595E+1   4.08331E+1
  -2.70916E+2  -2.60003E+1
   1.30165E+1  -2.00791E+2
   1.18896E+2  -6.16858E+1
   9.68271E+1  -2.32956E+0
  -1.45812E+2  -7.54624E+1
   1.41674E+1  -2.69413E+1
   8.17843E+1   2.94911E+1
  -1.52669E+2  -3.20991E+1
  -2.78160E+1  -1.27477E+2
   4.42671E+1  -1.46615E+2
   1.51450E+2  -6.41811E+1
   9.92530E+1  -1.08741E+2
  -2.58145E+2  -8.94954E+1
  -1.05472E+2   1.37489E+2
   4.98366E+1  -1.80489E+2
   2.94951E+1   3.98314E+1
  -2.55884E+2   1.13818E+2
   5.12777E+1   5.45172E+1
  -1.55692E+2  -2.91069E+2
  -7.68114E+1  -2.29397E+1
  -7.49271E+1  -1.26228E+2
   1.72912E+1  -6.48996E+1
  -2.04097E+2   1.00724E+1
  -6.22532E+1  -4.79550E+0
   9.40027E+1  -1.33896E+2
  -3.68764E+1   1.13975E+2
   1.57817E+2  -5.56766E+1
   1.19727E+2  -1.71504E+1
   7.30348E+1   1.12079E+2
   2.45206E+2  -2.45594E+1
   3.68134E+1  -6.41230E+1
   2.31172E+1   1.94168E+1
  -9.56835E+1   4.18201E+1
  -1.90416E+2   1.76804E+2
  -1.61501E+2   8.16226E+1
   1.35778E+2   1.35296E+2
  -1.78592E+2   1.35043E+2
  -1.77381E+1   6.76532E+1
  -1.67355E+2  -9.83029E+1
  -1.14441E+2   1.09007E+2
   6.30992E+1   6.65045E-2
  -4.26676E+1   4.35990E+1
  -2.86656E+1   1.36888E+2
  -4.06860E+1   1.14326E+2
   9.89927E+1  -2.07789E+2
   2.58315E+2  -1.52855E+2
  -1.46001E+2  -6.68325E+1
   8.86104E+1  -5.64508E+1
   1.16593E+2  -2.67314E+1
  -3.13852E+1   2.16715E+2
   2.51807E+2   1.02829E+2
   2.38404E+2  -6.52237E+1
  -1.76418E+1  -8.39477E+1
   1.83807E+1   1.84484E+1
   2.09661E+2   1.00670E+2
  -1.30290E+1  -8.93505E+1
  -1.29784E+2  -1.45240E+2
  -2.71519E+1  -8.55359E+1
   1.49448E+2   2.73384E+1
   2.51230E+1  -1.20987E+2
   6.91205E+1  -2.50881E+2
   3.12129E+2   3.97354E+1
   1.94175E+2  -8.02030E+0
  -5.15297E+1   7.66367E+1
   1.25214E+2   1.75913E+2
   5.60975E+0   1.27132E+2
   1.90690E+2  -3.56936E+1
   1.49673E+2   2.29854E+2
   8.53546E+1   3.26887E+1
  -4.85692E+1  -1.75756E+2
   1.85918E+2   8.15350E+1
  -2.81578E+1  -1.52972E+2
   8.39584E+1   4.95804E+0
   2.09292E+2   1.11700E+2
  -2.99521E+0   1.95526E+2
   1.03745E+1   5.14196E+1
   1.23799E+2  -2.09847E+2
   4.84816E+1  -5.00887E+1
  -1.41859E+2  -6.40849E+1
  -1.14782E+1   1.58829E+2
   1.32945E+2  -9.24638E+1
   2.11001E+2  -1.88020E+2
  -1.17859E+2   1.54890E+1
  -3.59627E+1   9.70672E+0
  -1.20560E+2   2.40926E+2
  -9.85156E+1   5.74638E+1
   2.78194E+2  -1.28258E+2
  -1.42167E+2   1.38293E+2
   5.67426E+1   1.90304E+2
  -3.15454E+1  -3.44418E+1
   1.34378E+2   1.74243E+2
  -5.60470E+1  -8.14171E+1
   7.72118E+1   1.63110E+2
   5.40159E+1  -2.33304E+1
  -9.07183E+1   3.11407E+1
  -4.98921E+1   1.90167E+2
  -1.12304E+2  -7.89162E+1
  -2.02376E+2  -1.25460E+2
  -4.56754E+1   8.25379E+1
  -3.65611E+1  -1.83675E+2
   1.82113E+2   1.15726E+2
  -1.32869E+2   5.87558E+1
  -2.17363E+1  -4.88590E+0
  -7.28196E+1   3.35034E+1
   2.09593E+2   9.13269E+0
  -1.31444E+2   4.60704E+1
  -2.49160E+1  -1.23701E+2
  -4.02696E+1  -1.16813E+2
  -1.91784E+1   1.12959E+2
  -2.19278E+1   1.74285E+2
  -9.87214E+0   7.49192E+1
   1.43594E+2  -5.46995E+1
   1.38914E+2  -2.16702E+2
   2.03623E+2  -3.88241E+1
   1.14955E+2   1.85222E+1
  -1.79068E+2   9.67335E+1
   2.63340E+1   1.83479E+2
  -1.89284E+2   8.57876E+1
  -5.93939E+1   1.89234E+2
   7.85005E+1   1.02396E+2
  -8.89079E+1  -1.94437E+1
   3.69097E+2  -1.24054E+2
   1.15966E+2   4.89360E+1
   2.93438E+1   8.16069E+1
   9.67766E+1  -5.42510E+1
  -7.72505E+0  -7.52441E+1
  -4.21637E+1  -6.55861E+1
  -2.59936E+2  -2.98397E+2
   1.71049E+2   7.42293E+1
  -4.10644E+1   6.84869E+1
   1.79779E+2  -1.85783E+2
   2.26904E+2  -2.70368E+2
   4.12620E+1  -1.58451E+1
   3.26065E+1   6.98064E+1
  -2.02483E+2  -8.03449E+1
  -2.41822E+2   9.09925E+1
   3.51444E+1   1.65092E+2
  -2.43432E+1  -2.89973E+2
   5.23118E+1   2.64120E+1
  -3.37755E+0  -1.27890E+2
  -8.10729E+1   3.00289E+1
   6.21778E+1  -9.92984E+1
  -2.15063E+1   1.73309E+2
   2.29656E+1   7.20661E+1
   6.26408E+1   1.22236E+2
  -4.26888E+1  -1.02109E+2
   1.18053E+2   1.24392E+2
   5.53973E+1   5.87710E+1
   1.15960E+2   7.36005E+1
  -7.02821E+1  -2.37004E+2
   6.64159E+1   9.79297E+1
  -1.00152E+2  -1.06351E+2
  -5.59528E+1  -1.45797E+1
   1.26177E+2  -1.76375E+2
  -3.14113E+2   2.13059E+1
   7.33803E+1  -8.07328E+1
   5.59078E+0   9.09789E+1
  -2.56671E+2   8.13903E+1
  -8.25681E+1   1.14155E+2
   6.95129E+1   4.03422E+1
   1.51373E+2  -2.62981E+1
   4.09976E+1   9.67763E+0
  -1.44732E+2   1.06549E+2
   6.80488E+1  -2.14033E+1
   1.85306E+2   8.05761E+1
   1.65064E+2   4.53160E+1
   7.98014E+1  -5.04152E+1
  -2.34425E+2   1.70836E+1
  -3.13285E+2  -2.21646E+1
  -9.15479E+1  -4.03715E+1
   2.76453E+1   1.20262E+2
  -2.21653E+2  -1.10525E+2
   5.95061E+0   1.39207E+2
   2.77762E+2   1.33042E+2
  -2.48817E+1  -5.51444E+1
   1.96769E+1   1.51538E+1
  -5.32771E+1   2.38325E+2
   1.72244E+2  -7.53933E+1
  -3.37044E+1   8.21134E+1
   1.02358E+2   6.31523E+1
   9.03632E+1   1.93529E+2
  -8.34641E+1   9.42282E+1
  -1.17210E+2   1.06403E+2
  -7.64701E+1   2.74241E+2
  -1.14890E+2  -4.11527E+0
   1.11313E+2   4.39124E+1
   1.47456E+2   1.43099E+1
  -1.66719E+2  -5.30496E+1
   4.24588E+1   1.30832E+2
   6.87708E+1   5.82614E+1
  -3.90293E+1   1.80172E+2
  -9.21564E+1  -9.82017E+1
  -2.67367E+1  -5.44370E+1
   3.65543E+0  -7.23211E+1
  -1.25377E+2   1.16528E+2
  -1.40977E+2  -8.25120E+1
  -3.47347E+1  -1.05589E+2
   1.17315E+2  -8.77097E+0
  -8.30348E+1   7.83014E+1
  -4.85163E+1   3.01277E+2
  -1.13013E+2   1.99946E+2
  -1.80218E+1   1.59569E+2
  -1.80835E+1  -1.04936E+2
   1.07531E+2   5.42697E+1
   1.68870E+1  -3.99625E+1
   3.34485E+1   1.90698E+2
   1.21724E+1  -1.99983E+1
   1.41609E+2   7.60579E-2
   7.52135E+1  -6.99243E+1
  -2.76221E+1   9.63059E+1
  -8.49253E+1   2.68561E+1
  -1.96707E+2  -7.08427E+1
   4.67327E+1   1.67426E+1
   2.48800E+2  -3.68862E+1
   3.67669E+1   1.85675E+2
  -5.84227E+1  -8.00791E+1
   2.44262E+1   1.79394E+2
  -1.76100E+2   2.28237E+1
   1.14557E+2   8.23510E+1
  -5.71787E+1   1.54057E+2
   1.71262E+2  -3.59633E+1
   2.59144E+2   6.88464E+1
   9.06090E+1   6.21469E+1
   2.87431E+1   2.66224E+1
   9.08389E+1  -5.98463E+1
  -1.39161E+2   2.17797E+1
   6.37394E+1  -2.23691E+1
  -6.23612E+1  -3.58025E+1
   4.20043E+0  -8.63347E+1
  -1.22779E+1   4.30607E+1
   1.75514E+1   4.06455E+1
  -1.22091E+2   3.06135E+1
  -2.16995E+2  -3.81675E+1
  -1.01241E+2   1.13142E+2
   1.16508E+2  -4.63654E+1
   6.33994E+1  -1.94715E+2
  -8.10239E+1  -1.93755E+2
  -2.05299E+1   1.09226E+2
