 
 $NMID
 ID=''
 FMTDAT='(2E13.5)'
 TRAMP=   1.00000E+0
 VOLUME=   1.00000E+0
 $END
   2.01794E+4   3.12287E+4
   1.48965E+4  -6.31947E+3
   2.28527E+3  -5.55464E+3
  -5.25775E+3   2.25304E+3
  -5.49464E+3  -1.15336E+3
   1.89171E+3  -3.17010E+3
   4.44940E+3   8.36512E+2
  -1.37716E+2   2.44469E+3
  -5.37511E+2  -7.21489E+1
   9.96643E+2   6.79834E+2
  -1.71684E+3   2.68690E+3
  -1.95362E+3   1.12545E+3
   2.31986E+2  -2.50659E+3
  -1.03833E+3  -2.41925E+3
  -1.32642E+3  -2.39331E+2
   8.48499E+2  -2.93246E+0
   1.08685E+3  -5.18649E+2
   3.22817E+2  -7.00751E+2
   8.67774E+2   4.67576E+2
  -1.05270E+2   1.47367E+3
  -7.88233E+2   2.49852E+2
   9.97158E+2  -1.49646E+3
   1.15688E+3   4.03715E+2
  -1.48696E+3   1.39291E+3
  -1.61779E+3  -1.41890E+3
   1.67638E+3  -7.12930E+2
   2.09562E+3   2.83035E+3
  -1.18888E+3   1.60751E+3
  -1.68188E+3  -2.26650E+3
   8.49484E+2  -1.95498E+3
   9.53708E+2   1.16904E+3
  -1.19506E+3   1.87426E+3
  -2.03750E+3  -5.88933E+2
   9.16010E+1  -2.44498E+3
   2.22048E+3  -1.93085E+3
   2.13582E+3   6.73853E+2
  -4.50729E+2   1.43606E+3
  -9.57079E+2   2.56151E+2
   4.64408E+2  -4.18044E+2
   3.91764E+2   4.49720E+2
  -1.04070E+3  -6.49877E+2
  -2.13653E+2  -1.68944E+3
   1.38357E+3  -1.86927E+2
   4.52871E+2   9.38179E+2
  -1.74509E+2  -2.44758E+2
   7.32235E+2  -4.73828E+2
   6.56481E+1   1.11673E+3
  -2.11801E+3   6.68006E+2
  -1.35163E+3  -1.44901E+3
   5.73280E+2  -1.37057E+3
   1.06779E+3   6.46069E+1
  -6.11489E+0  -1.83818E+2
   1.10357E+2  -3.78576E+2
   4.59279E+2   1.35706E+2
   3.42863E+1   7.75839E+2
  -6.33012E+2   4.67838E+2
  -4.95008E+2  -3.29836E+2
  -2.34349E+2  -8.68325E+2
   4.33639E+2  -5.23505E+2
   4.99483E+2   1.60407E+2
   2.09594E+2   7.35823E+2
  -8.79322E+1   5.64634E+2
  -2.09657E+2   1.25412E+3
  -1.00059E+3   1.12560E+3
  -1.22441E+3  -1.58412E+2
  -6.29609E+2  -5.77826E+2
   2.47753E+2  -1.05776E+3
   6.86670E+2  -6.89856E+2
   8.08379E+2   2.44162E+2
   6.25226E+1   6.64032E+2
  -2.61607E+2   1.48671E+2
   2.65294E+2  -4.29179E+2
   8.82951E+2   4.37699E+2
   4.47676E+2   1.08937E+3
  -3.51826E+2   1.80221E+2
   6.62244E+1  -2.56731E+2
   2.28305E+2   4.28354E+2
  -7.19838E+1   6.13820E+2
  -1.40064E+2   3.79431E+2
  -3.80783E+0   2.37533E+2
  -2.86316E+2   1.29939E+2
   4.81734E+1  -4.79360E+2
   2.70096E+2  -3.24083E+2
   7.36058E+1  -1.63365E+2
   6.95928E+0   6.95494E+1
   2.58668E+2  -1.72882E+2
   4.32094E+2  -7.43863E+1
   6.13746E+2   2.77817E+2
   2.67358E+2   1.41856E+2
   3.40490E+2   1.46675E+2
   4.22273E+2  -4.67282E+1
   3.89638E+2   4.70233E+2
  -2.87300E+2   6.56488E+2
  -7.27854E+2  -6.71423E+1
  -3.20634E+2  -5.35880E+2
   3.44041E+2  -5.48005E+2
   4.91942E+2  -8.13465E+1
  -1.14890E+2  -2.74409E+2
  -8.21464E+1  -4.01163E+2
   4.43312E+2  -5.44963E+1
   4.74649E+2   2.93491E+2
  -7.27690E+0   5.11642E+2
  -5.34840E+2   1.91985E+2
  -2.82747E+2  -3.18702E+2
   2.11625E+2  -2.47160E+2
   2.93958E+2  -1.79336E+1
  -4.65556E+1   3.33911E+2
  -5.87274E+2   1.90666E+2
  -8.20421E+2  -6.65851E+2
   1.01120E+2  -1.07369E+3
   5.45732E+2  -1.05346E+2
   4.98920E+2   3.26212E+2
  -2.04223E+2   2.19119E+2
  -2.75486E+2   6.42077E+1
   7.34174E+1   9.90758E+1
   1.22027E+2   4.69853E+2
  -4.94238E+2   3.79528E+2
  -9.06590E+2  -2.79506E+2
  -2.52283E+2  -3.89402E+2
   1.96815E+2  -5.23249E+2
   3.28124E+2  -1.45447E+2
   1.31053E+2   8.97030E+1
   3.75903E+2   1.30488E+2
   3.62099E+1   2.10033E+2
  -3.43056E+2   2.22794E+2
  -3.10823E+2  -2.60957E+1
   2.85540E+1  -3.63412E+2
  -8.18876E+1  -1.78975E+2
   2.77673E+2   2.07777E+2
  -6.69223E+0   2.73218E+2
   3.21723E+1   5.03736E+2
  -2.45199E+2   2.21246E+2
  -1.65612E+2  -2.16662E+2
  -1.02916E+2  -3.17159E+1
   1.35109E+2   1.26567E+2
  -2.15500E+2  -1.98370E+1
   2.08418E+1  -3.96384E+2
   3.08201E+2   2.91235E+1
   1.71829E+2   3.07528E+2
  -3.03335E+2   3.39798E+2
  -5.79463E+2   1.85277E+2
  -5.95386E+1  -2.95518E+2
   1.26587E+2  -6.63193E+1
   3.82091E+2   2.01165E+2
  -2.03093E+2   5.70387E+2
  -2.30944E+2   4.93880E+2
  -1.50693E+2   4.57819E+2
  -3.29995E+2   1.45905E+2
  -2.13338E+2  -8.08242E+1
  -1.89897E+2   8.48627E+1
  -1.35476E+2   1.42179E+2
   1.83654E+2  -3.71872E+2
   1.59465E+2  -5.54388E+0
   2.03406E+2   2.96181E+2
  -1.01752E+2   2.54610E+2
  -2.61569E+1   1.54309E+2
   1.60704E+2   5.43142E+1
   7.66493E+1   3.24565E+2
   2.64629E+1   8.42105E+1
  -1.24902E+2   2.16439E+2
  -1.50090E+2   1.40391E+2
  -1.42638E+2   4.06087E+2
  -3.33512E+2   1.71538E+2
  -3.00298E+1  -1.02014E+2
   6.76042E+1  -2.90418E+2
   5.74610E+1  -2.40406E+1
   1.66560E+1   9.14177E+0
   1.37687E+1   2.91273E+2
  -9.03554E+0   2.20083E+2
   6.53166E+1  -5.20566E+1
   3.32551E+1   8.19072E+1
   1.61042E+1   3.03570E+2
  -1.40725E+2   6.59278E+1
  -1.87075E+2   3.75103E+2
  -2.99676E+2   7.74949E+1
   6.92014E+1   1.43401E+2
  -9.63875E+1   3.65308E+2
  -1.03382E+2   2.22630E+2
  -9.32667E+1  -2.25495E+2
  -2.06962E+0  -2.95924E+1
  -8.29093E+0   4.17557E+2
   1.39930E+2   2.85747E+2
  -1.99652E+2   1.87390E+2
   5.74726E+1   1.74850E+2
  -1.41282E+2   1.18448E+2
  -4.55866E+1  -1.41386E+2
  -1.87861E+2  -9.27685E+1
   3.30165E+1  -4.32457E+1
   1.48251E+2   9.20920E+1
   3.89857E+2   3.46372E+1
   1.80782E+2   2.95350E+2
  -4.57402E+1   2.68900E+2
   1.67729E+2   6.39722E+1
  -2.06694E+2   3.75936E+1
   1.41733E+2  -8.04146E+1
   1.46592E+2  -1.39442E+2
   3.50501E+2   1.01104E+2
   3.33700E+1  -2.17006E+0
   8.52055E+1   9.44281E+1
   1.56167E+2   9.44795E+1
  -8.50631E+1   1.58297E+2
  -1.68267E+2   2.06766E+1
  -2.42059E+1  -7.51865E+1
  -9.84813E+0  -1.57307E+2
   8.66814E+1  -7.65148E+1
   9.00833E+1   5.77638E+0
  -1.51888E+2  -2.42158E+1
   5.94722E+1  -2.60166E+1
   4.96316E+1   1.17276E+2
  -6.55419E+1  -2.32187E+2
  -1.09242E+2  -2.75026E+2
   2.84044E+0  -1.56788E+0
   3.62632E+2  -1.27845E+2
   2.15054E+2   1.85850E+2
  -4.28863E+1   2.64381E+1
  -2.74492E+2   4.19868E+1
  -1.43238E+2  -6.03775E+1
  -2.67536E+2  -1.01308E+2
   1.60169E+2  -1.47256E+2
  -1.47051E+2  -7.29538E+1
   2.59020E+1   2.54809E+1
   6.41830E+1  -1.34233E+2
  -1.06198E+2   2.00010E+1
   1.05775E+2   1.20137E+2
  -2.29355E+2   1.05747E+2
  -3.69090E+0  -1.34809E+2
   6.71373E+1   1.04298E+1
  -1.87184E+1  -9.16996E+1
  -2.51096E+1  -1.63158E+2
   1.23703E+2  -7.86137E+1
  -1.88167E+2  -4.04009E+1
  -4.42255E+1  -1.07709E+2
  -9.92122E+1   5.82793E+1
  -7.73861E+1   3.19659E+1
  -2.36975E+1  -2.01716E+2
  -4.83660E+1   1.67481E+2
   7.28726E+1  -9.23625E+1
   3.66666E+1  -1.03806E+2
  -3.56692E+1   1.44790E+2
  -1.29572E+2  -8.57460E+1
   6.82574E+1   4.86795E+1
   5.55031E+1   1.49288E+0
   2.87600E+1   1.65887E+2
  -8.81915E+1   7.41173E+1
  -7.65597E+1   3.86618E+0
  -9.40909E+1  -5.85084E+1
  -7.85943E+0   9.71746E+1
  -1.80454E+2  -4.83799E+1
   1.33170E+2  -1.14061E+2
   1.56040E+2   1.51221E+2
  -2.04261E+2  -2.49791E+2
   1.00545E+0   1.22362E+2
   5.23858E+1   8.34062E+1
  -2.02823E+2  -2.28768E+2
   1.03397E+2  -3.42623E+2
   1.16694E+2   1.32022E+1
  -7.83951E+1  -9.99258E+1
   4.07194E+1  -2.41567E+2
  -7.07970E+0   7.09916E+1
  -1.54852E+2   1.30528E+2
  -1.99650E+1  -8.97330E+1
  -5.92478E+1  -1.47180E+2
  -4.57737E+0  -1.55979E+2
   1.55279E+2  -1.28806E+2
   9.81517E+1  -7.44588E+1
  -4.50177E+1   1.01341E+1
  -1.36917E+2   2.75140E+1
  -1.97799E+2   1.54096E+2
  -9.17870E+1   9.31053E+1
  -5.86481E+1   2.42297E+1
   1.93054E+2  -2.72391E+2
  -3.69420E+1  -9.86620E+1
  -1.06460E+2  -2.02390E+2
  -2.01388E+2  -2.45639E+2
  -1.18508E+1  -5.39679E+1
  -2.73524E+1   1.31632E+2
  -1.88620E+2  -7.21791E+1
   1.44718E+2  -1.97734E+2
  -9.33525E+1   7.37273E+1
   1.24587E+2  -1.79603E+2
  -2.86636E+1   1.32786E+2
   1.86751E+1  -4.04065E+1
   1.13210E+2  -1.44582E+2
  -2.24507E+1  -1.01470E+2
  -2.85385E+2  -1.21950E+0
  -3.80504E+1  -2.22272E+2
  -2.41218E+2  -1.15073E+2
  -7.78224E+1  -9.17188E+1
  -9.82792E+0  -1.95723E+2
   1.23625E+2   1.98513E+2
   4.59426E+1  -3.16091E+2
   3.62508E+1  -2.96372E+1
  -1.52143E+2  -4.87439E+1
  -7.39134E+1  -1.07389E+2
  -4.66607E+1  -5.64139E+0
  -1.45684E+1   2.25601E+1
  -4.96872E+1  -4.53738E+1
   2.32673E+2  -4.20600E+1
  -2.31737E+1   1.56401E+2
  -1.24171E+2  -1.80587E+2
   1.04403E+2  -1.77936E+2
   8.35135E+0   3.60959E+1
  -6.65727E+1  -1.51381E+2
  -2.05626E+2   1.50245E+1
  -1.48053E+2  -1.20760E+2
   3.23599E+2  -1.03335E+2
  -1.66608E+2  -4.85640E+1
  -3.21950E+1   2.72777E+1
   3.98797E+1  -1.22877E+2
  -1.05894E+2  -1.44808E+2
  -1.76913E+2  -1.26022E+2
  -2.48023E+2  -5.36974E+1
  -3.74044E+1  -7.02575E+1
   1.14249E+2   1.02438E+1
  -6.37698E+1  -1.00113E+2
   2.06449E+2  -3.43238E+1
  -2.05984E+2  -7.08209E+0
  -2.58919E+2  -2.56351E+0
  -2.14744E+2  -1.54569E+1
   1.11988E+1  -8.08924E+1
  -1.01626E+2  -9.47662E+1
   1.07207E+2  -2.09147E+0
  -8.38944E+0  -1.02797E+1
   4.84459E+0   1.53957E+2
  -1.11945E+2  -1.27256E+2
   3.00057E+1  -7.68061E+1
   9.47843E+1   3.70673E+1
   1.06043E+2   8.67213E+1
  -1.50856E+2  -5.15006E+1
  -6.49075E+1  -1.16610E+2
   2.49087E+0  -6.62634E+1
  -7.10184E+1   1.02502E+2
  -5.28372E+0  -2.88847E+1
   7.61740E+1  -2.57944E+2
   5.39846E+1   1.68129E+2
   1.04419E+2   4.10969E+1
   4.29356E+1   2.14150E+2
   7.66465E+0  -1.43126E+2
  -8.37821E+1  -1.79283E+2
   1.65488E+1  -4.95088E+1
  -2.21403E+2  -1.75823E+2
  -9.23282E+1   1.23344E+2
   9.17958E+1  -1.95766E+2
   2.37061E+1   4.72422E+0
   9.12116E+1   6.98625E+0
   5.46260E+0  -3.43722E+1
  -3.51510E+1   9.10880E-1
   8.76435E+1   2.05639E+2
   2.08811E+2  -1.94234E+2
  -1.38214E+2  -7.21781E+1
  -3.07850E+1  -9.93667E+1
  -3.05682E-1  -2.09893E+2
   3.63140E+2   3.69044E+1
  -1.09199E+1   1.56060E+2
  -1.41816E+2  -9.21378E+1
   2.34389E+0  -7.59470E+1
   1.25821E+1  -6.03038E+1
   2.88381E+2  -7.61531E+1
   4.77491E+1   1.31602E+2
   6.22264E+1   2.50304E+2
  -6.50307E+1  -7.83100E+1
  -1.26039E+1  -1.19812E+2
  -5.88246E+1   9.17068E+1
   2.24428E+2   1.34706E+2
  -8.98829E+1  -3.80982E+1
   1.67636E+1  -1.15924E+2
   4.86486E+1  -3.27502E+1
