 LCModel (Version 6.3-1N) Copyright: S.W. Provencher.          Ref.: Magn. Reson. Med. 30:672-679 (1993).                
 Slice_N1@10_21  28-Feb-2025 11:36:38
 27 lines in following concentration table = NCONC+1
    Conc.  %SD /Cr+PCr  Metabolite                                         
 3.09E-04   3% 3.9E-04 Mac                                                 
    1.852  42%   2.343 Cr                                                  
    4.472  17%   5.657 PCr                                                 
    3.527  18%   4.462 Ins                                                 
    9.277   7%  11.735 NAA                                                 
    4.584  14%   5.798 Tau                                                 
    0.000 999%   0.000 PCho                                                
    0.962  21%   1.216 GPC                                                 
    8.481  10%  10.729 Glu                                                 
    4.092  16%   5.176 Gln                                                 
    2.747  20%   3.475 Ala                                                 
    1.628  55%   2.059 Asc                                                 
    2.263  33%   2.862 Asp                                                 
    0.000 999%   0.000 GABA                                                
    0.839  62%   1.062 Glc                                                 
    0.846  47%   1.070 GSH                                                 
    0.000 999%   0.000 Lac                                                 
    1.529  28%   1.934 NAAG                                                
    1.002  82%   1.267 PE                                                  
    0.962  21%   1.216 GPC+PCho                                            
   10.806   6%  13.669 NAA+NAAG                                            
   12.573   8%  15.905 Glu+Gln                                             
    6.324   9%   8.000 Cr+PCr                                              
   10.806   6%  13.669 NAA+NAAG                                            
    6.324   9%   8.000 Cr+PCr                                              
   12.573   8%  15.905 Glu+Gln                                             
   6 lines in following misc. output table
  FWHM = 0.033 ppm    S/N =   5                                            
  Data shift = 0.049 ppm                                                   
  Ph:-102 deg       0.0 deg/ppm                                            
  alphaB,S = 3.2E-01,   4.2E-01                                            
   19 spline knots.   Ns = 5(1)                                            
   1 inflections.     2 extrema                                            
  480 points on ppm-axis = NY
      4.100000     4.091866     4.083733     4.075600     4.067466     4.059333     4.051199     4.043066     4.034933     4.026799
      4.018666     4.010532     4.002399     3.994265     3.986132     3.977998     3.969864     3.961731     3.953597     3.945463
      3.937330     3.929196     3.921062     3.912929     3.904795     3.896662     3.888528     3.880394     3.872261     3.864127
      3.855993     3.847860     3.839726     3.831592     3.823459     3.815325     3.807191     3.799058     3.790924     3.782790
      3.774657     3.766523     3.758389     3.750256     3.742122     3.733989     3.725855     3.717721     3.709588     3.701454
      3.693320     3.685187     3.677053     3.668919     3.660786     3.652652     3.644518     3.636385     3.628251     3.620117
      3.611984     3.603850     3.595716     3.587583     3.579449     3.571316     3.563182     3.555048     3.546915     3.538781
      3.530647     3.522514     3.514380     3.506246     3.498113     3.489979     3.481845     3.473712     3.465578     3.457444
      3.449311     3.441177     3.433043     3.424910     3.416776     3.408643     3.400509     3.392375     3.384242     3.376108
      3.367974     3.359841     3.351707     3.343573     3.335440     3.327306     3.319172     3.311039     3.302905     3.294771
      3.286638     3.278504     3.270370     3.262237     3.254103     3.245970     3.237836     3.229702     3.221569     3.213435
      3.205301     3.197168     3.189034     3.180900     3.172767     3.164633     3.156499     3.148366     3.140232     3.132098
      3.123965     3.115831     3.107697     3.099564     3.091430     3.083297     3.075163     3.067029     3.058896     3.050762
      3.042628     3.034495     3.026361     3.018227     3.010094     3.001960     2.993826     2.985693     2.977559     2.969425
      2.961292     2.953158     2.945024     2.936891     2.928757     2.920624     2.912490     2.904356     2.896223     2.888089
      2.879955     2.871822     2.863688     2.855554     2.847421     2.839287     2.831153     2.823020     2.814886     2.806752
      2.798619     2.790485     2.782351     2.774218     2.766084     2.757951     2.749817     2.741683     2.733550     2.725416
      2.717282     2.709149     2.701015     2.692881     2.684748     2.676614     2.668480     2.660347     2.652213     2.644079
      2.635946     2.627812     2.619678     2.611545     2.603411     2.595278     2.587144     2.579010     2.570877     2.562743
      2.554609     2.546476     2.538342     2.530208     2.522075     2.513941     2.505807     2.497674     2.489540     2.481406
      2.473273     2.465139     2.457006     2.448872     2.440738     2.432605     2.424471     2.416337     2.408204     2.400070
      2.391936     2.383803     2.375669     2.367535     2.359402     2.351268     2.343134     2.335001     2.326867     2.318733
      2.310600     2.302466     2.294333     2.286199     2.278065     2.269932     2.261798     2.253664     2.245531     2.237397
      2.229263     2.221130     2.212996     2.204862     2.196729     2.188595     2.180461     2.172328     2.164194     2.156060
      2.147927     2.139793     2.131660     2.123526     2.115392     2.107259     2.099125     2.090991     2.082858     2.074724
      2.066590     2.058457     2.050323     2.042189     2.034056     2.025922     2.017788     2.009655     2.001521     1.993387
      1.985254     1.977120     1.968987     1.960853     1.952719     1.944586     1.936452     1.928318     1.920185     1.912051
      1.903917     1.895784     1.887650     1.879516     1.871383     1.863249     1.855115     1.846982     1.838848     1.830714
      1.822581     1.814447     1.806314     1.798180     1.790046     1.781913     1.773779     1.765645     1.757512     1.749378
      1.741244     1.733111     1.724977     1.716843     1.708710     1.700576     1.692442     1.684309     1.676175     1.668041
      1.659908     1.651774     1.643641     1.635507     1.627373     1.619240     1.611106     1.602972     1.594839     1.586705
      1.578571     1.570438     1.562304     1.554170     1.546037     1.537903     1.529769     1.521636     1.513502     1.505368
      1.497235     1.489101     1.480968     1.472834     1.464700     1.456567     1.448433     1.440299     1.432166     1.424032
      1.415898     1.407765     1.399631     1.391497     1.383364     1.375230     1.367096     1.358963     1.350829     1.342695
      1.334562     1.326428     1.318295     1.310161     1.302027     1.293894     1.285760     1.277626     1.269493     1.261359
      1.253225     1.245092     1.236958     1.228824     1.220691     1.212557     1.204423     1.196290     1.188156     1.180022
      1.171889     1.163755     1.155622     1.147488     1.139354     1.131221     1.123087     1.114953     1.106820     1.098686
      1.090552     1.082419     1.074285     1.066151     1.058018     1.049884     1.041750     1.033617     1.025483     1.017349
      1.009216     1.001082     0.992949     0.984815     0.976681     0.968548     0.960414     0.952280     0.944147     0.936013
      0.927879     0.919746     0.911612     0.903478     0.895345     0.887211     0.879077     0.870944     0.862810     0.854676
      0.846543     0.838409     0.830276     0.822142     0.814008     0.805875     0.797741     0.789607     0.781474     0.773340
      0.765206     0.757073     0.748939     0.740805     0.732672     0.724538     0.716404     0.708271     0.700137     0.692003
      0.683870     0.675736     0.667603     0.659469     0.651335     0.643202     0.635068     0.626934     0.618801     0.610667
      0.602533     0.594400     0.586266     0.578132     0.569999     0.561865     0.553731     0.545598     0.537464     0.529330
      0.521197     0.513063     0.504930     0.496796     0.488662     0.480529     0.472395     0.464261     0.456128     0.447994
      0.439861     0.431727     0.423593     0.415460     0.407326     0.399192     0.391059     0.382925     0.374792     0.366658
      0.358524     0.350391     0.342257     0.334124     0.325990     0.317856     0.309723     0.301589     0.293455     0.285322
      0.277188     0.269055     0.260921     0.252787     0.244654     0.236520     0.228386     0.220253     0.212119     0.203986
 NY phased data points follow
   1.61233E+01  1.19363E+01  1.94348E+01  2.93497E+00 -1.34840E+01  1.70218E+01 -5.85563E+00 -2.66557E+00  1.52410E+01 -1.78927E+01
  -1.25889E+01 -6.46167E+00 -1.20160E+01 -1.71768E+01 -2.44512E+01  2.74142E+00  1.00351E+01 -1.71283E+01 -4.26500E+01 -7.64267E+01
  -6.51078E+01 -4.88715E+01 -4.93468E+01 -1.41656E+01  7.08657E+00  2.53987E+01  3.30563E+01  3.30555E+01  5.22466E+01  4.88288E+01
   3.64794E+01  3.63578E+01  3.91446E+01  3.67243E+01  3.57632E+01  3.92222E+01  4.53822E+01  3.78790E+01  1.61700E+01  4.56429E+00
  -2.05598E+01 -2.44313E+01 -1.46243E+01 -2.38059E+01  1.86601E+00  2.91201E+01  4.51878E+01  6.41377E+01  7.79060E+01  8.13454E+01
   7.84017E+01  8.77262E+01  7.92885E+01  7.31344E+01  6.44189E+01  5.67618E+01  7.14711E+01  5.54711E+01  4.20390E+01  4.66629E+01
   2.45131E+01  3.15518E+01  4.53399E+01  3.76932E+01  6.44745E+01  7.94183E+01  9.91707E+01  8.28098E+01  4.36781E+01  5.49082E+01
   3.31112E+01  2.41734E+01  3.89939E+01  4.70553E+01  5.70364E+01  7.58741E+01  8.19543E+01  7.27710E+01  8.19685E+01  7.68226E+01
   7.90323E+01  5.55026E+01  4.88424E+01  5.74852E+01  3.61102E+01  3.12855E+01  2.48183E+01  5.20322E+01  6.34794E+01  4.49608E+01
   5.09225E+01  7.00795E+01  7.79003E+01  8.06423E+01  9.01901E+01  8.14003E+01  1.01702E+02  1.04314E+02  7.85778E+01  1.02370E+02
   1.02831E+02  8.71775E+01  8.70735E+01  7.11247E+01  6.15556E+01  3.48638E+01  4.28739E+01  5.53732E+01  9.15783E+00 -3.03478E+01
  -6.49793E+01 -6.30435E+01 -5.60344E+01 -4.28784E+01 -1.70441E+01 -5.99517E+00  9.46955E+00  8.24860E+00  8.55564E+00  1.01996E+01
   2.96937E+01  3.08017E+01  4.58243E+01  5.29709E+01  3.39535E+01  5.64215E+01  5.28900E+01  5.54404E+01  7.31373E+01  1.39247E+02
   1.79392E+02  1.37919E+02  9.77532E+01  3.05047E+01 -5.31678E+00 -3.08418E+01 -5.06759E+01 -3.39971E+01 -2.39963E+01 -2.97094E+01
  -3.35059E+01 -2.12145E+01 -2.04424E+01 -3.35781E+01 -3.26246E+01 -1.39217E+01 -2.13676E+01 -3.64920E+01 -3.62684E+01 -1.93181E+01
  -9.70198E+00 -2.29438E+01 -2.65232E+01 -1.93990E+01 -1.63738E+01 -1.51451E+01  7.99582E+00 -3.41893E+00 -5.90400E+00  9.73104E+00
   4.69464E+00  2.48722E+01  1.23985E+01  5.27220E+00  2.07789E+01  1.66452E+01  5.56732E+00  4.04145E+00  7.56958E+00 -6.49708E+00
   1.24704E+01  4.05730E+01  4.22823E+01  4.91152E+01  4.49646E+01  4.30336E+01  6.26264E+01  5.82374E+01  4.30902E+01  3.23128E+01
   1.14775E+01  6.19034E+00 -1.79840E+00 -8.07967E+00  1.27722E+00 -1.98068E+00 -1.24905E+01 -9.52194E+00 -1.89420E+01 -1.77717E+01
   7.35039E-01 -1.80717E+01 -3.65536E-01  1.81971E+01 -7.85266E+00  1.16812E+00  4.31648E+00  1.04673E+01  2.32293E+01  2.36852E+01
   2.40484E+01  2.69271E+01  4.53419E+01  3.75055E+01  4.18468E+01  4.15676E+01  1.37764E+01  2.53159E+01  1.79168E+01 -1.36467E+01
  -1.74436E+00  5.18156E+00 -6.92759E+00  1.13795E+01  1.80272E+01  4.12714E+01  8.05458E+01  8.82699E+01  8.46923E+01  6.81338E+01
   6.62793E+01  4.47454E+01  3.04181E+01  3.13305E+01  2.35857E+01  3.00772E+01  3.57383E+01  4.18500E+01  3.36233E+01  3.61990E+01
   1.12378E+01  2.07731E+00  1.58737E+01 -4.06890E+00 -7.12904E+00 -1.58797E+01 -2.85587E+01 -4.02212E+01 -4.11607E+01 -4.94452E+01
  -5.23549E+01 -4.94085E+01 -3.98860E+01 -1.04554E+01 -1.10269E+01 -3.78763E+00  1.93994E+00  3.27159E+00 -3.34939E+00 -9.51440E+00
  -2.01268E+01 -2.28949E+01  1.11060E+01  1.67592E+01 -4.77347E+01 -1.35831E+02 -8.30803E+01 -8.15630E+00  3.47712E+01  1.44526E+02
   1.98775E+02  1.89646E+02  1.62751E+02  1.38772E+02  1.22210E+02  1.32908E+02  1.37210E+02  1.25638E+02  1.16138E+02  1.05395E+02
   1.18550E+02  9.75717E+01  8.83531E+01  1.01064E+02  9.73048E+01  1.00022E+02  1.02035E+02  9.84522E+01  8.12550E+01  7.98364E+01
   9.40808E+01  8.20086E+01  8.24762E+01  8.83372E+01  6.56978E+01  7.41668E+01  6.19254E+01  5.08783E+01  6.91566E+01  6.80250E+01
   5.18827E+01  3.37072E+01  5.44746E+01  5.20244E+01  6.49777E+01  5.89181E+01  3.02720E+01  4.48730E+01  3.35000E+01  4.50444E+01
   4.50352E+01  4.04424E+01  4.00092E+01  4.12337E+01  4.88421E+01  3.18735E+01  4.45864E+01  4.01502E+01  4.35922E+01  7.03117E+01
   7.33002E+01  6.98766E+01  7.59586E+01  7.81911E+01  7.68464E+01  8.03805E+01  7.04425E+01  6.81649E+01  6.22771E+01  7.41392E+01
   7.40502E+01  8.24506E+01  1.19851E+02  9.22000E+01  7.71165E+01  7.98030E+01  5.94252E+01  3.59715E+01  1.36615E+01  1.26439E+01
  -8.47862E+00 -2.74666E+01 -3.88052E+01 -4.19889E+01 -2.50994E+01 -4.97216E+01 -5.69077E+01 -3.11617E+01 -2.29381E+01 -9.19772E+00
  -1.25143E+01 -4.32427E+00 -3.64686E+00 -1.23141E+01  9.58943E+00  9.83433E+00  3.13307E+01  3.97967E+01  1.75841E+01  2.95671E+01
   3.31146E+01  4.11981E+01  4.82066E+01  3.95051E+01  3.13675E+01  2.25097E+01  3.46596E+01  3.92302E+01  3.01729E+01  2.56598E+01
   2.49312E+01  3.81532E+01  1.94935E+01  1.77573E+01  5.77524E+01  4.64604E+01  4.05502E+01  5.30836E+01  5.39523E+01  5.45337E+01
   5.13637E+01  7.07043E+01  6.80644E+01  6.95703E+01  7.53373E+01  5.24652E+01  7.39416E+01  7.82071E+01  6.05582E+01  9.23389E+01
   9.08545E+01  8.59095E+01  1.12247E+02  1.15679E+02  1.20092E+02  1.28224E+02  1.42964E+02  1.41159E+02  1.46987E+02  1.64758E+02
   1.53468E+02  1.46550E+02  1.26647E+02  1.11390E+02  1.16784E+02  1.12188E+02  9.69639E+01  1.03928E+02  8.57214E+01  6.15042E+01
   7.46514E+01  5.44337E+01  6.44417E+01  5.54945E+01  3.31745E+01  2.56879E+01  5.91689E+00  2.81919E+01  1.88085E+01  2.27394E+01
   2.37410E+01  1.74483E+01  4.06370E+01  2.40241E+01  4.82029E+00  1.80936E+01  2.81553E+01  2.31770E+01  2.92426E+01  1.21265E+01
   2.23306E+01  2.60463E+01  1.08747E+01  3.07808E+01  1.70558E+01  1.54139E+01  2.20792E+01  1.89890E+01  2.07447E+01  2.38665E+01
   1.60147E+01  1.79965E+01  1.95104E+01  3.74557E+00  1.30078E+01 -6.34599E+00  1.24974E+01  3.52835E+01  1.12346E+01  2.29149E+01
   2.20671E+01  1.64221E+01  2.72673E+01  2.25824E+01  1.28226E+01  1.78148E+01  1.60783E+01  2.37931E+01  2.66757E+01  9.21411E+00
   1.09765E+01  2.38592E+01  2.57356E+01  1.25055E+01  1.75673E+01  2.25544E+01  1.57611E+01  2.80836E+01  3.59910E+01  2.28823E+01
   2.29486E+01  2.17393E+01  1.78226E+01  1.45582E+01  6.89709E+00  2.41735E+01  1.95068E+01  1.75965E+01  1.76306E+01  1.79825E+01
   2.08292E+01  7.46413E+00  1.82960E+01  1.86011E+01  2.41213E+01  1.53818E+01  2.10702E+01  3.94957E+01  2.60684E+01  2.35192E+01
 NY points of the fit to the data follow
   1.17376E+01  9.37781E+00  1.09507E+00 -8.90745E+00 -1.01369E+01 -3.40512E+00  3.19834E+00  7.95985E+00  9.43503E+00  5.65435E+00
  -1.64506E+00 -7.33828E+00 -9.72900E+00 -9.89739E+00 -9.82591E+00 -1.14512E+01 -6.83428E+00 -7.06109E+00 -3.47573E+01 -6.16368E+01
  -5.07943E+01 -4.58504E+01 -3.46785E+01 -3.44920E+00  1.77360E+01  2.81173E+01  3.44976E+01  4.16538E+01  4.67244E+01  4.90630E+01
   5.15016E+01  5.36360E+01  5.41801E+01  5.27289E+01  5.12088E+01  4.97770E+01  5.07668E+01  4.98724E+01  3.50856E+01  5.90974E+00
  -1.49115E+01 -3.03465E+01 -3.21193E+01 -1.79463E+01  5.48954E+00  2.86187E+01  4.54071E+01  5.79465E+01  6.42763E+01  6.70818E+01
   6.81186E+01  6.62348E+01  6.16293E+01  5.52750E+01  4.78853E+01  4.71155E+01  5.18631E+01  4.45714E+01  3.63275E+01  4.15526E+01
   3.86737E+01  3.40482E+01  4.23792E+01  5.05038E+01  5.62034E+01  6.61712E+01  7.81498E+01  7.56926E+01  5.78902E+01  4.79743E+01
   4.26865E+01  3.35734E+01  3.36467E+01  4.36217E+01  5.36520E+01  6.08149E+01  6.79768E+01  7.61913E+01  8.10963E+01  8.37363E+01
   8.32688E+01  7.47900E+01  5.66104E+01  4.33399E+01  2.65594E+01  2.39697E+01  2.90963E+01  3.78629E+01  4.84650E+01  5.69262E+01
   6.32343E+01  6.69133E+01  7.05825E+01  7.43056E+01  7.68088E+01  8.01664E+01  8.43284E+01  8.31783E+01  8.03649E+01  8.78616E+01
   9.36039E+01  9.07823E+01  9.08541E+01  8.13997E+01  5.47334E+01  4.50816E+01  5.18117E+01  5.10680E+01  1.05984E+01 -2.11982E+01
  -4.24116E+01 -5.82852E+01 -5.54252E+01 -3.87974E+01 -1.99054E+01 -8.51138E+00 -6.16736E-01  6.09633E+00  1.19456E+01  1.74048E+01
   2.25934E+01  2.71486E+01  3.18899E+01  3.70608E+01  4.27767E+01  5.16351E+01  6.33315E+01  6.52032E+01  7.97666E+01  1.41067E+02
   1.88884E+02  1.48649E+02  9.63637E+01  4.36192E+01 -1.24108E+01 -4.40886E+01 -4.47313E+01 -3.15607E+01 -2.54307E+01 -2.36599E+01
  -2.32890E+01 -2.36796E+01 -2.40092E+01 -2.51472E+01 -2.60227E+01 -2.60354E+01 -2.53601E+01 -2.33479E+01 -2.07968E+01 -1.71284E+01
  -1.36279E+01 -1.15625E+01 -1.01139E+01 -7.90829E+00 -4.38192E+00 -1.00205E+00  1.13831E+00  1.52578E+00  1.27279E+00  3.47782E+00
   7.82940E+00  1.00719E+01  9.59677E+00  7.79771E+00  6.32565E+00  7.16082E+00  8.75628E+00  6.61512E+00  7.72650E-04 -2.63223E+00
   9.44278E+00  2.72406E+01  3.31471E+01  2.83037E+01  2.59001E+01  3.17482E+01  4.01459E+01  4.39963E+01  4.13041E+01  3.55440E+01
   2.38370E+01  1.16140E+01  4.35958E+00  6.46344E-01 -2.03877E+00 -4.30905E+00 -5.06738E+00 -5.21832E+00 -5.14567E+00 -2.02084E+00
  -1.67446E+00 -7.52659E+00 -3.52015E+00  8.68921E+00  8.03268E+00  8.55433E+00  1.52789E+01  1.83434E+01  2.10122E+01  1.74273E+01
   1.78577E+01  2.61395E+01  3.13203E+01  3.55467E+01  3.83032E+01  3.95244E+01  3.24925E+01  2.28570E+01  1.25742E+01 -8.04681E-01
  -9.51305E+00 -1.62946E+01 -2.41089E+01 -1.23213E+01  1.30572E+01  3.08212E+01  6.15284E+01  7.65883E+01  7.54723E+01  6.74861E+01
   5.50817E+01  4.53653E+01  3.92525E+01  3.89259E+01  4.16378E+01  4.43824E+01  4.53252E+01  4.37885E+01  4.01350E+01  3.24472E+01
   2.21808E+01  1.19378E+01  7.99505E-01 -1.26873E+01 -2.23634E+01 -3.25415E+01 -4.35938E+01 -4.83645E+01 -5.13430E+01 -5.48681E+01
  -5.00325E+01 -4.57274E+01 -3.66992E+01 -2.37076E+01 -1.15079E+01  9.28926E-02  4.01874E+00  3.15641E+00  3.36980E+00 -8.78412E-01
  -1.02768E+01 -2.68304E+01  4.84810E-01  1.94837E+01 -6.01151E+01 -1.43211E+02 -8.87333E+01 -2.78087E+01  3.66021E+01  1.17084E+02
   1.66236E+02  1.67429E+02  1.44120E+02  1.30441E+02  1.23080E+02  1.17821E+02  1.13352E+02  1.09533E+02  1.05321E+02  1.02045E+02
   9.98059E+01  9.82364E+01  9.74415E+01  9.72530E+01  9.69934E+01  9.57597E+01  9.46701E+01  9.35083E+01  9.26376E+01  9.14834E+01
   8.97820E+01  8.77600E+01  8.60135E+01  8.39371E+01  8.15040E+01  7.95080E+01  7.74356E+01  7.54565E+01  7.32482E+01  7.03339E+01
   6.73553E+01  6.38258E+01  5.87996E+01  5.34157E+01  4.81864E+01  4.38899E+01  4.14943E+01  4.13166E+01  4.24421E+01  4.42668E+01
   4.69842E+01  4.99680E+01  5.31291E+01  5.64952E+01  5.97117E+01  6.21428E+01  6.41191E+01  6.65700E+01  6.94293E+01  7.24819E+01
   7.55903E+01  7.79249E+01  8.05560E+01  8.32188E+01  8.50740E+01  8.70346E+01  8.94185E+01  9.02735E+01  9.00092E+01  8.90607E+01
   9.07590E+01  9.73567E+01  9.96818E+01  9.11679E+01  8.21226E+01  6.36630E+01  3.52764E+01  1.97848E+01  9.45222E+00  2.77260E+00
  -9.32509E-01 -4.27576E+00 -8.76521E+00 -1.41679E+01 -1.59677E+01 -1.40370E+01 -9.47450E+00 -3.15272E+00  2.44488E+00  6.17946E+00
   8.65234E+00  1.09767E+01  1.35828E+01  1.79385E+01  2.40934E+01  2.94650E+01  3.35581E+01  3.68625E+01  3.92888E+01  4.04675E+01
   4.09985E+01  4.12903E+01  3.96864E+01  3.54180E+01  2.97685E+01  2.42379E+01  1.87655E+01  1.51062E+01  1.35300E+01  1.35626E+01
   1.53636E+01  1.80752E+01  2.17047E+01  2.60695E+01  3.04020E+01  3.48401E+01  3.86762E+01  4.21142E+01  4.57413E+01  4.91029E+01
   5.24953E+01  5.61629E+01  5.91393E+01  6.19815E+01  6.58880E+01  7.00656E+01  7.36077E+01  7.87607E+01  8.51423E+01  9.10402E+01
   9.73163E+01  1.04992E+02  1.13549E+02  1.22753E+02  1.33545E+02  1.44926E+02  1.55150E+02  1.61634E+02  1.61409E+02  1.54867E+02
   1.44002E+02  1.31066E+02  1.17856E+02  1.07609E+02  1.00555E+02  9.43779E+01  8.77317E+01  8.05838E+01  7.12854E+01  5.98309E+01
   4.89990E+01  3.92195E+01  3.10081E+01  2.42685E+01  1.97407E+01  1.67534E+01  1.47742E+01  1.35877E+01  1.25977E+01  1.13717E+01
   1.01802E+01  9.53497E+00  9.31963E+00  8.88255E+00  8.93323E+00  9.73216E+00  1.03131E+01  9.79016E+00  9.58319E+00  1.04416E+01
   1.08744E+01  1.09603E+01  1.13092E+01  1.19582E+01  1.24876E+01  1.24827E+01  1.23519E+01  1.25970E+01  1.31741E+01  1.36523E+01
   1.44143E+01  1.50387E+01  1.51887E+01  1.51265E+01  1.50489E+01  1.52583E+01  1.54149E+01  1.61794E+01  1.67911E+01  1.72341E+01
   1.77116E+01  1.84639E+01  1.89719E+01  1.89493E+01  1.89256E+01  1.88830E+01  1.89791E+01  1.91326E+01  1.96909E+01  2.04788E+01
   2.05722E+01  2.05998E+01  2.09376E+01  2.11116E+01  2.14719E+01  2.20954E+01  2.25902E+01  2.29569E+01  2.33099E+01  2.37654E+01
   2.43178E+01  2.45542E+01  2.46317E+01  2.48205E+01  2.47164E+01  2.44978E+01  2.48539E+01  2.55651E+01  2.66364E+01  2.74556E+01
   2.79599E+01  2.77680E+01  2.77764E+01  2.78519E+01  2.76317E+01  2.78637E+01  2.87008E+01  2.90125E+01  2.89930E+01  2.91610E+01
 NY background values follow
     3.275E+01    3.286E+01    3.298E+01    3.310E+01    3.322E+01    3.334E+01    3.346E+01    3.358E+01    3.370E+01    3.382E+01
     3.394E+01    3.405E+01    3.417E+01    3.429E+01    3.441E+01    3.453E+01    3.465E+01    3.477E+01    3.489E+01    3.501E+01
     3.513E+01    3.525E+01    3.537E+01    3.549E+01    3.561E+01    3.573E+01    3.585E+01    3.597E+01    3.609E+01    3.621E+01
     3.633E+01    3.645E+01    3.657E+01    3.669E+01    3.680E+01    3.692E+01    3.704E+01    3.716E+01    3.727E+01    3.739E+01
     3.751E+01    3.762E+01    3.774E+01    3.785E+01    3.796E+01    3.807E+01    3.818E+01    3.829E+01    3.840E+01    3.851E+01
     3.861E+01    3.872E+01    3.882E+01    3.892E+01    3.902E+01    3.912E+01    3.922E+01    3.931E+01    3.940E+01    3.950E+01
     3.959E+01    3.967E+01    3.976E+01    3.984E+01    3.992E+01    4.000E+01    4.008E+01    4.016E+01    4.023E+01    4.030E+01
     4.037E+01    4.044E+01    4.050E+01    4.057E+01    4.063E+01    4.069E+01    4.075E+01    4.080E+01    4.086E+01    4.091E+01
     4.096E+01    4.100E+01    4.105E+01    4.109E+01    4.113E+01    4.117E+01    4.121E+01    4.125E+01    4.128E+01    4.131E+01
     4.134E+01    4.137E+01    4.139E+01    4.142E+01    4.144E+01    4.146E+01    4.147E+01    4.149E+01    4.150E+01    4.152E+01
     4.153E+01    4.153E+01    4.154E+01    4.154E+01    4.155E+01    4.155E+01    4.155E+01    4.155E+01    4.154E+01    4.154E+01
     4.153E+01    4.152E+01    4.151E+01    4.150E+01    4.148E+01    4.147E+01    4.145E+01    4.143E+01    4.141E+01    4.139E+01
     4.137E+01    4.135E+01    4.132E+01    4.130E+01    4.127E+01    4.124E+01    4.121E+01    4.118E+01    4.114E+01    4.111E+01
     4.107E+01    4.103E+01    4.100E+01    4.096E+01    4.091E+01    4.087E+01    4.083E+01    4.078E+01    4.074E+01    4.069E+01
     4.064E+01    4.059E+01    4.054E+01    4.048E+01    4.043E+01    4.038E+01    4.032E+01    4.026E+01    4.020E+01    4.014E+01
     4.008E+01    4.002E+01    3.995E+01    3.989E+01    3.982E+01    3.975E+01    3.969E+01    3.962E+01    3.954E+01    3.947E+01
     3.940E+01    3.932E+01    3.924E+01    3.916E+01    3.909E+01    3.900E+01    3.892E+01    3.884E+01    3.875E+01    3.866E+01
     3.858E+01    3.849E+01    3.839E+01    3.830E+01    3.821E+01    3.811E+01    3.801E+01    3.791E+01    3.781E+01    3.771E+01
     3.761E+01    3.750E+01    3.739E+01    3.728E+01    3.717E+01    3.706E+01    3.695E+01    3.683E+01    3.671E+01    3.659E+01
     3.647E+01    3.635E+01    3.623E+01    3.610E+01    3.597E+01    3.585E+01    3.572E+01    3.558E+01    3.545E+01    3.532E+01
     3.518E+01    3.504E+01    3.490E+01    3.476E+01    3.462E+01    3.447E+01    3.433E+01    3.418E+01    3.403E+01    3.388E+01
     3.373E+01    3.358E+01    3.342E+01    3.326E+01    3.311E+01    3.295E+01    3.278E+01    3.262E+01    3.246E+01    3.229E+01
     3.213E+01    3.196E+01    3.179E+01    3.162E+01    3.145E+01    3.127E+01    3.110E+01    3.092E+01    3.074E+01    3.057E+01
     3.039E+01    3.021E+01    3.002E+01    2.984E+01    2.966E+01    2.947E+01    2.928E+01    2.910E+01    2.891E+01    2.872E+01
     2.853E+01    2.834E+01    2.814E+01    2.795E+01    2.775E+01    2.756E+01    2.736E+01    2.717E+01    2.697E+01    2.677E+01
     2.658E+01    2.638E+01    2.618E+01    2.598E+01    2.578E+01    2.558E+01    2.539E+01    2.519E+01    2.499E+01    2.479E+01
     2.459E+01    2.439E+01    2.420E+01    2.400E+01    2.380E+01    2.361E+01    2.341E+01    2.322E+01    2.303E+01    2.283E+01
     2.264E+01    2.245E+01    2.226E+01    2.207E+01    2.189E+01    2.170E+01    2.152E+01    2.133E+01    2.116E+01    2.098E+01
     2.080E+01    2.063E+01    2.046E+01    2.029E+01    2.012E+01    1.996E+01    1.980E+01    1.964E+01    1.949E+01    1.934E+01
     1.919E+01    1.905E+01    1.891E+01    1.877E+01    1.864E+01    1.851E+01    1.839E+01    1.827E+01    1.816E+01    1.805E+01
     1.794E+01    1.784E+01    1.774E+01    1.765E+01    1.757E+01    1.748E+01    1.741E+01    1.734E+01    1.727E+01    1.721E+01
     1.715E+01    1.710E+01    1.705E+01    1.701E+01    1.697E+01    1.694E+01    1.692E+01    1.690E+01    1.688E+01    1.687E+01
     1.686E+01    1.686E+01    1.687E+01    1.688E+01    1.689E+01    1.692E+01    1.694E+01    1.697E+01    1.701E+01    1.705E+01
     1.710E+01    1.716E+01    1.722E+01    1.728E+01    1.735E+01    1.742E+01    1.750E+01    1.759E+01    1.768E+01    1.777E+01
     1.787E+01    1.797E+01    1.807E+01    1.818E+01    1.830E+01    1.842E+01    1.854E+01    1.866E+01    1.879E+01    1.893E+01
     1.906E+01    1.920E+01    1.934E+01    1.949E+01    1.964E+01    1.979E+01    1.994E+01    2.010E+01    2.025E+01    2.042E+01
     2.058E+01    2.074E+01    2.091E+01    2.108E+01    2.125E+01    2.142E+01    2.160E+01    2.177E+01    2.195E+01    2.213E+01
     2.231E+01    2.249E+01    2.267E+01    2.285E+01    2.303E+01    2.321E+01    2.340E+01    2.358E+01    2.376E+01    2.395E+01
     2.413E+01    2.431E+01    2.450E+01    2.468E+01    2.486E+01    2.504E+01    2.522E+01    2.540E+01    2.558E+01    2.576E+01
     2.594E+01    2.611E+01    2.628E+01    2.646E+01    2.663E+01    2.680E+01    2.697E+01    2.713E+01    2.730E+01    2.746E+01
     2.762E+01    2.778E+01    2.794E+01    2.809E+01    2.825E+01    2.840E+01    2.855E+01    2.870E+01    2.884E+01    2.898E+01
     2.912E+01    2.926E+01    2.940E+01    2.953E+01    2.966E+01    2.979E+01    2.992E+01    3.004E+01    3.016E+01    3.028E+01
     3.039E+01    3.050E+01    3.061E+01    3.072E+01    3.082E+01    3.092E+01    3.102E+01    3.112E+01    3.121E+01    3.130E+01
     3.139E+01    3.148E+01    3.156E+01    3.165E+01    3.173E+01    3.181E+01    3.188E+01    3.196E+01    3.203E+01    3.210E+01
     3.217E+01    3.224E+01    3.231E+01    3.238E+01    3.244E+01    3.250E+01    3.257E+01    3.263E+01    3.269E+01    3.275E+01
     3.280E+01    3.286E+01    3.292E+01    3.297E+01    3.303E+01    3.308E+01    3.313E+01    3.318E+01    3.324E+01    3.329E+01
     3.334E+01    3.339E+01    3.344E+01    3.349E+01    3.354E+01    3.358E+01    3.363E+01    3.368E+01    3.373E+01    3.377E+01
     3.382E+01    3.387E+01    3.391E+01    3.396E+01    3.401E+01    3.405E+01    3.410E+01    3.415E+01    3.419E+01    3.424E+01
 Mac      Conc. = 3.09E-04
   1.14975E+01  1.08514E+01  1.06439E+01  1.07831E+01  1.11151E+01  1.10888E+01  1.02934E+01  8.56162E+00  6.22721E+00  3.95767E+00
   2.31980E+00  1.30897E+00  2.08203E+00  3.46613E+00  3.24200E+00 -6.00326E-01 -5.13741E+00 -5.65890E+00 -4.27018E+00 -1.77458E+00
   4.04173E+00  1.08118E+01  1.54981E+01  1.85734E+01  2.07442E+01  2.23278E+01  2.30407E+01  2.45896E+01  2.70331E+01  2.94994E+01
   3.17203E+01  3.40399E+01  3.63780E+01  3.74973E+01  3.72595E+01  3.57338E+01  3.47293E+01  3.60611E+01  3.92441E+01  4.22797E+01
   4.40223E+01  4.45919E+01  4.41836E+01  4.44448E+01  4.60063E+01  4.77734E+01  4.96416E+01  5.08858E+01  5.10674E+01  4.96458E+01
   4.80777E+01  4.67380E+01  4.52122E+01  4.42495E+01  4.30066E+01  4.16391E+01  4.15636E+01  4.24622E+01  4.29323E+01  4.42709E+01
   4.68212E+01  4.90244E+01  5.07231E+01  5.19502E+01  5.15036E+01  5.06676E+01  4.99414E+01  4.90868E+01  4.70538E+01  4.54139E+01
   4.57021E+01  4.73590E+01  4.97294E+01  5.29260E+01  5.60921E+01  5.78412E+01  5.86584E+01  5.82814E+01  5.75112E+01  5.68381E+01
   5.56946E+01  5.44021E+01  5.36184E+01  5.35515E+01  5.36590E+01  5.45069E+01  5.55015E+01  5.68505E+01  5.75028E+01  5.83704E+01
   5.91657E+01  5.95973E+01  6.03655E+01  6.14536E+01  6.17719E+01  6.15569E+01  6.04086E+01  5.75700E+01  5.43562E+01  5.19792E+01
   5.00022E+01  4.79287E+01  4.65156E+01  4.54340E+01  4.34347E+01  3.88808E+01  3.09249E+01  2.20055E+01  1.35371E+01  7.00713E+00
