 
 $NMID
 ID=''
 FMTDAT='(2E13.5)'
 TRAMP=   1.00000E+0
 VOLUME=   1.00000E+0
 $END
   1.42480E+5  -1.10576E+3
   4.02849E+4  -1.23494E+5
  -7.43984E+4  -7.19974E+4
  -8.01199E+4   2.88981E+4
  -1.30796E+4   6.52770E+4
   4.42404E+4   3.60797E+4
   4.71218E+4  -1.43293E+4
   5.69532E+3  -3.92899E+4
  -2.99913E+4  -1.95442E+4
  -2.72027E+4   1.23703E+4
  -1.33728E+3   2.21598E+4
   1.79718E+4   1.04468E+4
   1.53652E+4  -8.31865E+3
  -6.50791E+2  -1.73171E+4
  -8.70204E+3  -7.40169E+3
  -5.40920E+3   7.72038E+3
  -6.10456E+2   9.05468E+3
   4.45265E+3   1.01267E+3
   5.39522E+3  -3.22277E+3
  -7.05969E+2  -2.25223E+3
  -3.78423E+3  -5.79746E+1
  -5.75529E+2   1.70817E+3
   1.03001E+3   2.03066E+3
   2.55279E+2  -1.34343E+2
   8.55721E+2  -1.65775E+3
  -1.86911E+2   7.07001E+2
  -1.87013E+3   2.45210E+3
  -2.22317E+2  -6.41758E+2
   1.90174E+3  -2.08127E+3
   8.06072E+2  -7.86776E+1
  -1.60412E+3   8.41657E+2
  -1.80728E+3  -1.37851E+2
   7.35259E+2  -1.16109E+3
   2.77849E+3  -6.11015E+2
   1.76529E+3   4.87373E+2
  -1.32568E+3   1.31723E+3
  -1.97852E+3   1.74967E+2
  -9.85180E+1  -6.12088E+2
   1.13835E+3   6.52603E+2
   4.13381E+2  -1.77848E+2
   4.26559E+2  -1.99518E+3
   7.12722E+2  -6.26372E+2
  -8.89229E+2   9.71294E+2
  -1.04986E+3   1.20022E+3
   5.29795E+2   6.61548E+2
   2.68066E+2   9.20977E+1
  -1.39847E+3  -1.74974E+3
  -4.89829E+2  -2.85696E+3
   9.30714E+2  -4.82431E+2
   1.72435E+2   1.81147E+3
  -6.88043E+0   7.85528E+2
   8.55286E+2  -4.64738E+2
   6.79641E+2  -6.20321E+2
  -1.29669E+3  -4.26667E+1
  -1.92412E+3   1.06325E+2
  -3.64378E+2   1.91528E+2
   1.08742E+3   3.04923E+2
   8.68046E+2   5.55046E+2
  -2.14209E+2   2.47907E+2
  -1.12866E+3  -2.13284E+1
  -1.21000E+3   1.45675E+2
  -1.06074E+3   5.01725E+2
  -8.53475E+2  -3.06124E+2
   3.80575E+2  -1.58030E+3
   1.28971E+3  -1.22219E+3
   5.61050E+2   1.53295E+2
  -2.64685E+2   7.53106E+2
  -5.62849E+1   1.36715E+3
  -3.24563E+2   9.12035E+2
  -1.35289E+2   3.14512E+1
   2.66430E+2  -4.05862E+2
   3.45791E+2   5.99624E+2
  -8.86326E+2   9.73410E+2
  -1.34845E+3   1.76396E+1
   4.82879E+1  -2.17600E+2
   6.98730E+2   2.98969E+2
   4.35054E+2   8.22800E+1
  -6.10628E+2  -4.16251E+2
  -1.77761E+2  -5.58849E+2
   4.76392E+2  -9.05084E+0
   5.31294E+2   7.04898E+2
   2.39647E+2   5.80298E+2
   2.27472E+2   1.53443E+2
   4.26236E+2   2.68362E+1
   1.13136E+2   3.03219E+2
  -3.84354E+2   5.10048E+2
  -5.82878E+2   3.62347E+2
  -1.94353E+1   1.99963E+2
   4.03146E+2  -5.76481E+1
  -1.00518E+2   2.35644E+1
  -4.50742E+2   1.94286E+2
  -4.90030E+2  -4.39309E+2
   1.36760E+2  -7.23989E+2
   7.43544E+2  -3.52005E+2
   8.07406E+2   3.60623E+2
   9.88977E+1   7.04095E+2
  -3.81120E+2   2.85060E+1
  -1.02855E+2  -4.23423E+2
   3.56933E+2   3.21206E+2
  -2.04670E+2   6.13570E+2
  -9.03102E+2  -3.68845E+2
   3.45194E+1  -1.10194E+3
   4.03580E+2  -2.73557E+2
   4.29333E+2   9.06023E+2
  -1.27137E+2   6.00758E+2
  -3.11082E+2  -6.77006E+1
  -1.41225E+2  -7.70107E+2
   4.10398E+2  -5.11973E+2
   3.77738E+2   4.91344E+2
  -9.13360E+1   1.09101E+3
  -5.68715E+2   3.39334E+2
  -2.66102E+2  -2.26782E+2
   1.92565E+2  -5.12351E+2
  -8.98460E+1  -1.78009E+2
  -3.36310E+2   1.71344E+2
  -2.84212E+2  -9.78701E+1
   8.91820E+2  -5.09373E+2
   8.84688E+2   2.14059E+2
   3.02641E+2   5.48388E+2
  -3.67668E+2   2.82855E+2
  -5.62562E+2  -1.23343E+2
  -2.67522E+2  -9.37547E+1
  -1.68911E+2   3.23263E+1
   6.99211E+1  -2.70299E+2
   3.26127E+2  -1.67414E+2
   3.00801E+2  -1.27278E+2
  -7.94203E+1   7.39736E+1
  -1.18912E+2   3.20101E+2
  -1.73130E+2   3.23683E+1
  -7.45869E+0  -6.57383E+2
   1.82011E+2  -6.06539E+2
   4.92162E+2   1.07462E+2
   3.80569E+1   4.10991E+2
  -3.12239E+2   9.03394E+1
   2.58040E+2  -1.30522E+2
   2.35336E+2   2.68325E+1
  -1.91459E+2   1.48384E+2
  -6.41397E+2  -2.11773E+2
  -1.16982E+2  -5.35462E+2
   3.47267E+2  -7.76549E+1
   3.66367E+2   1.38350E+2
   8.39369E+1   2.78537E+2
  -2.85954E+2  -1.35206E+2
  -1.03429E+2  -6.27158E+2
   1.06181E+1  -3.74194E+2
   3.82490E+2  -1.71630E+2
   8.59411E+1   2.39379E+2
   7.46647E+1  -2.68044E+1
   2.03374E+2  -2.75564E+2
   2.57568E+2  -5.61073E+1
  -8.39240E+1   3.34611E+2
  -3.23019E+2   1.25164E+1
  -5.82963E+2  -1.81392E+2
   7.79230E+1  -5.44796E+2
   2.65320E+2   2.24141E+1
  -3.46177E+2   8.08788E+1
  -2.16146E+2  -3.49225E+2
  -4.83516E+1  -9.18530E+1
   2.59871E+2  -1.31861E+2
   1.60782E+2  -7.86912E+1
   1.46483E+2  -1.69004E+2
   2.53003E+2  -4.76259E+1
   2.04204E+2   4.02525E+2
   8.14605E-1   3.98655E+2
  -2.77079E+2  -8.98419E+1
  -2.36287E+2  -2.72173E+2
   1.72064E+1  -3.36749E+2
   4.56369E+2  -1.18402E+2
  -6.17912E+1  -1.23329E+2
  -1.41872E+2   1.09695E+2
  -1.92306E+2  -3.84635E+1
   1.13833E+1  -7.94463E+1
   3.58675E+2  -7.20532E+1
  -1.10004E+2   1.48582E+2
  -2.27607E+2  -4.03219E+1
  -2.75588E+2  -2.84873E+2
   4.68254E+2  -4.89055E+1
   3.15395E+2   3.72478E+2
   8.61749E+1   3.76319E+2
  -1.75754E+2  -9.45344E+1
   2.35992E+1  -2.64181E+2
   1.59233E+2  -3.34872E+2
   3.72486E+2   7.54843E+1
   2.72067E+1   2.37836E+2
   4.19205E+1   2.34164E+2
   1.80998E+2  -1.09877E+2
   2.63806E+2   9.06710E+1
  -1.22380E+2   4.04644E+2
  -3.70430E+2   5.94303E+1
  -3.11847E+2  -6.06967E+2
   5.61242E+2  -4.53119E+2
   3.06236E+2  -3.71851E+1
   1.86046E+2   2.24624E+1
  -1.82007E+2   1.46886E+2
  -1.58707E+2  -3.35003E+2
   5.24280E+1  -9.27845E+1
  -2.79646E+1   9.13034E+1
   2.88588E+2  -1.43336E+1
   9.67459E+1  -8.05359E+1
   4.47238E+2  -1.55796E+1
   3.59695E+2  -5.34648E+1
  -2.74342E+2   3.80341E+2
  -3.38371E+2   8.52141E+1
  -5.74842E+1  -3.88371E+1
  -1.16485E+1  -1.30191E+2
   3.94779E+2   8.54546E+1
  -1.14069E+2  -4.62273E+1
  -1.64321E+2  -1.74058E+2
  -1.00447E+2  -4.52541E+1
   1.96684E+2   5.12621E+1
   2.61914E+2   2.61631E+2
  -3.74122E+2  -1.72962E+2
  -1.69085E+2  -4.58867E+2
   1.79641E+2  -3.27643E+2
   1.22718E+2   3.01136E+1
   1.02879E+2   3.25196E+2
  -1.78614E+2   4.94594E+1
  -3.24017E+2  -4.83143E+1
  -2.54011E+1  -1.38538E+2
  -5.68472E+0   2.19206E+2
  -3.82663E+2  -9.55202E+1
  -9.15637E+1  -1.39330E+2
   2.62374E+1  -3.39653E+1
   2.70670E+2  -2.24853E+1
   3.49354E+1   2.39330E+2
  -2.67595E+2   4.94235E+1
   4.54245E+1  -3.56834E+2
   4.88437E+1  -3.46540E+2
   2.68859E+2  -1.99684E+1
   3.20394E+1   2.27928E+2
   2.09187E+1   1.55919E+2
  -2.57294E+2  -1.60111E+2
   9.15789E+1  -1.63212E+2
   2.42695E+2   1.46953E+2
  -6.69931E+1   1.05224E+2
  -3.84112E+1   1.12357E+2
   5.10241E+1  -2.34814E+2
   1.15831E+2  -6.32109E+0
  -4.52641E+1   1.34540E+2
  -2.59223E+2   9.52282E+1
   8.64564E+1  -2.32978E+2
   1.91283E+2  -7.37722E+1
   9.95090E+1   1.80619E+2
   1.39844E+2   1.11800E+2
  -2.11872E+2   8.15140E+1
   1.94029E+2  -3.39226E+2
   1.98856E+2   1.33372E+2
   6.33875E+1   3.52462E+2
  -1.99431E+2   2.43810E+1
  -1.30977E+2  -1.24025E+2
   1.21065E+2   7.78667E+1
   5.73057E+1  -6.79189E+1
   1.47714E+2   1.96390E+2
  -3.65779E+1   4.84422E+1
  -2.51947E+2  -1.45782E+2
  -1.87194E+1  -3.42842E+2
   1.08751E+2  -5.91119E+1
   1.73650E+2   2.33215E+2
   1.18640E+2  -7.67520E+1
   7.87611E+1  -4.47175E+1
   4.35870E+1   8.12846E+1
  -9.15786E+0   5.25656E+1
  -1.72718E+2   1.32644E+1
  -1.19498E+2  -2.83678E+2
   7.32395E+1  -2.64189E+2
   5.99855E+1  -6.06381E+1
   4.20445E+1   2.21480E+1
  -1.22750E+2   1.30598E+2
  -7.72511E+1  -5.14483E+1
   1.07552E+2   2.13209E+1
   6.63141E+0   1.20547E+2
  -9.42186E+1   7.32523E+1
  -5.42098E+0   2.64000E+1
   1.89353E+2   8.01871E+1
   9.11848E+1  -3.49923E+2
   7.75339E+1   1.84764E+2
  -9.96348E+1   2.17507E+2
  -7.97673E+1   2.04881E+2
  -7.80444E+1  -1.45049E+2
   3.15156E+0  -2.67816E+1
  -6.71665E+1   1.02366E+2
   2.00019E+2   1.66597E+2
   8.33604E+1   5.47308E+1
   6.70724E+1   1.76718E+2
   2.11964E+2   2.21916E+2
  -2.09422E+2   9.75862E+1
  -2.58410E+2  -3.40150E+1
  -7.13025E+1  -2.58996E+2
  -5.24404E+1   4.40998E+1
  -9.15252E+1   1.20325E+2
  -2.95271E+1   3.23186E+2
  -2.19419E+1   9.98619E+1
   1.24087E+2   1.24919E+0
   1.02322E+2   1.06213E+2
  -4.70921E+1   1.03511E+2
   6.84330E+0   8.71791E+1
   5.57270E+1   1.76386E+1
  -4.92044E+1   1.12970E+2
   8.05043E+1   2.85498E+2
  -5.95508E+1  -3.04831E+1
  -3.14947E+1  -2.26761E+2
   2.76004E+0  -2.29661E+2
   1.11154E+2  -2.23651E+2
  -1.14659E+2   3.66577E+2
   7.39393E+1   2.23331E+1
   2.31949E+1   1.90419E+1
  -6.37537E+1  -1.74218E+2
   9.90143E+1  -9.67909E+1
  -1.05843E+2   1.43329E+2
  -1.59640E+2  -8.72539E+1
  -6.54623E+1  -1.79336E+2
   1.76706E+2  -1.73501E+2
   1.43063E+2   1.44271E+2
  -2.78148E+2   2.91105E+2
  -7.00125E+1  -6.83441E+1
  -1.61918E+2   6.30077E+0
   9.72792E+1   1.55808E+1
   8.74972E+1   3.55554E+1
  -1.88988E+2  -7.41429E+1
   4.61316E+1   9.88105E+1
  -4.12829E+1  -7.44736E+1
   1.33664E+2   2.96458E+2
   5.11946E+1  -1.39772E+1
  -5.25534E+1  -2.00391E+2
  -5.91840E+1  -1.18493E+2
   5.54026E+0  -1.40111E+2
  -4.46261E+1   1.77692E+2
   8.91923E+0   9.21657E+1
  -1.91976E+2  -2.28400E+0
   2.45821E+1   8.64854E+1
   1.73009E+1  -1.26607E+2
   2.10324E+1  -1.38564E+2
  -3.01251E+2  -1.18880E+2
   1.07544E+2  -2.17267E+2
   6.98013E+1   8.55642E+1
  -4.93878E+1   3.17975E+1
  -5.73458E+1   2.05029E+2
  -1.87168E+2   5.47819E+1
   7.61798E+1  -1.50554E+2
   1.36861E+2   1.83611E+2
  -5.54452E+1   1.64080E+2
  -2.02935E+2   1.47675E+2
  -9.85644E+1   3.87916E+1
  -6.21003E+1  -1.27366E+2
   1.21843E+2  -5.55936E+1
  -9.78023E+1   7.38344E+1
   6.63793E+1   9.26563E+1
  -6.10384E+1  -1.23488E+2
  -8.97989E+1  -1.32028E+2
   3.06828E+1   8.08094E+1
  -2.43008E+2   9.60652E+1
   3.86566E+1   8.30781E+1
  -4.42987E+1  -4.87833E+1
   5.26251E+1   2.23284E+1
  -1.33745E+2   2.07490E+2
  -1.20418E+2   9.89257E+1
  -1.25771E+2  -1.04901E+2
  -1.12585E+2  -4.48772E+0
  -2.76426E+2  -2.29192E+1
  -1.19019E+2   8.30499E+1
   1.93869E+1  -1.54926E+2
   1.38168E+2  -1.01102E+2
   5.21462E+1   5.08155E+1
   1.65850E+2  -4.50329E+1
  -3.66976E+0   4.94229E+1
  -4.30629E+1  -5.38695E+1
  -4.63839E+1   4.47716E+1
