 LCModel (Version 6.3-1N) Copyright: S.W. Provencher.          Ref.: Magn. Reson. Med. 30:672-679 (1993).                
 Slice_N1@11_17  28-Feb-2025 11:40:30
 27 lines in following concentration table = NCONC+1
    Conc.  %SD /Cr+PCr  Metabolite                                         
 7.41E-05  33% 5.0E-05 Mac                                                 
    6.035  64%   4.071 Cr                                                  
    5.825  66%   3.929 PCr                                                 
   11.857  16%   7.998 Ins                                                 
   17.302   9%  11.671 NAA                                                 
    6.321  31%   4.264 Tau                                                 
    0.000 999%   0.000 PCho                                                
    4.291  11%   2.895 GPC                                                 
   10.902  20%   7.354 Glu                                                 
    4.778  37%   3.223 Gln                                                 
   14.882  11%  10.039 Ala                                                 
    7.694  35%   5.190 Asc                                                 
    3.273  76%   2.208 Asp                                                 
    3.920  32%   2.644 GABA                                                
    2.572  68%   1.735 Glc                                                 
    3.303  32%   2.228 GSH                                                 
    0.000 999%   0.000 Lac                                                 
    1.551  87%   1.046 NAAG                                                
    0.000 999%   0.000 PE                                                  
    4.291  11%   2.895 GPC+PCho                                            
   18.853   9%  12.718 NAA+NAAG                                            
   15.679  18%  10.577 Glu+Gln                                             
   11.859  12%   8.000 Cr+PCr                                              
   18.853   9%  12.718 NAA+NAAG                                            
   11.859  12%   8.000 Cr+PCr                                              
   15.679  18%  10.577 Glu+Gln                                             
   6 lines in following misc. output table
  FWHM = 0.033 ppm    S/N =   2                                            
  Data shift = 0.024 ppm                                                   
  Ph:-102 deg       0.0 deg/ppm                                            
  alphaB,S = 1.1E-01,   2.4E+01                                            
   19 spline knots.   Ns = 5(1)                                            
  ( 5) 5 infls.   ( 5) 3 extrs.                                            
  480 points on ppm-axis = NY
      4.100000     4.091866     4.083733     4.075600     4.067466     4.059333     4.051199     4.043066     4.034933     4.026799
      4.018666     4.010532     4.002399     3.994265     3.986132     3.977998     3.969864     3.961731     3.953597     3.945463
      3.937330     3.929196     3.921062     3.912929     3.904795     3.896662     3.888528     3.880394     3.872261     3.864127
      3.855993     3.847860     3.839726     3.831592     3.823459     3.815325     3.807191     3.799058     3.790924     3.782790
      3.774657     3.766523     3.758389     3.750256     3.742122     3.733989     3.725855     3.717721     3.709588     3.701454
      3.693320     3.685187     3.677053     3.668919     3.660786     3.652652     3.644518     3.636385     3.628251     3.620117
      3.611984     3.603850     3.595716     3.587583     3.579449     3.571316     3.563182     3.555048     3.546915     3.538781
      3.530647     3.522514     3.514380     3.506246     3.498113     3.489979     3.481845     3.473712     3.465578     3.457444
      3.449311     3.441177     3.433043     3.424910     3.416776     3.408643     3.400509     3.392375     3.384242     3.376108
      3.367974     3.359841     3.351707     3.343573     3.335440     3.327306     3.319172     3.311039     3.302905     3.294771
      3.286638     3.278504     3.270370     3.262237     3.254103     3.245970     3.237836     3.229702     3.221569     3.213435
      3.205301     3.197168     3.189034     3.180900     3.172767     3.164633     3.156499     3.148366     3.140232     3.132098
      3.123965     3.115831     3.107697     3.099564     3.091430     3.083297     3.075163     3.067029     3.058896     3.050762
      3.042628     3.034495     3.026361     3.018227     3.010094     3.001960     2.993826     2.985693     2.977559     2.969425
      2.961292     2.953158     2.945024     2.936891     2.928757     2.920624     2.912490     2.904356     2.896223     2.888089
      2.879955     2.871822     2.863688     2.855554     2.847421     2.839287     2.831153     2.823020     2.814886     2.806752
      2.798619     2.790485     2.782351     2.774218     2.766084     2.757951     2.749817     2.741683     2.733550     2.725416
      2.717282     2.709149     2.701015     2.692881     2.684748     2.676614     2.668480     2.660347     2.652213     2.644079
      2.635946     2.627812     2.619678     2.611545     2.603411     2.595278     2.587144     2.579010     2.570877     2.562743
      2.554609     2.546476     2.538342     2.530208     2.522075     2.513941     2.505807     2.497674     2.489540     2.481406
      2.473273     2.465139     2.457006     2.448872     2.440738     2.432605     2.424471     2.416337     2.408204     2.400070
      2.391936     2.383803     2.375669     2.367535     2.359402     2.351268     2.343134     2.335001     2.326867     2.318733
      2.310600     2.302466     2.294333     2.286199     2.278065     2.269932     2.261798     2.253664     2.245531     2.237397
      2.229263     2.221130     2.212996     2.204862     2.196729     2.188595     2.180461     2.172328     2.164194     2.156060
      2.147927     2.139793     2.131660     2.123526     2.115392     2.107259     2.099125     2.090991     2.082858     2.074724
      2.066590     2.058457     2.050323     2.042189     2.034056     2.025922     2.017788     2.009655     2.001521     1.993387
      1.985254     1.977120     1.968987     1.960853     1.952719     1.944586     1.936452     1.928318     1.920185     1.912051
      1.903917     1.895784     1.887650     1.879516     1.871383     1.863249     1.855115     1.846982     1.838848     1.830714
      1.822581     1.814447     1.806314     1.798180     1.790046     1.781913     1.773779     1.765645     1.757512     1.749378
      1.741244     1.733111     1.724977     1.716843     1.708710     1.700576     1.692442     1.684309     1.676175     1.668041
      1.659908     1.651774     1.643641     1.635507     1.627373     1.619240     1.611106     1.602972     1.594839     1.586705
      1.578571     1.570438     1.562304     1.554170     1.546037     1.537903     1.529769     1.521636     1.513502     1.505368
      1.497235     1.489101     1.480968     1.472834     1.464700     1.456567     1.448433     1.440299     1.432166     1.424032
      1.415898     1.407765     1.399631     1.391497     1.383364     1.375230     1.367096     1.358963     1.350829     1.342695
      1.334562     1.326428     1.318295     1.310161     1.302027     1.293894     1.285760     1.277626     1.269493     1.261359
      1.253225     1.245092     1.236958     1.228824     1.220691     1.212557     1.204423     1.196290     1.188156     1.180022
      1.171889     1.163755     1.155622     1.147488     1.139354     1.131221     1.123087     1.114953     1.106820     1.098686
      1.090552     1.082419     1.074285     1.066151     1.058018     1.049884     1.041750     1.033617     1.025483     1.017349
      1.009216     1.001082     0.992949     0.984815     0.976681     0.968548     0.960414     0.952280     0.944147     0.936013
      0.927879     0.919746     0.911612     0.903478     0.895345     0.887211     0.879077     0.870944     0.862810     0.854676
      0.846543     0.838409     0.830276     0.822142     0.814008     0.805875     0.797741     0.789607     0.781474     0.773340
      0.765206     0.757073     0.748939     0.740805     0.732672     0.724538     0.716404     0.708271     0.700137     0.692003
      0.683870     0.675736     0.667603     0.659469     0.651335     0.643202     0.635068     0.626934     0.618801     0.610667
      0.602533     0.594400     0.586266     0.578132     0.569999     0.561865     0.553731     0.545598     0.537464     0.529330
      0.521197     0.513063     0.504930     0.496796     0.488662     0.480529     0.472395     0.464261     0.456128     0.447994
      0.439861     0.431727     0.423593     0.415460     0.407326     0.399192     0.391059     0.382925     0.374792     0.366658
      0.358524     0.350391     0.342257     0.334124     0.325990     0.317856     0.309723     0.301589     0.293455     0.285322
      0.277188     0.269055     0.260921     0.252787     0.244654     0.236520     0.228386     0.220253     0.212119     0.203986
 NY phased data points follow
   3.65597E+01  5.22655E+01  4.17917E+01  2.66450E+01  3.46144E+01  3.16715E+01  4.92715E+01  4.08351E+01  4.29810E+01  4.24434E+01
   4.86229E+01  3.92195E+01  1.11039E+01  2.59324E+01  1.64099E+01  2.12787E+01  1.71470E+01  2.50695E+01  2.21918E+01 -2.93219E+01
  -4.42475E+01 -5.02690E+01 -2.56144E+01 -7.33795E+00 -6.70409E+00  1.70361E+01  3.07633E+01  3.58393E+01  4.71178E+01  5.63911E+01
   4.16996E+01  4.54181E+01  6.57543E+01  5.10843E+01  5.73384E+01  7.65291E+01  5.52057E+01  5.86362E+01  5.16479E+01  2.20585E+01
   3.50694E+00 -2.40684E+01 -2.88088E+01 -2.67534E+01 -3.09436E+01 -3.38092E+01  5.27071E+00  4.03413E+01  4.31626E+01  5.97119E+01
   5.48127E+01  5.51812E+01  5.54162E+01  6.27460E+01  5.85811E+01  2.56325E+01  3.29392E+01  3.50672E+01  1.57007E+00 -8.76146E+00
   1.00160E+01  1.19702E+01  9.71169E+00  2.08737E+01  3.71012E+01  6.15259E+01  7.54285E+01  6.92239E+01  4.77882E+01  1.88169E+01
   1.66933E+00 -1.69541E+00 -7.19403E+00  7.87801E+00  2.42415E+01  2.59870E+01  4.81582E+01  6.20715E+01  7.83750E+01  8.57313E+01
   6.66857E+01  8.50527E+01  7.69544E+01  4.84778E+01  4.15541E+01  2.49700E+01  1.93478E+01  1.92271E+00  3.52218E+01  5.66245E+01
   3.88715E+01  6.48771E+01  7.65606E+01  7.69152E+01  6.88542E+01  1.02234E+02  1.08079E+02  1.03025E+02  1.38002E+02  1.23525E+02
   1.32300E+02  1.30714E+02  1.25295E+02  1.17189E+02  1.08278E+02  1.09695E+02  8.33143E+01  1.08684E+02  1.19455E+02  5.95818E+01
  -3.68706E+01 -7.99472E+01 -6.90367E+01 -6.54088E+01 -3.86152E+01 -3.14728E+01 -2.86317E+01 -8.55614E+00  3.60267E+00  1.27095E+01
   1.34237E+01  4.55779E+00  2.34152E+01  2.99462E+01  9.32973E+00  2.86438E+01  4.48391E+01  5.63440E+01  8.26671E+01  1.17357E+02
   1.84861E+02  2.37385E+02  1.86727E+02  8.89606E+01  3.56779E+01  2.16934E+01  2.13459E+01  2.64020E+00  1.06826E+01  1.25613E+01
   3.53298E+00  1.84806E+01 -4.84540E+00 -8.59012E+00  1.03175E+00 -1.37337E+01 -1.29425E+01 -1.95512E+01 -1.74025E+01 -5.95160E+00
  -2.06909E+01 -8.23665E+00  5.28383E+00 -1.32693E+01 -7.97766E+00 -7.81761E+00 -7.90798E+00 -3.79238E+00 -2.27634E+00 -8.58251E-01
  -1.33630E+01  4.34358E+00  1.49979E+01 -6.69760E+00 -1.03292E+01 -3.30123E+00  2.32434E+00  5.79832E-01 -2.08302E+01 -1.31473E+01
  -4.65932E+00 -1.88916E+01  2.31019E+01  4.25350E+01  2.05120E+01  2.38867E+01  1.94521E+01  2.94212E+01  4.14185E+01  3.23647E+01
   3.40784E+01  3.02161E+01  1.16471E+01 -4.75810E-01  3.53988E-01 -5.12097E+00 -1.90258E+01 -1.59272E+01 -2.53180E+01 -2.01098E+01
   6.65665E+00 -2.68440E+00 -3.92070E+00 -1.17104E+00  4.75382E+00  1.33210E+01  6.49045E+00  8.72648E+00  9.13056E+00  3.38043E+00
  -5.12170E+00  1.68273E+01  3.81834E+01  5.17894E+01  5.05213E+01  3.25293E+01  4.29567E+01  1.72225E+01  1.12064E+00 -2.91316E+00
  -2.23422E+01 -2.86296E+01 -4.85396E+01 -3.37244E+01 -1.29965E+01 -9.96858E+00  8.60387E+00  3.64531E+01  4.77709E+01  4.18208E+01
   2.81089E+01  2.69957E+00  3.32132E+00 -3.52497E+00 -1.59316E+01 -1.54930E+00  3.50267E+00  8.72815E+00  1.68395E+01  1.85571E+01
   1.67611E+01  1.47586E+01  2.13730E+01  2.13055E+01  7.04518E+00 -7.14351E+00 -1.43126E+01 -2.38203E+01 -3.73169E+01 -4.68740E+01
  -4.90699E+01 -4.38004E+01 -4.52901E+01 -2.06251E+01  1.96001E+00 -7.14542E+00  3.62282E+00  4.22375E+00  1.86515E+00 -9.45225E+00
  -2.53043E+01 -4.03352E+01 -6.20107E+01 -3.66707E+01 -3.35880E+01 -9.90043E+01 -1.87867E+02 -1.69665E+02 -4.19906E+01  4.83972E+01
   9.12698E+01  1.08460E+02  1.25013E+02  1.13860E+02  1.01382E+02  1.02201E+02  8.50675E+01  9.42525E+01  8.93999E+01  7.53083E+01
   8.02181E+01  7.50301E+01  7.59007E+01  8.05958E+01  7.75578E+01  7.95088E+01  8.35794E+01  9.98605E+01  1.07200E+02  9.79705E+01
   1.06299E+02  1.17814E+02  1.36431E+02  1.23007E+02  9.73215E+01  1.20756E+02  1.24327E+02  1.14413E+02  1.27125E+02  1.30803E+02
   1.15769E+02  1.07853E+02  1.28490E+02  1.25151E+02  1.06356E+02  1.13387E+02  1.08482E+02  9.44679E+01  7.23265E+01  7.33096E+01
   7.69031E+01  4.85701E+01  5.80895E+01  6.50681E+01  5.97467E+01  5.03840E+01  4.07429E+01  5.69179E+01  4.69589E+01  3.72964E+01
   3.70657E+01  1.84165E+01 -7.76737E+00 -1.84730E+01 -2.97987E+01 -6.48918E+01 -8.60221E+01 -9.69609E+01 -9.72566E+01 -9.18583E+01
  -1.08007E+02 -1.14026E+02 -1.09512E+02 -1.11198E+02 -1.02937E+02 -1.08816E+02 -1.07350E+02 -1.03562E+02 -1.16809E+02 -9.12897E+01
  -6.37711E+01 -5.50508E+01 -5.80643E+01 -6.97473E+01 -5.74516E+01 -3.46838E+01 -3.09596E+01 -2.62183E+01  1.92136E+01  3.50602E+01
   2.44780E+01  2.19534E+01  1.57506E+00  1.71528E+00 -6.83633E+00 -1.66166E+01 -1.24709E+01 -5.20798E+00  2.03772E+01  2.88564E+01
   3.51336E+01  2.15457E+01  2.49599E+01  4.26342E+01  1.76775E+01  3.32479E+01  3.05876E+01  1.47107E+01  2.26333E+01  2.89867E+00
   2.96548E-01 -2.03024E-01 -8.56190E+00 -2.49407E+01 -1.44740E+01 -3.39772E+00 -2.10774E+01 -1.61577E+01  6.47530E-02  1.20470E+01
  -2.25611E+00  5.86793E+00  1.22500E+01  1.14436E+01  2.59992E+01  2.57770E+01  3.81542E+01  3.47184E+01  4.41405E+01  4.81264E+01
   4.69383E+01  7.16882E+01  8.47859E+01  9.18817E+01  9.44365E+01  1.01430E+02  1.04182E+02  1.22643E+02  1.39462E+02  1.45366E+02
   1.37847E+02  1.28087E+02  1.50198E+02  1.39955E+02  1.17086E+02  1.18136E+02  1.26005E+02  1.14839E+02  1.03927E+02  1.10185E+02
   1.02562E+02  8.21789E+01  6.26823E+01  7.17940E+01  5.97721E+01  5.26148E+01  5.25086E+01  3.05644E+01  4.02305E+01  2.77624E+01
   2.70430E+01  4.12990E+01  1.62350E+01  1.98898E+01  4.11657E+01  2.35574E+01  1.92606E+01  3.74599E+01  2.25662E+01  2.51062E+01
   3.57679E+01  2.42738E+01  2.92579E+01  2.12847E+01  3.92846E+00  1.32879E+01  2.67115E+01  2.95881E+01  2.72787E+01  2.29460E+01
   2.68395E+01  1.89992E+01  1.40664E+01  2.59096E+01  1.96715E+01  2.19076E+01  2.89844E+01  5.08461E+00  2.43371E+00  1.32627E+01
  -1.88974E+00  9.43063E+00  2.89756E+01  1.88941E+01  9.12051E+00  2.26138E+01  2.56590E+01  1.04404E+01  1.71598E+01  1.34380E+01
   1.21114E+01  2.16764E+01  1.46507E+01  6.12684E-01  8.99283E+00  2.59135E+01  5.53100E+00  1.38628E+00  1.40174E+01  2.71654E+01
   3.04897E+01  1.86446E+01  2.02189E+01  1.69520E+01  1.44588E+01  6.09049E+00  4.74373E+00  6.84711E+00  1.20976E+01  2.25244E+01
   2.02899E+01  1.63784E+01  1.36786E+01  1.49782E+01  1.25778E+01  2.44676E+01  1.83809E+01  1.70357E+01  2.94541E+01  6.31842E+00
 NY points of the fit to the data follow
   3.19409E+01  2.77995E+01  2.12694E+01  1.26808E+01  9.01003E+00  1.59430E+01  2.93039E+01  3.92732E+01  4.18670E+01  4.00810E+01
   3.86652E+01  3.75752E+01  3.58512E+01  3.49879E+01  3.44051E+01  3.17446E+01  2.58561E+01  2.04774E+01  9.58305E+00 -6.93417E+00
  -2.52671E+01 -3.74774E+01 -3.46888E+01 -1.65728E+01  8.45882E+00  3.06337E+01  4.76805E+01  6.19789E+01  7.18815E+01  7.86256E+01
   7.54530E+01  6.93150E+01  6.10766E+01  5.12233E+01  3.99561E+01  2.93916E+01  2.04252E+01  1.61195E+01  9.95140E+00 -2.85484E+00
  -1.75522E+01 -2.40650E+01 -2.25537E+01 -1.75677E+01 -1.31661E+01 -3.82086E+00  1.26971E+01  3.27085E+01  4.65593E+01  5.66950E+01
   6.34360E+01  6.63495E+01  6.39491E+01  5.46573E+01  3.89068E+01  2.85049E+01  2.68494E+01  2.29403E+01  1.36955E+01  6.95841E+00
   7.70317E+00  1.34044E+01  2.13823E+01  3.10768E+01  4.30998E+01  5.70563E+01  6.64340E+01  6.53175E+01  5.19095E+01  3.28201E+01
   2.06789E+01  1.65180E+01  1.47792E+01  1.62683E+01  2.50310E+01  4.04643E+01  5.42091E+01  6.19554E+01  6.91660E+01  7.42086E+01
   7.57604E+01  7.30301E+01  6.68289E+01  5.79837E+01  4.86265E+01  4.22958E+01  4.09921E+01  4.45276E+01  5.11966E+01  5.86257E+01
   6.71631E+01  7.47141E+01  8.28431E+01  8.99472E+01  9.60134E+01  1.02008E+02  1.09313E+02  1.14916E+02  1.17563E+02  1.19371E+02
   1.20781E+02  1.19325E+02  1.15893E+02  1.11522E+02  1.06229E+02  9.01551E+01  8.47502E+01  9.45872E+01  8.82042E+01  3.84046E+01
  -3.11810E+01 -7.42255E+01 -7.91236E+01 -7.03809E+01 -6.57232E+01 -5.99351E+01 -3.71754E+01 -1.80149E+01 -3.79469E+00  7.65829E+00
   1.75071E+01  2.65288E+01  3.52404E+01  4.37301E+01  5.20939E+01  6.12971E+01  7.37485E+01  8.91952E+01  9.68104E+01  1.15569E+02
   1.51200E+02  1.71068E+02  1.44773E+02  8.59252E+01  3.49281E+01  8.62401E+00 -6.29255E+00 -2.42360E+01 -3.89683E+01 -3.46753E+01
  -2.97860E+01 -2.69588E+01 -2.46474E+01 -2.34076E+01 -2.24887E+01 -2.20493E+01 -2.13886E+01 -2.04531E+01 -1.91881E+01 -1.78566E+01
  -1.67268E+01 -1.50200E+01 -1.32199E+01 -1.12301E+01 -8.82640E+00 -6.24884E+00 -4.27073E+00 -3.59701E+00 -3.51352E+00 -2.30127E+00
   2.50682E-01  2.21471E+00  1.84719E+00 -2.13265E-01 -1.95362E+00 -2.43171E+00 -2.08149E+00 -1.15285E+00 -3.17394E-01  1.53344E+00
   7.26237E+00  1.79144E+01  3.03091E+01  3.70223E+01  3.60857E+01  3.52571E+01  4.14112E+01  4.97080E+01  4.98475E+01  4.05871E+01
   2.79448E+01  1.76471E+01  9.68447E+00  1.27808E+00 -5.81533E+00 -1.03562E+01 -1.28356E+01 -1.44710E+01 -1.55411E+01 -1.51339E+01
  -1.25547E+01 -1.10525E+01 -9.52506E+00 -2.43397E+00  7.99945E+00  1.64752E+01  2.06777E+01  2.42591E+01  3.09782E+01  3.60481E+01
   3.56121E+01  3.38839E+01  3.73054E+01  4.14627E+01  4.07938E+01  3.69549E+01  3.09243E+01  2.43767E+01  1.62542E+01  6.78660E+00
  -2.45075E+00 -8.85404E+00 -1.28839E+01 -1.37474E+01 -7.95359E+00  3.66563E+00  1.85260E+01  3.26045E+01  4.27733E+01  4.81465E+01
   4.77237E+01  4.51765E+01  4.13420E+01  4.00782E+01  3.97233E+01  3.76289E+01  3.47467E+01  2.97506E+01  2.32276E+01  1.55277E+01
   6.60974E+00 -1.39728E+00 -9.59481E+00 -1.71293E+01 -2.35805E+01 -2.93775E+01 -3.51944E+01 -3.95433E+01 -4.25130E+01 -4.34881E+01
  -4.16930E+01 -3.77363E+01 -3.16939E+01 -2.42793E+01 -1.71972E+01 -1.14868E+01 -7.97258E+00 -7.95775E+00 -1.06085E+01 -1.49269E+01
  -2.42800E+01 -3.99380E+01 -5.90381E+01 -5.99390E+01 -7.07557E+01 -1.14413E+02 -1.54533E+02 -1.33713E+02 -5.39071E+01  2.57980E+01
   6.85832E+01  8.68688E+01  1.06783E+02  1.27354E+02  1.21051E+02  1.09852E+02  9.93687E+01  8.94565E+01  8.07639E+01  7.30073E+01
   6.68549E+01  6.26218E+01  6.05872E+01  6.07352E+01  6.24321E+01  6.51575E+01  6.76037E+01  6.95893E+01  7.09397E+01  7.10721E+01
   7.08429E+01  6.96855E+01  6.82710E+01  6.66845E+01  6.49508E+01  6.31469E+01  6.13416E+01  5.95833E+01  5.78671E+01  5.62441E+01
   5.48069E+01  5.36669E+01  5.28945E+01  5.24413E+01  5.22411E+01  5.22589E+01  5.24665E+01  5.28363E+01  5.33278E+01  5.39085E+01
   5.45546E+01  5.52549E+01  5.60516E+01  5.69816E+01  5.80896E+01  5.93650E+01  6.07835E+01  6.23763E+01  6.42507E+01  6.64698E+01
   6.90900E+01  7.22478E+01  7.60635E+01  7.96339E+01  7.84883E+01  8.11073E+01  8.11614E+01  6.75679E+01  3.61961E+01 -8.44252E+00
  -5.49820E+01 -9.08960E+01 -1.08009E+02 -1.07961E+02 -9.77060E+01 -8.19951E+01 -7.03112E+01 -5.56206E+01 -4.28655E+01 -3.47464E+01
  -2.87875E+01 -2.39010E+01 -1.96612E+01 -1.59212E+01 -1.26465E+01 -9.77370E+00 -7.18125E+00 -4.76839E+00 -2.47097E+00 -2.37685E-01
   1.89405E+00  3.83742E+00  5.52917E+00  6.97533E+00  8.19782E+00  9.19389E+00  9.91956E+00  1.03895E+01  1.06176E+01  1.06397E+01
   1.05593E+01  1.05230E+01  1.06766E+01  1.10683E+01  1.17118E+01  1.26214E+01  1.37814E+01  1.51484E+01  1.66436E+01  1.82212E+01
   1.98307E+01  2.14341E+01  2.30106E+01  2.45567E+01  2.60901E+01  2.76074E+01  2.91251E+01  3.06559E+01  3.21874E+01  3.37563E+01
   3.54240E+01  3.71793E+01  3.90173E+01  4.09795E+01  4.30874E+01  4.53023E+01  4.75942E+01  4.99496E+01  5.23611E+01  5.47422E+01
   5.69247E+01  5.87501E+01  6.00677E+01  6.06541E+01  6.03515E+01  5.92725E+01  5.77076E+01  5.59095E+01  5.40491E+01  5.22662E+01
   5.06119E+01  4.89995E+01  4.73390E+01  4.55708E+01  4.37077E+01  4.18258E+01  4.00192E+01  3.84114E+01  3.70462E+01  3.59345E+01
   3.50551E+01  3.44227E+01  3.40018E+01  3.36861E+01  3.34298E+01  3.32036E+01  3.30279E+01  3.29083E+01  3.28212E+01  3.27344E+01
   3.26558E+01  3.26281E+01  3.26000E+01  3.25136E+01  3.24002E+01  3.23254E+01  3.22864E+01  3.22004E+01  3.20604E+01  3.19208E+01
   3.18190E+01  3.16848E+01  3.14900E+01  3.13040E+01  3.11535E+01  3.10096E+01  3.08288E+01  3.06075E+01  3.03556E+01  3.01049E+01
   2.98562E+01  2.96070E+01  2.93678E+01  2.91351E+01  2.89031E+01  2.86579E+01  2.84015E+01  2.81411E+01  2.78669E+01  2.75547E+01
   2.72010E+01  2.68642E+01  2.65482E+01  2.62466E+01  2.59498E+01  2.56510E+01  2.53344E+01  2.50140E+01  2.47028E+01  2.44154E+01
   2.41422E+01  2.38660E+01  2.35776E+01  2.33006E+01  2.30237E+01  2.27435E+01  2.24606E+01  2.21618E+01  2.18530E+01  2.15542E+01
   2.12663E+01  2.09962E+01  2.07606E+01  2.05679E+01  2.03887E+01  2.01952E+01  1.99537E+01  1.96928E+01  1.94667E+01  1.92659E+01
   1.90738E+01  1.89002E+01  1.87673E+01  1.86538E+01  1.85687E+01  1.85110E+01  1.85092E+01  1.85944E+01  1.87765E+01  1.90592E+01
 NY background values follow
     5.708E+01    5.684E+01    5.660E+01    5.636E+01    5.612E+01    5.588E+01    5.564E+01    5.540E+01    5.516E+01    5.492E+01
     5.469E+01    5.445E+01    5.422E+01    5.398E+01    5.375E+01    5.352E+01    5.329E+01    5.306E+01    5.283E+01    5.261E+01
     5.238E+01    5.216E+01    5.194E+01    5.171E+01    5.150E+01    5.128E+01    5.106E+01    5.085E+01    5.064E+01    5.043E+01
     5.022E+01    5.001E+01    4.981E+01    4.960E+01    4.940E+01    4.920E+01    4.901E+01    4.881E+01    4.862E+01    4.843E+01
     4.824E+01    4.806E+01    4.788E+01    4.770E+01    4.752E+01    4.734E+01    4.717E+01    4.700E+01    4.683E+01    4.666E+01
     4.650E+01    4.634E+01    4.618E+01    4.603E+01    4.588E+01    4.573E+01    4.558E+01    4.544E+01    4.530E+01    4.516E+01
     4.502E+01    4.489E+01    4.476E+01    4.463E+01    4.451E+01    4.439E+01    4.427E+01    4.416E+01    4.405E+01    4.394E+01
     4.383E+01    4.372E+01    4.362E+01    4.352E+01    4.342E+01    4.333E+01    4.323E+01    4.314E+01    4.305E+01    4.297E+01
     4.288E+01    4.280E+01    4.272E+01    4.264E+01    4.257E+01    4.249E+01    4.242E+01    4.235E+01    4.228E+01    4.221E+01
     4.214E+01    4.208E+01    4.201E+01    4.195E+01    4.189E+01    4.183E+01    4.177E+01    4.171E+01    4.165E+01    4.158E+01
     4.152E+01    4.146E+01    4.140E+01    4.133E+01    4.127E+01    4.120E+01    4.113E+01    4.106E+01    4.098E+01    4.090E+01
     4.082E+01    4.074E+01    4.065E+01    4.056E+01    4.047E+01    4.037E+01    4.027E+01    4.016E+01    4.005E+01    3.993E+01
     3.981E+01    3.969E+01    3.955E+01    3.942E+01    3.927E+01    3.912E+01    3.897E+01    3.881E+01    3.865E+01    3.848E+01
     3.830E+01    3.812E+01    3.794E+01    3.775E+01    3.756E+01    3.736E+01    3.715E+01    3.694E+01    3.673E+01    3.651E+01
     3.628E+01    3.605E+01    3.582E+01    3.558E+01    3.534E+01    3.509E+01    3.484E+01    3.458E+01    3.432E+01    3.405E+01
     3.378E+01    3.350E+01    3.322E+01    3.293E+01    3.265E+01    3.235E+01    3.206E+01    3.176E+01    3.146E+01    3.116E+01
     3.085E+01    3.055E+01    3.024E+01    2.993E+01    2.962E+01    2.931E+01    2.900E+01    2.869E+01    2.839E+01    2.808E+01
     2.777E+01    2.746E+01    2.716E+01    2.686E+01    2.656E+01    2.626E+01    2.596E+01    2.567E+01    2.538E+01    2.510E+01
     2.481E+01    2.454E+01    2.426E+01    2.400E+01    2.373E+01    2.347E+01    2.322E+01    2.297E+01    2.272E+01    2.248E+01
     2.224E+01    2.201E+01    2.179E+01    2.157E+01    2.135E+01    2.114E+01    2.094E+01    2.074E+01    2.054E+01    2.035E+01
     2.017E+01    2.000E+01    1.983E+01    1.966E+01    1.950E+01    1.935E+01    1.920E+01    1.906E+01    1.893E+01    1.881E+01
     1.869E+01    1.857E+01    1.846E+01    1.836E+01    1.827E+01    1.818E+01    1.809E+01    1.801E+01    1.794E+01    1.787E+01
     1.780E+01    1.774E+01    1.768E+01    1.762E+01    1.757E+01    1.752E+01    1.747E+01    1.742E+01    1.738E+01    1.734E+01
     1.729E+01    1.725E+01    1.722E+01    1.718E+01    1.714E+01    1.710E+01    1.706E+01    1.702E+01    1.698E+01    1.694E+01
     1.690E+01    1.686E+01    1.681E+01    1.676E+01    1.671E+01    1.666E+01    1.660E+01    1.654E+01    1.648E+01    1.641E+01
     1.633E+01    1.625E+01    1.617E+01    1.608E+01    1.598E+01    1.587E+01    1.576E+01    1.564E+01    1.552E+01    1.538E+01
     1.524E+01    1.509E+01    1.493E+01    1.476E+01    1.458E+01    1.439E+01    1.419E+01    1.398E+01    1.375E+01    1.352E+01
     1.327E+01    1.301E+01    1.274E+01    1.246E+01    1.217E+01    1.187E+01    1.156E+01    1.125E+01    1.092E+01    1.059E+01
     1.025E+01    9.901E+00    9.548E+00    9.191E+00    8.829E+00    8.464E+00    8.094E+00    7.722E+00    7.347E+00    6.971E+00
     6.593E+00    6.214E+00    5.836E+00    5.457E+00    5.080E+00    4.704E+00    4.330E+00    3.959E+00    3.591E+00    3.227E+00
     2.867E+00    2.512E+00    2.163E+00    1.820E+00    1.484E+00    1.156E+00    8.368E-01    5.268E-01    2.268E-01   -6.250E-02
    -3.403E-01   -6.059E-01   -8.586E-01   -1.098E+00   -1.322E+00   -1.532E+00   -1.725E+00   -1.903E+00   -2.063E+00   -2.204E+00
    -2.328E+00   -2.431E+00   -2.515E+00   -2.578E+00   -2.619E+00   -2.637E+00   -2.633E+00   -2.605E+00   -2.552E+00   -2.474E+00
    -2.370E+00   -2.241E+00   -2.086E+00   -1.907E+00   -1.704E+00   -1.478E+00   -1.230E+00   -9.602E-01   -6.693E-01   -3.579E-01
    -2.691E-02    3.231E-01    6.916E-01    1.078E+00    1.481E+00    1.900E+00    2.335E+00    2.786E+00    3.250E+00    3.728E+00
     4.219E+00    4.723E+00    5.238E+00    5.764E+00    6.300E+00    6.846E+00    7.401E+00    7.965E+00    8.536E+00    9.113E+00
     9.698E+00    1.029E+01    1.088E+01    1.148E+01    1.208E+01    1.268E+01    1.328E+01    1.388E+01    1.449E+01    1.508E+01
     1.568E+01    1.627E+01    1.686E+01    1.744E+01    1.801E+01    1.858E+01    1.913E+01    1.968E+01    2.022E+01    2.074E+01
     2.125E+01    2.175E+01    2.224E+01    2.271E+01    2.316E+01    2.359E+01    2.401E+01    2.441E+01    2.478E+01    2.514E+01
     2.547E+01    2.579E+01    2.608E+01    2.634E+01    2.659E+01    2.682E+01    2.703E+01    2.721E+01    2.738E+01    2.752E+01
     2.765E+01    2.776E+01    2.785E+01    2.792E+01    2.797E+01    2.800E+01    2.802E+01    2.802E+01    2.800E+01    2.797E+01
     2.792E+01    2.785E+01    2.777E+01    2.767E+01    2.756E+01    2.743E+01    2.728E+01    2.713E+01    2.695E+01    2.677E+01
     2.657E+01    2.636E+01    2.613E+01    2.589E+01    2.564E+01    2.538E+01    2.511E+01    2.483E+01    2.454E+01    2.424E+01
     2.393E+01    2.361E+01    2.328E+01    2.294E+01    2.260E+01    2.225E+01    2.189E+01    2.153E+01    2.116E+01    2.078E+01
     2.040E+01    2.002E+01    1.963E+01    1.924E+01    1.884E+01    1.845E+01    1.805E+01    1.764E+01    1.724E+01    1.684E+01
     1.643E+01    1.603E+01    1.562E+01    1.521E+01    1.480E+01    1.440E+01    1.399E+01    1.358E+01    1.317E+01    1.276E+01
     1.235E+01    1.194E+01    1.153E+01    1.112E+01    1.070E+01    1.029E+01    9.880E+00    9.467E+00    9.054E+00    8.641E+00
     8.228E+00    7.814E+00    7.401E+00    6.987E+00    6.573E+00    6.159E+00    5.745E+00    5.330E+00    4.916E+00    4.502E+00
 Mac      Conc. = 7.41E-05
   5.13939E+01  5.09316E+01  5.04058E+01  4.98171E+01  4.92221E+01  4.86558E+01  4.81402E+01  4.76871E+01  4.73028E+01  4.69897E+01
   4.66157E+01  4.61104E+01  4.57112E+01  4.56838E+01  4.60213E+01  4.65045E+01  4.70395E+01  4.76353E+01  4.82261E+01  4.86894E+01
   4.89561E+01  4.91537E+01  4.93732E+01  4.95916E+01  4.98082E+01  5.00095E+01  5.01671E+01  5.02838E+01  5.03545E+01  5.03585E+01
   5.02473E+01  5.00724E+01  4.99750E+01  5.00673E+01  5.02800E+01  5.04377E+01  5.04599E+01  5.03916E+01  5.03558E+01  5.03894E+01
   5.04414E+01  5.04279E+01  5.03278E+01  5.01542E+01  4.98874E+01  4.95294E+01  4.90964E+01  4.86507E+01  4.82586E+01  4.79215E+01
   4.76047E+01  4.73379E+01  4.72215E+01  4.72333E+01  4.72928E+01  4.73857E+01  4.75025E+01  4.76349E+01  4.76971E+01  4.76196E+01
   4.74023E+01  4.71581E+01  4.69431E+01  4.67271E+01  4.65002E+01  4.63443E+01  4.63798E+01  4.66238E+01  4.69276E+01  4.71823E+01
   4.73560E+01  4.74688E+01  4.74714E+01  4.73430E+01  4.71443E+01  4.69443E+01  4.67300E+01  4.65240E+01  4.63642E+01  4.62959E+01
   4.63025E+01  4.63587E+01  4.64422E+01  4.65410E+01  4.66324E+01  4.67083E+01  4.67452E+01  4.67560E+01  4.67183E+01  4.66204E+01
   4.64091E+01  4.60864E+01  4.56306E+01  4.50548E+01  4.44259E+01  4.38142E+01  4.31945E+01  4.25245E+01  4.17462E+01  4.08793E+01
   3.98998E+01  3.86999E+01  3.73000E+01  3.59169E+01  3.48133E+01  3.40875E+01  3.37438E+01  3.37392E+01  3.40202E+01  3.44927E+01
