 
 $NMID
 ID=''
 FMTDAT='(2E13.5)'
 TRAMP=   1.00000E+0
 VOLUME=   1.00000E+0
 $END
  -4.94355E+5   4.18564E+5
  -1.61189E+6   5.47078E+5
  -1.52574E+6   7.16622E+5
  -1.48473E+6   6.59611E+5
  -1.51499E+6   7.07823E+5
  -1.42533E+6   7.41816E+5
  -1.40644E+6   6.95022E+5
  -1.44712E+6   7.46785E+5
  -1.37377E+6   8.02620E+5
  -1.33357E+6   7.66756E+5
  -1.34935E+6   7.78206E+5
  -1.30764E+6   8.12170E+5
  -1.27520E+6   8.08494E+5
  -1.26669E+6   8.27174E+5
  -1.22264E+6   8.39842E+5
  -1.19456E+6   8.32858E+5
  -1.18949E+6   8.54929E+5
  -1.15722E+6   8.67081E+5
  -1.13084E+6   8.58389E+5
  -1.11218E+6   8.74036E+5
  -1.08149E+6   8.80915E+5
  -1.06270E+6   8.75659E+5
  -1.04430E+6   8.88316E+5
  -1.01295E+6   8.93143E+5
  -9.94034E+5   8.83087E+5
  -9.72007E+5   8.94290E+5
  -9.43857E+5   9.00392E+5
  -9.24161E+5   8.96274E+5
  -9.03170E+5   8.97134E+5
  -8.74036E+5   8.97982E+5
  -8.58117E+5   8.95806E+5
  -8.38158E+5   8.99122E+5
  -8.13029E+5   8.94967E+5
  -7.94513E+5   8.89271E+5
  -7.73946E+5   8.89884E+5
  -7.50168E+5   8.89545E+5
  -7.34158E+5   8.86781E+5
  -7.16873E+5   8.83680E+5
  -6.94088E+5   8.76372E+5
  -6.76937E+5   8.73361E+5
  -6.59120E+5   8.69962E+5
  -6.39227E+5   8.62896E+5
  -6.19675E+5   8.56651E+5
  -6.02144E+5   8.53691E+5
  -5.85300E+5   8.45974E+5
  -5.69802E+5   8.39535E+5
  -5.54140E+5   8.33950E+5
  -5.40237E+5   8.23666E+5
  -5.25803E+5   8.13148E+5
  -5.10339E+5   8.05399E+5
  -4.96585E+5   7.97772E+5
  -4.84373E+5   7.88994E+5
  -4.71512E+5   7.79749E+5
  -4.58803E+5   7.70581E+5
  -4.46787E+5   7.61206E+5
  -4.35883E+5   7.51675E+5
  -4.24807E+5   7.40636E+5
  -4.12332E+5   7.29955E+5
  -4.00157E+5   7.20195E+5
  -3.89706E+5   7.10163E+5
  -3.80429E+5   6.99552E+5
  -3.69989E+5   6.89353E+5
  -3.60641E+5   6.79678E+5
  -3.51871E+5   6.67965E+5
  -3.43346E+5   6.55295E+5
  -3.33643E+5   6.43931E+5
  -3.24872E+5   6.33529E+5
  -3.16670E+5   6.22705E+5
  -3.09011E+5   6.11564E+5
  -3.02827E+5   6.01204E+5
  -2.96484E+5   5.89329E+5
  -2.88619E+5   5.78028E+5
  -2.80906E+5   5.67374E+5
  -2.74588E+5   5.57339E+5
  -2.69296E+5   5.45666E+5
  -2.62941E+5   5.34154E+5
  -2.56313E+5   5.23394E+5
  -2.50987E+5   5.12895E+5
  -2.46023E+5   5.01359E+5
  -2.41097E+5   4.89960E+5
  -2.36245E+5   4.79101E+5
  -2.31181E+5   4.68609E+5
  -2.26631E+5   4.57706E+5
  -2.22772E+5   4.46478E+5
  -2.18712E+5   4.35432E+5
  -2.14102E+5   4.25402E+5
  -2.09928E+5   4.15323E+5
  -2.05798E+5   4.04703E+5
  -2.01929E+5   3.94790E+5
  -1.97607E+5   3.84407E+5
  -1.93534E+5   3.74904E+5
  -1.89644E+5   3.65419E+5
  -1.86243E+5   3.55742E+5
  -1.83184E+5   3.45847E+5
  -1.79673E+5   3.35755E+5
  -1.75654E+5   3.26665E+5
  -1.72273E+5   3.18130E+5
  -1.69614E+5   3.09459E+5
  -1.66562E+5   2.99673E+5
  -1.62947E+5   2.90915E+5
  -1.59613E+5   2.83210E+5
  -1.57442E+5   2.74612E+5
  -1.54774E+5   2.65684E+5
  -1.51086E+5   2.57179E+5
  -1.47446E+5   2.49676E+5
  -1.45023E+5   2.42227E+5
  -1.42505E+5   2.34752E+5
  -1.40024E+5   2.27086E+5
  -1.37132E+5   2.19502E+5
  -1.34034E+5   2.12104E+5
  -1.31401E+5   2.05154E+5
  -1.29210E+5   1.98583E+5
  -1.27297E+5   1.91946E+5
  -1.24998E+5   1.85318E+5
  -1.22784E+5   1.78103E+5
  -1.20332E+5   1.72107E+5
  -1.18367E+5   1.65977E+5
  -1.16258E+5   1.59624E+5
  -1.13538E+5   1.53461E+5
  -1.10893E+5   1.47916E+5
  -1.08873E+5   1.42632E+5
  -1.06911E+5   1.37120E+5
  -1.04531E+5   1.31935E+5
  -1.02544E+5   1.26541E+5
  -1.00788E+5   1.21313E+5
  -9.83793E+4   1.16214E+5
  -9.59308E+4   1.10930E+5
  -9.37935E+4   1.06373E+5
  -9.16756E+4   1.01576E+5
  -8.99955E+4   9.69541E+4
  -8.79975E+4   9.22435E+4
  -8.60395E+4   8.74392E+4
  -8.40089E+4   8.28413E+4
  -8.22550E+4   7.84987E+4
  -8.01155E+4   7.42722E+4
  -7.81119E+4   7.01319E+4
  -7.61656E+4   6.59848E+4
  -7.44690E+4   6.21942E+4
  -7.25648E+4   5.83892E+4
  -7.04130E+4   5.46074E+4
  -6.87497E+4   5.09301E+4
  -6.67603E+4   4.73332E+4
  -6.45476E+4   4.38056E+4
  -6.30397E+4   4.05689E+4
  -6.11655E+4   3.71054E+4
  -5.93406E+4   3.37547E+4
  -5.75539E+4   3.03352E+4
  -5.54238E+4   2.75853E+4
  -5.39797E+4   2.43337E+4
  -5.21977E+4   2.13652E+4
  -5.03467E+4   1.85323E+4
  -4.82500E+4   1.56992E+4
  -4.68083E+4   1.33830E+4
  -4.51428E+4   1.06290E+4
  -4.37065E+4   8.34419E+3
  -4.20676E+4   5.69777E+3
  -4.06378E+4   3.39981E+3
  -3.90333E+4   1.17450E+3
  -3.74347E+4  -1.25917E+3
  -3.60466E+4  -2.96955E+3
  -3.48983E+4  -5.18434E+3
  -3.34303E+4  -6.93911E+3
  -3.19698E+4  -8.79933E+3
  -3.06940E+4  -1.03861E+4
  -2.94575E+4  -1.21178E+4
  -2.81658E+4  -1.34643E+4
  -2.69630E+4  -1.50367E+4
  -2.59548E+4  -1.64565E+4
  -2.45223E+4  -1.78733E+4
  -2.32816E+4  -1.91474E+4
  -2.23147E+4  -1.98427E+4
  -2.13119E+4  -2.11884E+4
  -2.01847E+4  -2.22794E+4
  -1.90622E+4  -2.32627E+4
  -1.80203E+4  -2.40523E+4
  -1.69537E+4  -2.48336E+4
  -1.61102E+4  -2.58530E+4
  -1.49353E+4  -2.64622E+4
  -1.38640E+4  -2.71757E+4
  -1.33101E+4  -2.75619E+4
  -1.25379E+4  -2.82312E+4
  -1.10084E+4  -2.87928E+4
  -1.01395E+4  -2.91986E+4
  -9.25464E+3  -2.93671E+4
  -8.62937E+3  -2.96240E+4
  -7.10800E+3  -3.00227E+4
  -6.40931E+3  -3.00126E+4
  -5.68611E+3  -2.99853E+4
  -5.00540E+3  -3.02402E+4
  -3.85926E+3  -3.05145E+4
  -2.69076E+3  -3.03337E+4
  -1.85108E+3  -3.02916E+4
  -6.50356E+2  -3.02026E+4
   4.99851E+1  -3.01795E+4
   1.06623E+3  -2.99590E+4
   1.75093E+3  -2.98500E+4
   3.07631E+3  -2.95114E+4
   3.71720E+3  -2.92612E+4
   4.71382E+3  -2.92946E+4
   5.96311E+3  -2.90833E+4
   6.85079E+3  -2.85191E+4
   7.46714E+3  -2.82939E+4
   8.48446E+3  -2.77618E+4
   9.26505E+3  -2.75957E+4
   1.01335E+4  -2.73161E+4
   1.09757E+4  -2.67161E+4
   1.19770E+4  -2.62791E+4
   1.25764E+4  -2.57862E+4
   1.35261E+4  -2.55251E+4
   1.40416E+4  -2.49084E+4
   1.50297E+4  -2.44659E+4
   1.55889E+4  -2.38887E+4
   1.62535E+4  -2.32267E+4
   1.70708E+4  -2.25653E+4
   1.78747E+4  -2.21292E+4
   1.83361E+4  -2.15754E+4
   1.88156E+4  -2.11282E+4
   1.93831E+4  -2.05407E+4
   2.01072E+4  -1.98143E+4
   2.02898E+4  -1.93406E+4
   2.10385E+4  -1.88621E+4
   2.15620E+4  -1.80924E+4
   2.20277E+4  -1.74007E+4
   2.24413E+4  -1.66701E+4
   2.28425E+4  -1.61011E+4
   2.31702E+4  -1.57292E+4
   2.35110E+4  -1.51538E+4
   2.40759E+4  -1.44856E+4
   2.41969E+4  -1.41476E+4
   2.44142E+4  -1.35162E+4
   2.48727E+4  -1.28436E+4
   2.48810E+4  -1.21737E+4
   2.51914E+4  -1.15877E+4
   2.53890E+4  -1.11031E+4
   2.55906E+4  -1.03181E+4
   2.57327E+4  -9.78791E+3
   2.57193E+4  -9.37496E+3
   2.58501E+4  -8.77682E+3
   2.60013E+4  -8.02603E+3
   2.59268E+4  -7.53404E+3
   2.61374E+4  -7.13467E+3
   2.60279E+4  -6.34891E+3
   2.60197E+4  -5.61887E+3
   2.60387E+4  -4.99171E+3
   2.58488E+4  -4.61587E+3
   2.61257E+4  -4.21778E+3
   2.57175E+4  -3.22155E+3
   2.60160E+4  -2.99289E+3
   2.57224E+4  -2.06528E+3
   2.56170E+4  -1.55533E+3
   2.54678E+4  -9.21921E+2
   2.53275E+4  -5.44475E+2
   2.50529E+4   2.52764E+2
   2.48714E+4   9.18656E+2
   2.48563E+4   1.63391E+3
   2.45967E+4   2.12753E+3
   2.47070E+4   2.49968E+3
   2.45141E+4   3.42561E+3
   2.40799E+4   3.89371E+3
   2.40126E+4   4.40594E+3
   2.36096E+4   4.86287E+3
   2.35849E+4   5.52422E+3
   2.32413E+4   6.08478E+3
   2.29066E+4   6.61803E+3
   2.28338E+4   7.11652E+3
   2.24068E+4   7.38752E+3
   2.19783E+4   8.25840E+3
   2.19376E+4   8.74518E+3
   2.14786E+4   9.17438E+3
   2.12275E+4   9.87521E+3
   2.06373E+4   1.01978E+4
   2.05684E+4   1.06738E+4
   2.04366E+4   1.11446E+4
   1.99224E+4   1.15952E+4
   1.97419E+4   1.20048E+4
   1.94399E+4   1.25799E+4
   1.90887E+4   1.31400E+4
   1.85926E+4   1.34541E+4
   1.82337E+4   1.37595E+4
   1.79641E+4   1.42393E+4
   1.77905E+4   1.45596E+4
   1.72309E+4   1.50320E+4
   1.68847E+4   1.54932E+4
   1.66448E+4   1.59760E+4
   1.62209E+4   1.63406E+4
   1.58022E+4   1.65472E+4
   1.54588E+4   1.68375E+4
   1.49246E+4   1.70817E+4
   1.46406E+4   1.73511E+4
   1.43388E+4   1.76140E+4
   1.39761E+4   1.82847E+4
   1.36262E+4   1.85479E+4
   1.31410E+4   1.88076E+4
   1.28563E+4   1.88341E+4
   1.20460E+4   1.91384E+4
   1.18638E+4   1.93846E+4
   1.17422E+4   1.96366E+4
   1.09361E+4   1.97138E+4
   1.06115E+4   2.00254E+4
   1.01555E+4   2.03531E+4
   9.79204E+3   2.05451E+4
   9.42649E+3   2.06170E+4
   8.89059E+3   2.08830E+4
   8.56874E+3   2.12600E+4
   8.14195E+3   2.13174E+4
   7.89833E+3   2.13557E+4
   7.38155E+3   2.14208E+4
   6.97994E+3   2.13764E+4
   6.23312E+3   2.15753E+4
   5.89939E+3   2.16474E+4
   5.47565E+3   2.17945E+4
   5.01661E+3   2.19505E+4
   4.64051E+3   2.19429E+4
   4.17645E+3   2.20430E+4
   3.73179E+3   2.18665E+4
   3.47736E+3   2.20044E+4
   3.02822E+3   2.21527E+4
   2.16743E+3   2.20499E+4
   1.87593E+3   2.20351E+4
   1.48175E+3   2.20438E+4
   1.38511E+3   2.20040E+4
   5.61983E+2   2.22488E+4
   2.68814E+2   2.18899E+4
  -8.39119E+0   2.18195E+4
  -2.01002E+2   2.17418E+4
  -9.36719E+2   2.20488E+4
  -1.34613E+3   2.18564E+4
  -1.72742E+3   2.18271E+4
  -2.18487E+3   2.16876E+4
  -2.71752E+3   2.19132E+4
  -3.10465E+3   2.15999E+4
  -3.19637E+3   2.16402E+4
  -3.69896E+3   2.15193E+4
  -4.06268E+3   2.13724E+4
  -4.54896E+3   2.12363E+4
  -4.56480E+3   2.13785E+4
  -5.36598E+3   2.12039E+4
  -5.69777E+3   2.06946E+4
  -5.77425E+3   2.07300E+4
  -6.27352E+3   2.07186E+4
  -6.65448E+3   2.07379E+4
  -7.04987E+3   2.04265E+4
  -7.53328E+3   2.01296E+4
  -7.66904E+3   2.02233E+4
  -8.19645E+3   2.00878E+4
  -8.52473E+3   1.98346E+4
  -8.79801E+3   1.96887E+4
  -9.09385E+3   1.96206E+4
  -9.39246E+3   1.93283E+4
  -9.62563E+3   1.91676E+4
  -9.91829E+3   1.88009E+4
  -1.03659E+4   1.86698E+4
  -1.06671E+4   1.84264E+4
  -1.09014E+4   1.84626E+4
  -1.09974E+4   1.81454E+4
  -1.14187E+4   1.76882E+4
  -1.15637E+4   1.75022E+4
  -1.18916E+4   1.75301E+4
  -1.21373E+4   1.73443E+4
  -1.23637E+4   1.70714E+4
  -1.23722E+4   1.65396E+4
  -1.26835E+4   1.62947E+4
  -1.28517E+4   1.60045E+4
  -1.31656E+4   1.60296E+4
  -1.33156E+4   1.56403E+4
  -1.37342E+4   1.54763E+4
  -1.36122E+4   1.52692E+4
