 LCModel (Version 6.3-1N) Copyright: S.W. Provencher.          Ref.: Magn. Reson. Med. 30:672-679 (1993).                
 Slice_N1@20_9  28-Feb-2025 11:43:00
 27 lines in following concentration table = NCONC+1
    Conc.  %SD /Cr+PCr  Metabolite                                         
 2.66E-04   6% 2.5E-04 Mac                                                 
    1.797 126%   1.703 Cr                                                  
    6.647  34%   6.297 PCr                                                 
   12.804  11%  12.130 Ins                                                 
   11.866  10%  11.241 NAA                                                 
    6.720  19%   6.367 Tau                                                 
    0.000 999%   0.000 PCho                                                
    1.745  18%   1.653 GPC                                                 
   13.207  11%  12.512 Glu                                                 
    2.943  37%   2.788 Gln                                                 
    0.000 999%   0.000 Ala                                                 
   10.696  16%  10.132 Asc                                                 
    1.542  96%   1.461 Asp                                                 
    0.574 133%   0.544 GABA                                                
    0.431 238%   0.409 Glc                                                 
    1.585  40%   1.501 GSH                                                 
    1.831  54%   1.734 Lac                                                 
    2.168  44%   2.054 NAAG                                                
    0.000 999%   0.000 PE                                                  
    1.745  18%   1.653 GPC+PCho                                            
   14.034   8%  13.295 NAA+NAAG                                            
   16.151  11%  15.300 Glu+Gln                                             
    8.445  11%   8.000 Cr+PCr                                              
   14.034   8%  13.295 NAA+NAAG                                            
    8.445  11%   8.000 Cr+PCr                                              
   16.151  11%  15.300 Glu+Gln                                             
   6 lines in following misc. output table
  FWHM = 0.033 ppm    S/N =   3                                            
  Data shift = 0.008 ppm                                                   
  Ph:-168 deg       0.0 deg/ppm                                            
  alphaB,S = 1.3E-01,   6.4E+00                                            
   19 spline knots.   Ns = 5(1)                                            
  ( 3) 2 infls.   ( 2) 1 extrs.                                            
  480 points on ppm-axis = NY
      4.100000     4.091866     4.083733     4.075600     4.067466     4.059333     4.051199     4.043066     4.034933     4.026799
      4.018666     4.010532     4.002399     3.994265     3.986132     3.977998     3.969864     3.961731     3.953597     3.945463
      3.937330     3.929196     3.921062     3.912929     3.904795     3.896662     3.888528     3.880394     3.872261     3.864127
      3.855993     3.847860     3.839726     3.831592     3.823459     3.815325     3.807191     3.799058     3.790924     3.782790
      3.774657     3.766523     3.758389     3.750256     3.742122     3.733989     3.725855     3.717721     3.709588     3.701454
      3.693320     3.685187     3.677053     3.668919     3.660786     3.652652     3.644518     3.636385     3.628251     3.620117
      3.611984     3.603850     3.595716     3.587583     3.579449     3.571316     3.563182     3.555048     3.546915     3.538781
      3.530647     3.522514     3.514380     3.506246     3.498113     3.489979     3.481845     3.473712     3.465578     3.457444
      3.449311     3.441177     3.433043     3.424910     3.416776     3.408643     3.400509     3.392375     3.384242     3.376108
      3.367974     3.359841     3.351707     3.343573     3.335440     3.327306     3.319172     3.311039     3.302905     3.294771
      3.286638     3.278504     3.270370     3.262237     3.254103     3.245970     3.237836     3.229702     3.221569     3.213435
      3.205301     3.197168     3.189034     3.180900     3.172767     3.164633     3.156499     3.148366     3.140232     3.132098
      3.123965     3.115831     3.107697     3.099564     3.091430     3.083297     3.075163     3.067029     3.058896     3.050762
      3.042628     3.034495     3.026361     3.018227     3.010094     3.001960     2.993826     2.985693     2.977559     2.969425
      2.961292     2.953158     2.945024     2.936891     2.928757     2.920624     2.912490     2.904356     2.896223     2.888089
      2.879955     2.871822     2.863688     2.855554     2.847421     2.839287     2.831153     2.823020     2.814886     2.806752
      2.798619     2.790485     2.782351     2.774218     2.766084     2.757951     2.749817     2.741683     2.733550     2.725416
      2.717282     2.709149     2.701015     2.692881     2.684748     2.676614     2.668480     2.660347     2.652213     2.644079
      2.635946     2.627812     2.619678     2.611545     2.603411     2.595278     2.587144     2.579010     2.570877     2.562743
      2.554609     2.546476     2.538342     2.530208     2.522075     2.513941     2.505807     2.497674     2.489540     2.481406
      2.473273     2.465139     2.457006     2.448872     2.440738     2.432605     2.424471     2.416337     2.408204     2.400070
      2.391936     2.383803     2.375669     2.367535     2.359402     2.351268     2.343134     2.335001     2.326867     2.318733
      2.310600     2.302466     2.294333     2.286199     2.278065     2.269932     2.261798     2.253664     2.245531     2.237397
      2.229263     2.221130     2.212996     2.204862     2.196729     2.188595     2.180461     2.172328     2.164194     2.156060
      2.147927     2.139793     2.131660     2.123526     2.115392     2.107259     2.099125     2.090991     2.082858     2.074724
      2.066590     2.058457     2.050323     2.042189     2.034056     2.025922     2.017788     2.009655     2.001521     1.993387
      1.985254     1.977120     1.968987     1.960853     1.952719     1.944586     1.936452     1.928318     1.920185     1.912051
      1.903917     1.895784     1.887650     1.879516     1.871383     1.863249     1.855115     1.846982     1.838848     1.830714
      1.822581     1.814447     1.806314     1.798180     1.790046     1.781913     1.773779     1.765645     1.757512     1.749378
      1.741244     1.733111     1.724977     1.716843     1.708710     1.700576     1.692442     1.684309     1.676175     1.668041
      1.659908     1.651774     1.643641     1.635507     1.627373     1.619240     1.611106     1.602972     1.594839     1.586705
      1.578571     1.570438     1.562304     1.554170     1.546037     1.537903     1.529769     1.521636     1.513502     1.505368
      1.497235     1.489101     1.480968     1.472834     1.464700     1.456567     1.448433     1.440299     1.432166     1.424032
      1.415898     1.407765     1.399631     1.391497     1.383364     1.375230     1.367096     1.358963     1.350829     1.342695
      1.334562     1.326428     1.318295     1.310161     1.302027     1.293894     1.285760     1.277626     1.269493     1.261359
      1.253225     1.245092     1.236958     1.228824     1.220691     1.212557     1.204423     1.196290     1.188156     1.180022
      1.171889     1.163755     1.155622     1.147488     1.139354     1.131221     1.123087     1.114953     1.106820     1.098686
      1.090552     1.082419     1.074285     1.066151     1.058018     1.049884     1.041750     1.033617     1.025483     1.017349
      1.009216     1.001082     0.992949     0.984815     0.976681     0.968548     0.960414     0.952280     0.944147     0.936013
      0.927879     0.919746     0.911612     0.903478     0.895345     0.887211     0.879077     0.870944     0.862810     0.854676
      0.846543     0.838409     0.830276     0.822142     0.814008     0.805875     0.797741     0.789607     0.781474     0.773340
      0.765206     0.757073     0.748939     0.740805     0.732672     0.724538     0.716404     0.708271     0.700137     0.692003
      0.683870     0.675736     0.667603     0.659469     0.651335     0.643202     0.635068     0.626934     0.618801     0.610667
      0.602533     0.594400     0.586266     0.578132     0.569999     0.561865     0.553731     0.545598     0.537464     0.529330
      0.521197     0.513063     0.504930     0.496796     0.488662     0.480529     0.472395     0.464261     0.456128     0.447994
      0.439861     0.431727     0.423593     0.415460     0.407326     0.399192     0.391059     0.382925     0.374792     0.366658
      0.358524     0.350391     0.342257     0.334124     0.325990     0.317856     0.309723     0.301589     0.293455     0.285322
      0.277188     0.269055     0.260921     0.252787     0.244654     0.236520     0.228386     0.220253     0.212119     0.203986
 NY phased data points follow
   1.42177E+02  1.42412E+02  1.44742E+02  1.55701E+02  1.55145E+02  1.48833E+02  1.44479E+02  1.54927E+02  1.60086E+02  1.51072E+02
   1.62238E+02  1.50761E+02  1.30229E+02  1.39072E+02  1.36642E+02  1.28300E+02  1.23328E+02  1.10865E+02  1.13647E+02  9.49544E+01
   8.53706E+01  8.60432E+01  8.34624E+01  1.12892E+02  1.12147E+02  1.48515E+02  1.79611E+02  1.73325E+02  1.85744E+02  1.64624E+02
   1.60913E+02  1.60559E+02  1.56682E+02  1.58198E+02  1.37836E+02  1.32040E+02  1.32400E+02  1.05547E+02  9.28128E+01  5.98424E+01
   2.24927E+01  1.61670E+01 -2.43740E+01 -1.07356E+01 -3.63551E+00 -7.97976E+00  1.80567E+01  3.15130E+01  5.42085E+01  4.66687E+01
   6.98503E+01  6.73291E+01  5.53282E+01  5.35039E+01  2.94668E+01  3.64146E+01  2.90738E+01  2.25660E+01  2.02455E+01  9.04407E+00
  -1.12867E+01  3.71398E+00  6.41038E+00 -3.00581E+00  2.89904E+01  2.67839E+01  1.96504E+01  3.16874E+01  2.43629E+01  3.91731E+00
  -6.02158E+00 -2.47400E+01 -5.21824E+00 -3.77948E+00 -1.17909E+01  2.76866E+01  2.77655E+01  3.85066E+01  3.88601E+01  3.99767E+01
   4.83547E+01  5.03778E+01  3.71468E+01  1.56437E+01  1.51424E+01 -1.03870E+01 -7.19876E+00 -1.33632E+01 -4.45991E-01  8.58107E+00
   1.33338E+01  6.01624E+01  4.08082E+01  2.61580E+01  4.65114E+01  5.97398E+01  6.13691E+01  6.16587E+01  5.94848E+01  6.45505E+01
   5.80012E+01  3.60568E+01  4.29026E+01  3.52980E+01  2.11543E+01  2.61852E+00 -6.03953E+00 -1.88525E+01 -4.84575E+01 -6.90653E+01
  -7.61781E+01 -9.82296E+01 -1.30783E+02 -1.15587E+02 -1.15057E+02 -8.28265E+01 -5.85229E+01 -7.44940E+01 -5.00858E+01 -4.14758E+01
  -2.49589E+01 -1.93483E+01 -1.96639E+01 -2.18927E+01 -1.20794E+01  1.76257E+01  2.03063E+01  4.37703E+01  4.79908E+01  6.43860E+01
   9.60090E+01  1.06018E+02  1.04268E+02  4.22336E+01 -3.45536E+01 -8.61626E+01 -9.45385E+01 -9.98945E+01 -9.47507E+01 -7.95891E+01
  -8.28645E+01 -7.42785E+01 -8.20645E+01 -7.08138E+01 -7.87851E+01 -8.11056E+01 -8.06377E+01 -9.38156E+01 -6.91609E+01 -7.74663E+01
  -5.95436E+01 -5.08757E+01 -6.20706E+01 -5.62637E+01 -5.41551E+01 -4.33539E+01 -5.61504E+01 -4.36886E+01 -2.82548E+01 -4.17505E+01
  -5.44336E+01 -3.27134E+01 -2.88197E+01 -3.90709E+01 -2.67865E+01 -3.57894E+01 -3.73432E+01 -3.03790E+01 -2.73822E+01 -3.35184E+01
  -8.33746E+00 -1.67689E+01 -1.84652E+01  2.59770E+01  2.48563E+01  2.11111E+01  1.06668E+01  2.73185E+01  1.77894E+01  1.68048E+01
   4.74704E+00 -4.35461E+01 -3.31277E+01 -5.14879E+01 -4.15474E+01 -4.58823E+01 -5.67491E+01 -4.69191E+01 -5.85839E+01 -4.36951E+01
  -3.96343E+01 -2.65647E+00 -2.76465E+01 -4.58214E+01  5.25737E+00 -1.29959E+01 -1.29398E+01 -1.94808E+01 -1.24409E+01 -1.54135E+00
  -2.40905E+01 -8.98452E+00 -2.82055E+01 -1.62224E+01 -4.82709E+00 -1.59931E+01 -1.42616E+01 -3.87107E+01 -3.89651E+01 -6.34806E+01
  -5.96027E+01 -6.41071E+01 -6.79832E+01 -3.27927E+01 -2.73616E+01 -9.06712E+00  1.11251E+00  4.08910E+01  5.97482E+01  3.48346E+01
   1.84475E+01  2.29166E+01  1.19456E+01 -9.44701E+00 -7.38971E+00 -1.35341E+01  1.82475E+01  6.42974E+00  1.24758E+01  2.39776E+01
  -1.21448E+01 -5.44172E+00 -5.56534E+00 -8.43528E+00 -2.79394E+01 -3.38985E+01 -4.56080E+01 -6.40026E+01 -7.65881E+01 -8.93507E+01
  -7.61021E+01 -7.31376E+01 -8.24092E+01 -7.60064E+01 -4.46279E+01 -4.94381E+01 -3.99718E+01 -4.21067E+01 -4.78883E+01 -3.07516E+01
  -5.99675E+01 -6.42361E+01 -6.79016E+01 -7.48352E+01 -7.65561E+01 -9.98541E+01 -9.75521E+01 -8.14042E+01 -3.52470E+01  9.15711E+01
   1.53600E+02  1.55789E+02  1.66405E+02  1.31778E+02  1.24227E+02  1.05309E+02  9.44384E+01  8.66147E+01  9.73612E+01  1.02843E+02
   7.30067E+01  8.87318E+01  7.41101E+01  7.28495E+01  7.83905E+01  9.21156E+01  8.77520E+01  6.63540E+01  8.14818E+01  9.11202E+01
   9.71942E+01  6.58296E+01  6.57003E+01  7.74641E+01  7.72658E+01  5.98178E+01  5.03601E+01  5.12788E+01  4.96992E+01  7.08156E+01
   3.79944E+01  4.07278E+01  4.38449E+01  2.51311E+01  2.36586E+01  1.54166E+01  2.33582E+00 -1.89313E+01 -1.56255E+01 -2.48559E+01
  -1.71715E+01 -2.49942E+01 -2.55858E+01 -1.25327E+01 -1.40575E+01  5.22668E-02 -1.10971E+01 -1.61246E+01 -1.96904E+01 -1.72698E+01
  -2.49483E+01 -3.83092E+01 -2.34492E+01 -1.98045E+01 -2.25419E+01 -1.56603E+00  6.73216E+00  2.86863E+00  2.54159E+01  2.82992E+01
   3.59582E+01  4.75703E+01  4.52576E+01  5.13963E+01  6.01792E+01  8.70398E+01  1.08293E+02  1.05244E+02  9.68041E+01  8.11841E+01
   6.13888E+01  6.05663E+01  5.11597E+01  4.79071E+01  4.59011E+01  2.62368E+01  1.41783E+01  1.49698E+01  3.47782E+01  3.49350E+01
   3.95052E+01  3.11661E+01  1.23815E+01  2.70079E+01  2.23700E+01  2.88488E+01  4.69245E+01  4.00938E+01  4.32149E+01  5.47243E+01
   4.37874E+01  3.98425E+01  4.34594E+01  3.25562E+01  3.95721E+01  2.61653E+01  2.45832E+00 -6.79172E+00 -1.85132E+01  1.01991E+01
   1.26037E+01 -1.32070E+01 -5.26607E+00  3.08900E+00  6.23730E+00  9.70375E+00  2.78762E+01  3.07546E+01  3.46120E+01  3.44909E+01
   2.76551E+01  5.03029E+01  5.56568E+01  5.57818E+01  5.87847E+01  7.43461E+01  7.02585E+01  6.63844E+01  7.69058E+01  7.13712E+01
   8.65340E+01  7.52238E+01  9.14302E+01  1.15776E+02  1.10662E+02  1.26592E+02  1.32088E+02  1.40657E+02  1.45574E+02  1.47750E+02
   1.64126E+02  1.60977E+02  1.38095E+02  1.41657E+02  1.24807E+02  1.00797E+02  9.87342E+01  8.53046E+01  7.64633E+01  6.84775E+01
   7.31731E+01  4.89808E+01  3.14643E+01  3.34084E+01  1.86332E+01  1.12992E+01  5.80919E+00  1.31836E+00 -1.48872E+01 -8.95710E+00
  -1.01379E+01 -1.78921E+01 -1.49167E+01 -8.93476E+00  3.07617E-01 -2.23365E+00 -4.23425E+00 -1.60339E+01 -1.02307E+00 -1.40075E+01
  -1.02594E+01  9.13455E+00 -2.41189E+01 -7.13719E+00  7.66050E+00  6.08441E+00 -6.85571E+00 -6.64046E+00  1.66166E+01  4.64143E+00
   6.15468E+00 -3.41862E+00 -2.87485E-01  2.29770E+00 -8.50727E+00 -1.67438E+00 -1.21788E+01 -2.95381E+00  1.84099E-01  2.26672E+00
   7.46223E+00 -3.43590E+00 -9.80451E+00 -1.48813E+01  2.26425E+00 -1.16654E+01 -1.12380E+01  1.01498E+01 -2.68402E+00  9.96984E-01
  -1.71346E+01 -1.28592E+01  3.10787E+00 -9.14315E+00 -2.54207E-01 -7.00629E+00 -1.21788E+01 -1.70032E+00  1.87918E+01  5.71859E+00
  -5.77976E+00  2.38383E+01 -4.18330E+00 -9.99323E+00  1.72987E+00 -1.40381E+01 -4.79543E+00 -2.90491E+00  3.98125E+00 -1.77870E+01
  -1.19776E+01  3.17641E+00 -1.87471E+01  6.10477E+00  6.47014E+00  9.28128E-01  2.95811E+00 -2.13691E+00  7.15229E-03 -7.51477E+00
 NY points of the fit to the data follow
   1.53195E+02  1.44934E+02  1.36627E+02  1.27931E+02  1.22563E+02  1.24443E+02  1.36959E+02  1.53974E+02  1.60380E+02  1.53705E+02
   1.40534E+02  1.28574E+02  1.21848E+02  1.20510E+02  1.23784E+02  1.29397E+02  1.25466E+02  1.17414E+02  1.05690E+02  8.85047E+01
   7.31431E+01  6.49168E+01  7.12651E+01  9.74819E+01  1.23544E+02  1.38292E+02  1.46131E+02  1.47874E+02  1.47551E+02  1.47361E+02
   1.46108E+02  1.43556E+02  1.40153E+02  1.36357E+02  1.32359E+02  1.28002E+02  1.20020E+02  1.08834E+02  9.48397E+01  7.78955E+01
   5.46639E+01  2.92364E+01  8.55844E+00 -2.21900E-01 -2.08209E-02  3.89818E+00  1.16001E+01  2.74074E+01  4.80682E+01  6.73843E+01
   8.25204E+01  9.00167E+01  9.01146E+01  8.68356E+01  7.56532E+01  5.95078E+01  4.72946E+01  3.40856E+01  2.15122E+01  9.43318E+00
  -2.69147E+00 -9.03872E-01  1.03624E+01  2.22458E+01  4.00634E+01  5.50919E+01  6.20950E+01  5.93666E+01  4.15834E+01  1.34915E+01
  -1.60230E+01 -3.19420E+01 -2.85407E+01 -2.01094E+01 -8.77865E+00  1.06481E+01  3.04703E+01  4.38080E+01  5.29119E+01  5.72118E+01
   5.71409E+01  5.36409E+01  4.43368E+01  3.07195E+01  1.61639E+01  2.79043E+00 -3.31979E+00 -9.42847E-01  6.73621E+00  1.81366E+01
   2.84061E+01  3.60357E+01  4.20906E+01  4.77337E+01  5.34025E+01  5.71786E+01  6.20243E+01  6.65340E+01  6.76165E+01  6.56640E+01
   6.19543E+01  5.43401E+01  4.62449E+01  3.32532E+01  2.17541E+01  8.32215E+00 -9.75560E+00 -2.59125E+01 -3.75737E+01 -5.30429E+01
  -7.88647E+01 -1.10274E+02 -1.22353E+02 -1.11191E+02 -9.46528E+01 -7.89265E+01 -6.59230E+01 -5.58866E+01 -4.75310E+01 -4.01326E+01
  -3.33069E+01 -2.69177E+01 -2.05998E+01 -1.40034E+01 -6.57127E+00  1.50055E+00  1.04581E+01  3.44482E+01  5.37929E+01  6.90436E+01
   8.67595E+01  9.43577E+01  8.17824E+01  3.83293E+01 -3.26674E+01 -7.75637E+01 -8.82938E+01 -8.89776E+01 -8.44333E+01 -7.98902E+01
  -7.67499E+01 -7.52798E+01 -7.50089E+01 -7.51638E+01 -7.53248E+01 -7.52330E+01 -7.48316E+01 -7.38629E+01 -7.17614E+01 -6.91528E+01
  -6.63896E+01 -6.35220E+01 -6.07222E+01 -5.80841E+01 -5.57447E+01 -5.34672E+01 -5.10999E+01 -4.87998E+01 -4.70961E+01 -4.58637E+01
  -4.43947E+01 -4.26768E+01 -4.11028E+01 -4.01573E+01 -4.01098E+01 -4.02128E+01 -4.00067E+01 -3.84169E+01 -3.54356E+01 -3.25203E+01
  -2.96466E+01 -2.47688E+01 -1.58389E+01 -6.20347E+00 -2.58744E+00 -5.11023E+00 -6.21075E+00 -2.17917E+00  2.00071E+00 -1.72931E+00
  -1.29643E+01 -2.49162E+01 -3.30042E+01 -3.80815E+01 -4.15277E+01 -4.37985E+01 -4.54510E+01 -4.58263E+01 -4.56910E+01 -4.63451E+01
  -4.36618E+01 -4.04961E+01 -3.81763E+01 -3.27680E+01 -2.72816E+01 -1.95315E+01 -1.24998E+01 -1.24657E+01 -1.08013E+01 -6.81109E+00
  -6.26188E+00 -6.74709E+00 -7.98979E+00 -7.51882E+00 -6.58192E+00 -1.04140E+01 -1.68493E+01 -2.52549E+01 -3.39010E+01 -4.18847E+01
  -5.33641E+01 -5.78070E+01 -5.81076E+01 -5.20044E+01 -3.42716E+01 -1.16322E+01  1.41030E+01  4.08742E+01  5.29706E+01  5.54069E+01
   5.01596E+01  3.71259E+01  2.67023E+01  2.05065E+01  1.74431E+01  1.65031E+01  1.53475E+01  1.28929E+01  8.31141E+00  1.78341E+00
  -6.88365E+00 -1.73140E+01 -2.81629E+01 -3.95008E+01 -5.06047E+01 -5.96177E+01 -6.84815E+01 -7.49390E+01 -7.80978E+01 -8.01493E+01
  -7.86001E+01 -7.47892E+01 -7.05334E+01 -6.30031E+01 -5.58629E+01 -4.83799E+01 -4.21768E+01 -3.97558E+01 -4.14623E+01 -4.71365E+01
  -5.04807E+01 -5.22436E+01 -7.61782E+01 -8.96569E+01 -9.47581E+01 -1.02211E+02 -1.02689E+02 -9.08329E+01 -4.01357E+01  5.44391E+01
   1.16046E+02  1.31249E+02  1.30446E+02  1.20404E+02  1.10153E+02  1.01630E+02  9.47547E+01  8.86568E+01  8.31014E+01  7.81537E+01
   7.39995E+01  7.09865E+01  6.90219E+01  6.79795E+01  6.76839E+01  6.75447E+01  6.73322E+01  6.69312E+01  6.58991E+01  6.46907E+01
   6.33386E+01  6.17182E+01  5.97138E+01  5.75048E+01  5.52255E+01  5.30465E+01  5.08974E+01  4.84752E+01  4.60326E+01  4.35204E+01
   4.06657E+01  3.74627E+01  3.38681E+01  2.99908E+01  2.63026E+01  2.28908E+01  2.01475E+01  1.85125E+01  1.82445E+01  1.91852E+01
   2.09649E+01  2.31340E+01  2.54999E+01  2.80401E+01  3.06340E+01  3.31662E+01  3.55743E+01  3.79177E+01  4.02359E+01  4.26049E+01
   4.51891E+01  4.78798E+01  5.02775E+01  5.23788E+01  5.43328E+01  5.61066E+01  5.76108E+01  5.87197E+01  5.93351E+01  5.93839E+01
   5.88217E+01  5.74978E+01  5.58845E+01  5.40805E+01  5.17087E+01  4.87354E+01  4.52354E+01  4.09081E+01  3.54458E+01  2.86180E+01
   2.07738E+01  1.30329E+01  6.20954E+00  8.87564E-01 -2.44662E+00 -3.37707E+00 -1.22960E+00  3.19913E+00  8.28610E+00  1.44606E+01
   1.86904E+01  2.07162E+01  2.01048E+01  1.60477E+01  1.17679E+01  9.77725E+00  9.85719E+00  1.37863E+01  1.88863E+01  2.26982E+01
   2.54707E+01  2.68702E+01  2.70662E+01  2.59525E+01  2.37783E+01  2.08090E+01  1.74807E+01  1.46844E+01  1.30580E+01  1.25966E+01
   1.34270E+01  1.52854E+01  1.79264E+01  2.11940E+01  2.47769E+01  2.85102E+01  3.22357E+01  3.56706E+01  3.89493E+01  4.20978E+01
   4.52010E+01  4.83005E+01  5.14422E+01  5.45178E+01  5.76526E+01  6.10562E+01  6.48863E+01  6.90492E+01  7.36452E+01  7.86467E+01
   8.42798E+01  9.05276E+01  9.72220E+01  1.04214E+02  1.11752E+02  1.19285E+02  1.25925E+02  1.30683E+02  1.32756E+02  1.31424E+02
   1.26394E+02  1.18347E+02  1.08896E+02  9.95184E+01  9.10217E+01  8.36095E+01  7.68533E+01  7.02747E+01  6.30794E+01  5.51036E+01
   4.65986E+01  3.82834E+01  3.05146E+01  2.39287E+01  1.87838E+01  1.48128E+01  1.17049E+01  9.42518E+00  7.76497E+00  6.47920E+00
   5.34988E+00  4.27048E+00  3.38566E+00  2.78248E+00  2.47237E+00  2.19103E+00  1.86680E+00  1.69949E+00  1.63560E+00  1.49844E+00
   1.21820E+00  1.01846E+00  1.06800E+00  1.12469E+00  9.09831E-01  7.06080E-01  6.32048E-01  5.38435E-01  3.90341E-01  2.67919E-01
   3.30097E-01  4.14348E-01  4.68676E-01  3.25562E-01  3.20880E-02 -2.30290E-01 -4.15350E-01 -5.02452E-01 -4.23827E-01 -3.32630E-01
  -3.22941E-01 -2.81722E-01 -3.53346E-01 -4.57686E-01 -5.14784E-01 -6.96506E-01 -9.96125E-01 -1.19994E+00 -1.39245E+00 -1.43330E+00
  -1.39736E+00 -1.45541E+00 -1.54928E+00 -1.65363E+00 -1.86426E+00 -1.87561E+00 -1.81726E+00 -1.72426E+00 -1.70478E+00 -1.70553E+00
  -1.75183E+00 -1.76998E+00 -1.82899E+00 -1.96985E+00 -2.26455E+00 -2.48363E+00 -2.60466E+00 -2.62794E+00 -2.52135E+00 -2.27747E+00
  -1.97888E+00 -1.79791E+00 -1.93957E+00 -2.27002E+00 -2.54116E+00 -2.62385E+00 -2.61963E+00 -2.50941E+00 -2.46731E+00 -2.43542E+00
 NY background values follow
     1.954E+02    1.928E+02    1.901E+02    1.875E+02    1.848E+02    1.822E+02    1.795E+02    1.769E+02    1.742E+02    1.716E+02
     1.689E+02    1.663E+02    1.636E+02    1.610E+02    1.583E+02    1.557E+02    1.531E+02    1.504E+02    1.478E+02    1.452E+02
     1.426E+02    1.400E+02    1.373E+02    1.348E+02    1.322E+02    1.296E+02    1.270E+02    1.244E+02    1.219E+02    1.193E+02
     1.168E+02    1.143E+02    1.118E+02    1.093E+02    1.068E+02    1.043E+02    1.019E+02    9.941E+01    9.698E+01    9.457E+01
     9.217E+01    8.980E+01    8.744E+01    8.510E+01    8.279E+01    8.049E+01    7.822E+01    7.597E+01    7.374E+01    7.154E+01
     6.937E+01    6.722E+01    6.509E+01    6.300E+01    6.093E+01    5.889E+01    5.689E+01    5.491E+01    5.296E+01    5.105E+01
     4.917E+01    4.732E+01    4.551E+01    4.373E+01    4.199E+01    4.027E+01    3.859E+01    3.695E+01    3.533E+01    3.375E+01
     3.221E+01    3.069E+01    2.921E+01    2.776E+01    2.634E+01    2.496E+01    2.361E+01    2.229E+01    2.100E+01    1.974E+01
     1.852E+01    1.732E+01    1.616E+01    1.503E+01    1.393E+01    1.286E+01    1.182E+01    1.082E+01    9.844E+00    8.899E+00
     7.986E+00    7.102E+00    6.249E+00    5.426E+00    4.632E+00    3.866E+00    3.130E+00    2.421E+00    1.740E+00    1.087E+00
     4.603E-01   -1.396E-01   -7.133E-01   -1.261E+00   -1.784E+00   -2.281E+00   -2.754E+00   -3.203E+00   -3.628E+00   -4.029E+00
    -4.408E+00   -4.764E+00   -5.097E+00   -5.409E+00   -5.699E+00   -5.968E+00   -6.216E+00   -6.444E+00   -6.652E+00   -6.841E+00
    -7.010E+00   -7.161E+00   -7.294E+00   -7.409E+00   -7.506E+00   -7.587E+00   -7.652E+00   -7.701E+00   -7.735E+00   -7.755E+00
    -7.760E+00   -7.751E+00   -7.730E+00   -7.695E+00   -7.649E+00   -7.591E+00   -7.521E+00   -7.441E+00   -7.351E+00   -7.251E+00
    -7.143E+00   -7.025E+00   -6.900E+00   -6.766E+00   -6.626E+00   -6.479E+00   -6.326E+00   -6.167E+00   -6.004E+00   -5.835E+00
    -5.663E+00   -5.487E+00   -5.307E+00   -5.125E+00   -4.940E+00   -4.753E+00   -4.564E+00   -4.373E+00   -4.182E+00   -3.989E+00
    -3.796E+00   -3.603E+00   -3.409E+00   -3.217E+00   -3.025E+00   -2.835E+00   -2.646E+00   -2.459E+00   -2.274E+00   -2.092E+00
    -1.913E+00   -1.737E+00   -1.565E+00   -1.397E+00   -1.234E+00   -1.075E+00   -9.206E-01   -7.721E-01   -6.293E-01   -4.926E-01
    -3.624E-01   -2.388E-01   -1.215E-01   -1.048E-02    9.453E-02    1.937E-01    2.872E-01    3.753E-01    4.581E-01    5.358E-01
     6.086E-01    6.767E-01    7.404E-01    7.996E-01    8.548E-01    9.060E-01    9.535E-01    9.974E-01    1.038E+00    1.075E+00
     1.110E+00    1.141E+00    1.170E+00    1.197E+00    1.221E+00    1.243E+00    1.263E+00    1.282E+00    1.299E+00    1.315E+00
     1.330E+00    1.344E+00    1.356E+00    1.367E+00    1.377E+00    1.384E+00    1.390E+00    1.393E+00    1.394E+00    1.393E+00
     1.389E+00    1.382E+00    1.371E+00    1.358E+00    1.341E+00    1.320E+00    1.296E+00    1.268E+00    1.235E+00    1.198E+00
     1.156E+00    1.110E+00    1.059E+00    1.002E+00    9.405E-01    8.734E-01    8.005E-01    7.218E-01    6.370E-01    5.460E-01
     4.487E-01    3.448E-01    2.344E-01    1.175E-01   -5.866E-03   -1.358E-01   -2.722E-01   -4.151E-01   -5.646E-01   -7.206E-01
    -8.831E-01   -1.052E+00   -1.228E+00   -1.410E+00   -1.599E+00   -1.794E+00   -1.996E+00   -2.204E+00   -2.419E+00   -2.640E+00
    -2.868E+00   -3.103E+00   -3.344E+00   -3.592E+00   -3.846E+00   -4.107E+00   -4.374E+00   -4.648E+00   -4.929E+00   -5.216E+00
    -5.510E+00   -5.810E+00   -6.114E+00   -6.422E+00   -6.732E+00   -7.044E+00   -7.355E+00   -7.665E+00   -7.973E+00   -8.276E+00
    -8.575E+00   -8.868E+00   -9.154E+00   -9.431E+00   -9.698E+00   -9.955E+00   -1.020E+01   -1.043E+01   -1.065E+01   -1.085E+01
    -1.103E+01   -1.120E+01   -1.134E+01   -1.147E+01   -1.157E+01   -1.166E+01   -1.171E+01   -1.174E+01   -1.175E+01   -1.173E+01
    -1.168E+01   -1.160E+01   -1.149E+01   -1.135E+01   -1.119E+01   -1.101E+01   -1.080E+01   -1.057E+01   -1.031E+01   -1.003E+01
    -9.738E+00   -9.422E+00   -9.087E+00   -8.735E+00   -8.367E+00   -7.982E+00   -7.583E+00   -7.171E+00   -6.745E+00   -6.307E+00
    -5.859E+00   -5.400E+00   -4.933E+00   -4.457E+00   -3.974E+00   -3.485E+00   -2.990E+00   -2.491E+00   -1.989E+00   -1.484E+00
    -9.775E-01   -4.700E-01    3.822E-02    5.466E-01    1.055E+00    1.563E+00    2.069E+00    2.575E+00    3.079E+00    3.580E+00
     4.079E+00    4.575E+00    5.068E+00    5.558E+00    6.043E+00    6.523E+00    6.999E+00    7.470E+00    7.935E+00    8.394E+00
     8.846E+00    9.292E+00    9.730E+00    1.016E+01    1.058E+01    1.100E+01    1.140E+01    1.180E+01    1.219E+01    1.256E+01
     1.293E+01    1.329E+01    1.363E+01    1.397E+01    1.429E+01    1.461E+01    1.491E+01    1.520E+01    1.548E+01    1.574E+01
     1.600E+01    1.624E+01    1.648E+01    1.670E+01    1.690E+01    1.710E+01    1.728E+01    1.746E+01    1.761E+01    1.776E+01
     1.789E+01    1.801E+01    1.812E+01    1.821E+01    1.829E+01    1.836E+01    1.841E+01    1.845E+01    1.848E+01    1.849E+01
     1.849E+01    1.847E+01    1.844E+01    1.840E+01    1.834E+01    1.827E+01    1.819E+01    1.810E+01    1.800E+01    1.789E+01
     1.776E+01    1.763E+01    1.748E+01    1.733E+01    1.716E+01    1.699E+01    1.681E+01    1.662E+01    1.643E+01    1.622E+01
     1.601E+01    1.579E+01    1.557E+01    1.534E+01    1.510E+01    1.486E+01    1.462E+01    1.437E+01    1.411E+01    1.385E+01
     1.359E+01    1.333E+01    1.306E+01    1.279E+01    1.251E+01    1.224E+01    1.196E+01    1.167E+01    1.139E+01    1.110E+01
     1.081E+01    1.052E+01    1.023E+01    9.933E+00    9.636E+00    9.338E+00    9.038E+00    8.736E+00    8.433E+00    8.130E+00
     7.825E+00    7.519E+00    7.213E+00    6.906E+00    6.598E+00    6.290E+00    5.982E+00    5.673E+00    5.365E+00    5.057E+00
     4.748E+00    4.440E+00    4.133E+00    3.825E+00    3.518E+00    3.210E+00    2.903E+00    2.596E+00    2.290E+00    1.983E+00
     1.677E+00    1.370E+00    1.064E+00    7.576E-01    4.515E-01    1.454E-01   -1.606E-01   -4.665E-01   -7.725E-01   -1.078E+00
    -1.384E+00   -1.690E+00   -1.996E+00   -2.302E+00   -2.608E+00   -2.914E+00   -3.220E+00   -3.526E+00   -3.832E+00   -4.138E+00
 Mac      Conc. = 2.66E-04
   1.77733E+02  1.74547E+02  1.71323E+02  1.68272E+02  1.65323E+02  1.62298E+02  1.59053E+02  1.55500E+02  1.51558E+02  1.47329E+02
   1.43201E+02  1.39433E+02  1.36099E+02  1.32930E+02  1.29617E+02  1.26415E+02  1.22961E+02  1.19156E+02  1.15951E+02  1.14264E+02
   1.14505E+02  1.15824E+02  1.16797E+02  1.17374E+02  1.17637E+02  1.17114E+02  1.15942E+02  1.14555E+02  1.13334E+02  1.12365E+02
   1.11597E+02  1.10862E+02  1.09754E+02  1.08181E+02  1.06342E+02  1.04296E+02  1.02029E+02  9.96868E+01  9.77198E+01  9.65355E+01
   9.58488E+01  9.50488E+01  9.35083E+01  9.13649E+01  8.93546E+01  8.78099E+01  8.65582E+01  8.52078E+01  8.33610E+01  8.09215E+01
   7.80146E+01  7.48416E+01  7.15222E+01  6.82414E+01  6.52533E+01  6.25766E+01  6.01415E+01  5.80298E+01  5.64057E+01  5.52769E+01
   5.45738E+01  5.39647E+01  5.31940E+01  5.24455E+01  5.13900E+01  4.96552E+01  4.73851E+01  4.48302E+01  4.24520E+01  4.04538E+01
   3.86602E+01  3.73177E+01  3.66108E+01  3.68940E+01  3.76610E+01  3.79650E+01  3.76568E+01  3.67958E+01  3.53421E+01  3.35523E+01
   3.15647E+01  2.96999E+01  2.80786E+01  2.66016E+01  2.53896E+01  2.45362E+01  2.40330E+01  2.37400E+01  2.34361E+01  2.31938E+01
   2.29437E+01  2.26502E+01  2.22498E+01  2.18013E+01  2.11614E+01  2.02184E+01  1.88059E+01  1.68694E+01  1.43498E+01  1.15329E+01
   8.72963E+00  6.10668E+00  3.79196E+00  1.38055E+00 -1.67760E+00 -5.48361E+00 -1.00437E+01 -1.54844E+01 -2.15720E+01 -2.74188E+01
