 
 $NMID
 ID=''
 FMTDAT='(2E13.5)'
 TRAMP=   1.00000E+0
 VOLUME=   1.00000E+0
 $END
   1.89264E+4   6.77302E+5
  -6.52519E+5   1.69664E+6
  -4.64985E+5   1.70614E+6
  -5.06866E+5   1.58085E+6
  -5.29847E+5   1.63929E+6
  -4.19697E+5   1.62981E+6
  -4.03984E+5   1.57153E+6
  -4.17802E+5   1.59384E+6
  -3.77095E+5   1.56470E+6
  -3.91093E+5   1.51124E+6
  -3.98767E+5   1.51353E+6
  -3.70827E+5   1.48418E+6
  -3.80750E+5   1.44211E+6
  -3.89522E+5   1.43312E+6
  -3.79364E+5   1.39526E+6
  -3.90368E+5   1.35536E+6
  -3.87965E+5   1.34663E+6
  -3.68173E+5   1.31748E+6
  -3.64551E+5   1.28402E+6
  -3.45455E+5   1.27111E+6
  -3.24851E+5   1.23925E+6
  -3.23364E+5   1.20684E+6
  -3.12185E+5   1.18857E+6
  -2.96808E+5   1.15763E+6
  -2.97408E+5   1.12461E+6
  -2.85257E+5   1.10147E+6
  -2.79197E+5   1.07018E+6
  -2.87514E+5   1.03910E+6
  -2.85426E+5   1.01148E+6
  -2.74844E+5   9.79308E+5
  -2.73386E+5   9.53899E+5
  -2.64440E+5   9.29970E+5
  -2.54410E+5   8.98702E+5
  -2.47205E+5   8.72729E+5
  -2.33132E+5   8.49542E+5
  -2.18159E+5   8.21995E+5
  -2.08616E+5   7.99504E+5
  -1.97640E+5   7.77630E+5
  -1.88886E+5   7.49156E+5
  -1.83517E+5   7.24322E+5
  -1.76539E+5   7.00198E+5
  -1.71179E+5   6.73283E+5
  -1.67346E+5   6.48829E+5
  -1.61613E+5   6.25793E+5
  -1.57247E+5   6.00593E+5
  -1.54406E+5   5.77437E+5
  -1.49513E+5   5.55215E+5
  -1.44985E+5   5.32077E+5
  -1.39223E+5   5.10150E+5
  -1.31444E+5   4.89293E+5
  -1.24898E+5   4.69035E+5
  -1.19165E+5   4.48993E+5
  -1.12526E+5   4.29855E+5
  -1.06970E+5   4.10917E+5
  -1.02201E+5   3.92794E+5
  -9.66106E+4   3.74459E+5
  -9.20674E+4   3.55854E+5
  -8.80736E+4   3.38833E+5
  -8.35368E+4   3.20850E+5
  -7.89583E+4   3.04361E+5
  -7.52866E+4   2.88718E+5
  -7.09591E+4   2.73308E+5
  -6.68580E+4   2.58093E+5
  -6.26745E+4   2.43494E+5
  -5.78301E+4   2.28855E+5
  -5.28965E+4   2.14533E+5
  -4.84664E+4   2.01641E+5
  -4.40089E+4   1.89142E+5
  -3.91804E+4   1.77161E+5
  -3.53635E+4   1.65473E+5
  -3.14219E+4   1.53901E+5
  -2.72039E+4   1.42893E+5
  -2.30788E+4   1.31890E+5
  -1.93384E+4   1.22166E+5
  -1.58068E+4   1.12456E+5
  -1.22639E+4   1.02707E+5
  -8.20780E+3   9.37192E+4
  -4.44717E+3   8.52063E+4
  -1.09285E+3   7.68890E+4
   2.76497E+3   6.87048E+4
   6.23884E+3   6.11928E+4
   9.86209E+3   5.40181E+4
   1.31887E+4   4.74096E+4
   1.68061E+4   4.05649E+4
   2.04276E+4   3.43326E+4
   2.35725E+4   2.83214E+4
   2.68022E+4   2.26835E+4
   2.99306E+4   1.72805E+4
   3.30384E+4   1.21102E+4
   3.64254E+4   7.05905E+3
   3.94840E+4   2.49967E+3
   4.22805E+4  -1.75291E+3
   4.50105E+4  -5.80381E+3
   4.76912E+4  -9.22019E+3
   5.01405E+4  -1.27167E+4
   5.26712E+4  -1.61853E+4
   5.50007E+4  -1.87488E+4
   5.72693E+4  -2.14067E+4
   5.91967E+4  -2.34480E+4
   6.13311E+4  -2.59144E+4
   6.37825E+4  -2.78047E+4
   6.54297E+4  -2.95345E+4
   6.71296E+4  -3.12210E+4
   6.91573E+4  -3.27824E+4
   7.11528E+4  -3.41718E+4
   7.25323E+4  -3.51053E+4
   7.38891E+4  -3.65611E+4
   7.56498E+4  -3.69662E+4
   7.71143E+4  -3.73932E+4
   7.81813E+4  -3.77962E+4
   7.94267E+4  -3.85327E+4
   8.06146E+4  -3.85839E+4
   8.17615E+4  -3.79634E+4
   8.26304E+4  -3.78636E+4
   8.37757E+4  -3.73321E+4
   8.49170E+4  -3.70117E+4
   8.59536E+4  -3.59552E+4
   8.64349E+4  -3.53757E+4
   8.70398E+4  -3.44892E+4
   8.78095E+4  -3.36430E+4
   8.85042E+4  -3.27237E+4
   8.89191E+4  -3.16425E+4
   8.96324E+4  -3.05394E+4
   9.03188E+4  -2.90519E+4
   9.08913E+4  -2.77023E+4
   9.09836E+4  -2.62686E+4
   9.15446E+4  -2.49495E+4
   9.21923E+4  -2.34744E+4
   9.23601E+4  -2.16162E+4
   9.27770E+4  -1.96973E+4
   9.33281E+4  -1.79778E+4
   9.35294E+4  -1.59547E+4
   9.36349E+4  -1.38683E+4
   9.36650E+4  -1.20841E+4
   9.38655E+4  -1.01269E+4
   9.37468E+4  -8.12163E+3
   9.37357E+4  -6.08416E+3
   9.35624E+4  -4.37408E+3
   9.37347E+4  -2.57414E+3
   9.32588E+4  -2.36017E+2
   9.29993E+4   1.37457E+3
   9.25860E+4   3.39228E+3
   9.22846E+4   5.11055E+3
   9.19636E+4   7.26895E+3
   9.15467E+4   8.87924E+3
   9.11221E+4   1.07479E+4
   9.04505E+4   1.26072E+4
   8.98432E+4   1.45443E+4
   8.93012E+4   1.62988E+4
   8.85972E+4   1.80465E+4
   8.79295E+4   1.96300E+4
   8.72923E+4   2.11326E+4
   8.65631E+4   2.26318E+4
   8.57276E+4   2.41220E+4
   8.48830E+4   2.57559E+4
   8.38068E+4   2.69564E+4
   8.28636E+4   2.83902E+4
   8.18846E+4   2.97452E+4
   8.07391E+4   3.12734E+4
   7.95819E+4   3.23749E+4
   7.86704E+4   3.38238E+4
   7.76081E+4   3.49206E+4
   7.62436E+4   3.58355E+4
   7.53024E+4   3.69604E+4
   7.41097E+4   3.83149E+4
   7.24627E+4   3.92709E+4
   7.15786E+4   4.02335E+4
   7.04378E+4   4.14244E+4
   6.92287E+4   4.19857E+4
   6.78752E+4   4.30937E+4
   6.66065E+4   4.39407E+4
   6.51845E+4   4.47335E+4
   6.37611E+4   4.56439E+4
   6.25950E+4   4.62366E+4
   6.10998E+4   4.70492E+4
   5.98755E+4   4.78901E+4
   5.81441E+4   4.85348E+4
   5.68523E+4   4.91802E+4
   5.53905E+4   4.96265E+4
   5.39866E+4   5.05120E+4
   5.26244E+4   5.10547E+4
   5.12682E+4   5.16718E+4
   4.97413E+4   5.22176E+4
   4.83770E+4   5.25623E+4
   4.70525E+4   5.31135E+4
   4.56603E+4   5.37199E+4
   4.43330E+4   5.42785E+4
   4.28465E+4   5.45739E+4
   4.16983E+4   5.50900E+4
   4.03573E+4   5.54846E+4
   3.93950E+4   5.58952E+4
   3.76984E+4   5.64696E+4
   3.64181E+4   5.67421E+4
   3.50537E+4   5.69787E+4
   3.38761E+4   5.71846E+4
   3.26300E+4   5.74161E+4
   3.14108E+4   5.78119E+4
   3.00937E+4   5.82505E+4
   2.89037E+4   5.83348E+4
   2.74816E+4   5.87781E+4
   2.59547E+4   5.88720E+4
   2.49280E+4   5.92325E+4
   2.38269E+4   5.89752E+4
   2.25139E+4   5.90332E+4
   2.12650E+4   5.93457E+4
   2.01054E+4   5.93821E+4
   1.89746E+4   5.94413E+4
   1.77089E+4   5.92176E+4
   1.64904E+4   5.93587E+4
   1.56893E+4   5.92728E+4
   1.43002E+4   5.93472E+4
   1.30460E+4   5.92173E+4
   1.20736E+4   5.92551E+4
   1.11637E+4   5.88770E+4
   9.98958E+3   5.87962E+4
   8.62350E+3   5.86515E+4
   7.87220E+3   5.81252E+4
   7.06920E+3   5.80611E+4
   5.97460E+3   5.78542E+4
   5.18976E+3   5.75628E+4
   4.26235E+3   5.71963E+4
   3.50017E+3   5.71172E+4
   2.54882E+3   5.67745E+4
   1.61085E+3   5.64805E+4
   4.22696E+2   5.59867E+4
   4.12383E+1   5.56334E+4
  -7.58489E+2   5.53273E+4
  -1.69315E+3   5.48927E+4
  -2.49751E+3   5.47336E+4
  -3.35728E+3   5.41563E+4
  -4.10503E+3   5.35117E+4
  -4.69817E+3   5.30936E+4
  -5.39283E+3   5.26384E+4
  -6.10780E+3   5.23978E+4
  -6.91281E+3   5.14668E+4
  -7.11510E+3   5.10201E+4
  -8.22908E+3   5.05943E+4
  -8.74831E+3   5.00556E+4
  -9.41288E+3   4.96276E+4
  -9.81960E+3   4.88290E+4
  -1.03157E+4   4.83610E+4
  -1.09716E+4   4.80249E+4
  -1.15136E+4   4.73854E+4
  -1.21598E+4   4.69425E+4
  -1.29437E+4   4.64170E+4
  -1.33829E+4   4.58156E+4
  -1.37290E+4   4.50693E+4
  -1.41615E+4   4.48214E+4
  -1.47035E+4   4.40033E+4
  -1.48674E+4   4.34506E+4
  -1.56371E+4   4.29056E+4
  -1.59631E+4   4.24815E+4
  -1.65674E+4   4.20076E+4
  -1.70222E+4   4.15151E+4
  -1.72175E+4   4.06931E+4
  -1.73973E+4   4.05383E+4
  -1.78444E+4   4.01347E+4
  -1.82026E+4   3.92994E+4
  -1.86951E+4   3.89154E+4
  -1.90283E+4   3.82619E+4
  -1.96377E+4   3.75931E+4
  -2.00405E+4   3.71812E+4
  -2.00967E+4   3.65711E+4
  -2.05022E+4   3.60669E+4
  -2.06453E+4   3.55782E+4
  -2.07119E+4   3.52375E+4
  -2.09829E+4   3.48678E+4
  -2.13271E+4   3.39282E+4
  -2.15638E+4   3.35201E+4
  -2.14548E+4   3.32062E+4
  -2.18469E+4   3.26016E+4
  -2.19317E+4   3.21193E+4
  -2.19521E+4   3.16112E+4
  -2.22347E+4   3.12465E+4
  -2.25360E+4   3.06489E+4
  -2.25967E+4   3.03228E+4
  -2.26390E+4   2.96172E+4
  -2.25728E+4   2.90252E+4
  -2.26663E+4   2.87453E+4
  -2.26461E+4   2.82297E+4
  -2.24093E+4   2.82632E+4
  -2.27706E+4   2.76377E+4
  -2.28049E+4   2.70182E+4
  -2.26005E+4   2.65721E+4
  -2.30064E+4   2.61196E+4
  -2.29087E+4   2.57905E+4
  -2.27384E+4   2.53260E+4
  -2.24286E+4   2.48455E+4
  -2.25022E+4   2.50626E+4
  -2.26490E+4   2.43154E+4
  -2.24522E+4   2.39279E+4
  -2.20430E+4   2.36216E+4
  -2.21974E+4   2.31451E+4
  -2.21927E+4   2.28970E+4
  -2.18501E+4   2.20712E+4
  -2.17832E+4   2.21100E+4
  -2.15238E+4   2.17098E+4
  -2.17876E+4   2.14130E+4
  -2.16239E+4   2.10526E+4
  -2.12051E+4   2.06800E+4
  -2.11777E+4   2.02040E+4
  -2.10804E+4   1.99608E+4
  -2.08527E+4   1.98996E+4
  -2.09404E+4   1.90751E+4
  -2.06517E+4   1.87777E+4
  -2.04286E+4   1.84887E+4
  -2.03037E+4   1.80959E+4
  -1.99102E+4   1.77805E+4
  -1.99841E+4   1.75639E+4
  -2.01970E+4   1.71447E+4
  -1.98131E+4   1.69779E+4
  -1.98735E+4   1.66869E+4
  -1.95958E+4   1.62091E+4
  -1.93394E+4   1.58760E+4
  -1.92302E+4   1.55291E+4
  -1.89530E+4   1.52766E+4
  -1.88837E+4   1.49100E+4
  -1.90507E+4   1.45086E+4
  -1.86599E+4   1.43217E+4
  -1.85988E+4   1.40736E+4
  -1.85432E+4   1.37717E+4
  -1.83704E+4   1.34680E+4
  -1.82702E+4   1.28050E+4
  -1.78899E+4   1.26639E+4
  -1.77587E+4   1.20760E+4
  -1.75224E+4   1.21456E+4
  -1.75822E+4   1.17630E+4
  -1.76310E+4   1.13674E+4
  -1.75443E+4   1.10313E+4
  -1.73693E+4   1.08703E+4
  -1.70754E+4   1.05501E+4
  -1.69195E+4   1.01215E+4
  -1.68278E+4   1.01325E+4
  -1.67370E+4   9.67646E+3
  -1.67401E+4   9.47252E+3
  -1.67705E+4   9.31696E+3
  -1.66660E+4   9.07712E+3
  -1.64223E+4   8.41229E+3
  -1.62649E+4   8.09604E+3
  -1.59728E+4   8.14030E+3
  -1.61338E+4   7.68137E+3
  -1.59201E+4   7.29978E+3
  -1.57127E+4   7.38114E+3
  -1.56092E+4   6.81947E+3
  -1.56234E+4   6.67637E+3
  -1.56219E+4   6.35491E+3
  -1.54973E+4   6.00253E+3
  -1.52575E+4   5.97187E+3
  -1.54656E+4   5.73597E+3
  -1.50668E+4   5.46895E+3
  -1.50833E+4   5.22147E+3
  -1.47764E+4   5.05959E+3
  -1.51257E+4   4.43223E+3
  -1.50254E+4   4.42806E+3
  -1.45425E+4   4.40482E+3
  -1.42866E+4   4.12790E+3
  -1.44046E+4   3.89297E+3
  -1.42622E+4   3.43599E+3
  -1.40562E+4   3.53715E+3
  -1.40800E+4   3.13378E+3
  -1.40838E+4   3.14724E+3
  -1.36451E+4   2.98798E+3
  -1.34378E+4   2.50576E+3
  -1.35342E+4   2.39730E+3
  -1.34990E+4   2.26470E+3
  -1.31452E+4   2.05773E+3
  -1.29922E+4   1.84019E+3
