 
 $NMID
 ID=''
 FMTDAT='(2E13.5)'
 TRAMP=   1.00000E+0
 VOLUME=   1.00000E+0
 $END
   5.22901E+4   5.82353E+5
  -3.94451E+5   1.51558E+6
  -2.01668E+5   1.53079E+6
  -2.76902E+5   1.41791E+6
  -3.65578E+5   1.44698E+6
  -3.70159E+5   1.40427E+6
  -4.41097E+5   1.34755E+6
  -4.86904E+5   1.38444E+6
  -4.60206E+5   1.36655E+6
  -4.91898E+5   1.31930E+6
  -5.26628E+5   1.31334E+6
  -5.33074E+5   1.27908E+6
  -5.68620E+5   1.25184E+6
  -5.82861E+5   1.26047E+6
  -5.75366E+5   1.23405E+6
  -5.95042E+5   1.19887E+6
  -6.18675E+5   1.19185E+6
  -6.39424E+5   1.16119E+6
  -6.77794E+5   1.13002E+6
  -6.97896E+5   1.11660E+6
  -7.11563E+5   1.08363E+6
  -7.39586E+5   1.05245E+6
  -7.57239E+5   1.03477E+6
  -7.72010E+5   1.00523E+6
  -7.94485E+5   9.77212E+5
  -7.99394E+5   9.63648E+5
  -8.04060E+5   9.41157E+5
  -8.17491E+5   9.20438E+5
  -8.23259E+5   9.02076E+5
  -8.28655E+5   8.79700E+5
  -8.46606E+5   8.56862E+5
  -8.56852E+5   8.33395E+5
  -8.67422E+5   8.03955E+5
  -8.82261E+5   7.79270E+5
  -8.93190E+5   7.54299E+5
  -9.05493E+5   7.24982E+5
  -9.21430E+5   6.99313E+5
  -9.31995E+5   6.73368E+5
  -9.38705E+5   6.45396E+5
  -9.46570E+5   6.23508E+5
  -9.50475E+5   6.02703E+5
  -9.53989E+5   5.79960E+5
  -9.57196E+5   5.60517E+5
  -9.59939E+5   5.42333E+5
  -9.62567E+5   5.21927E+5
  -9.67747E+5   5.03288E+5
  -9.72252E+5   4.81195E+5
  -9.76244E+5   4.54975E+5
  -9.78951E+5   4.30127E+5
  -9.82413E+5   4.07051E+5
  -9.87108E+5   3.82962E+5
  -9.90913E+5   3.58211E+5
  -9.93468E+5   3.34953E+5
  -9.96884E+5   3.11666E+5
  -9.98242E+5   2.89025E+5
  -9.97939E+5   2.67021E+5
  -9.97544E+5   2.46159E+5
  -9.96672E+5   2.26244E+5
  -9.94304E+5   2.07549E+5
  -9.93125E+5   1.89242E+5
  -9.92190E+5   1.70007E+5
  -9.90757E+5   1.51015E+5
  -9.89299E+5   1.30388E+5
  -9.86173E+5   1.09295E+5
  -9.82308E+5   8.87518E+4
  -9.77937E+5   6.94604E+4
  -9.73433E+5   5.03390E+4
  -9.68158E+5   3.10374E+4
  -9.64307E+5   1.22595E+4
  -9.60551E+5  -6.30246E+3
  -9.54954E+5  -2.47877E+4
  -9.47492E+5  -4.09626E+4
  -9.42041E+5  -5.62956E+4
  -9.36140E+5  -7.31391E+4
  -9.28827E+5  -9.07149E+4
  -9.21130E+5  -1.06512E+5
  -9.13828E+5  -1.21930E+5
  -9.06466E+5  -1.38704E+5
  -8.97376E+5  -1.55885E+5
  -8.88139E+5  -1.72723E+5
  -8.78845E+5  -1.88826E+5
  -8.69438E+5  -2.03890E+5
  -8.59016E+5  -2.19059E+5
  -8.48523E+5  -2.33919E+5
  -8.37525E+5  -2.48533E+5
  -8.27171E+5  -2.61123E+5
  -8.16580E+5  -2.73277E+5
  -8.05904E+5  -2.85127E+5
  -7.94730E+5  -2.96406E+5
  -7.83683E+5  -3.06926E+5
  -7.72305E+5  -3.17561E+5
  -7.61436E+5  -3.28582E+5
  -7.49579E+5  -3.39383E+5
  -7.36679E+5  -3.50177E+5
  -7.23224E+5  -3.60341E+5
  -7.10348E+5  -3.70146E+5
  -6.98782E+5  -3.80082E+5
  -6.86513E+5  -3.90266E+5
  -6.72654E+5  -3.99397E+5
  -6.59646E+5  -4.07342E+5
  -6.47259E+5  -4.15427E+5
  -6.34663E+5  -4.24462E+5
  -6.20365E+5  -4.31804E+5
  -6.06982E+5  -4.37614E+5
  -5.94708E+5  -4.43186E+5
  -5.82800E+5  -4.49148E+5
  -5.70058E+5  -4.55503E+5
  -5.56260E+5  -4.61138E+5
  -5.42493E+5  -4.66368E+5
  -5.29780E+5  -4.70445E+5
  -5.16809E+5  -4.74741E+5
  -5.03980E+5  -4.80210E+5
  -4.90047E+5  -4.85700E+5
  -4.76188E+5  -4.90190E+5
  -4.62765E+5  -4.94415E+5
  -4.49458E+5  -4.98608E+5
  -4.35817E+5  -5.02562E+5
  -4.21687E+5  -5.05829E+5
  -4.08677E+5  -5.07523E+5
  -3.96279E+5  -5.09584E+5
  -3.84314E+5  -5.12045E+5
  -3.71509E+5  -5.14493E+5
  -3.58975E+5  -5.16542E+5
  -3.46166E+5  -5.18530E+5
  -3.33183E+5  -5.20300E+5
  -3.20041E+5  -5.20924E+5
  -3.07633E+5  -5.21210E+5
  -2.95346E+5  -5.21938E+5
  -2.82852E+5  -5.22718E+5
  -2.70429E+5  -5.23203E+5
  -2.57545E+5  -5.24040E+5
  -2.44465E+5  -5.23896E+5
  -2.32231E+5  -5.23067E+5
  -2.20263E+5  -5.22178E+5
  -2.08130E+5  -5.21851E+5
  -1.95775E+5  -5.20340E+5
  -1.84386E+5  -5.18610E+5
  -1.73202E+5  -5.17255E+5
  -1.61488E+5  -5.15861E+5
  -1.49694E+5  -5.13764E+5
  -1.38174E+5  -5.11088E+5
  -1.27327E+5  -5.08164E+5
  -1.16793E+5  -5.05117E+5
  -1.06706E+5  -5.02562E+5
  -9.61218E+4  -4.99961E+5
  -8.55740E+4  -4.96309E+5
  -7.54600E+4  -4.92302E+5
  -6.58583E+4  -4.88290E+5
  -5.62821E+4  -4.84020E+5
  -4.71833E+4  -4.79768E+5
  -3.82058E+4  -4.75110E+5
  -2.95884E+4  -4.70788E+5
  -2.15446E+4  -4.66268E+5
  -1.32065E+4  -4.61886E+5
  -4.54823E+3  -4.57216E+5
   3.50654E+3  -4.51852E+5
   1.09832E+4  -4.46793E+5
   1.87016E+4  -4.41800E+5
   2.64578E+4  -4.36479E+5
   3.33827E+4  -4.31013E+5
   4.03848E+4  -4.25764E+5
   4.75150E+4  -4.19932E+5
   5.44412E+4  -4.14299E+5
   6.07677E+4  -4.08140E+5
   6.68062E+4  -4.02378E+5
   7.24996E+4  -3.96565E+5
   7.84544E+4  -3.91002E+5
   8.46588E+4  -3.85337E+5
   8.98758E+4  -3.79034E+5
   9.50343E+4  -3.73128E+5
   1.00050E+5  -3.67206E+5
   1.05024E+5  -3.61545E+5
   1.09795E+5  -3.55661E+5
   1.14579E+5  -3.49324E+5
   1.18981E+5  -3.43223E+5
   1.23665E+5  -3.37424E+5
   1.28452E+5  -3.31470E+5
   1.32798E+5  -3.25194E+5
   1.36475E+5  -3.18359E+5
   1.40286E+5  -3.12314E+5
   1.44240E+5  -3.06571E+5
   1.48250E+5  -3.00637E+5
   1.51994E+5  -2.94363E+5
   1.55384E+5  -2.88286E+5
   1.58582E+5  -2.82031E+5
   1.61609E+5  -2.75926E+5
   1.64441E+5  -2.69893E+5
   1.67116E+5  -2.63872E+5
   1.69286E+5  -2.57848E+5
   1.71741E+5  -2.52687E+5
   1.74626E+5  -2.47063E+5
   1.77436E+5  -2.40646E+5
   1.79431E+5  -2.34225E+5
   1.81385E+5  -2.28309E+5
   1.83147E+5  -2.22483E+5
   1.85206E+5  -2.16762E+5
   1.87088E+5  -2.10559E+5
   1.88586E+5  -2.04774E+5
   1.90363E+5  -1.99043E+5
   1.91704E+5  -1.93114E+5
   1.93523E+5  -1.86781E+5
   1.94224E+5  -1.80850E+5
   1.94879E+5  -1.74915E+5
   1.95744E+5  -1.69737E+5
   1.96670E+5  -1.63920E+5
   1.97366E+5  -1.58307E+5
   1.97956E+5  -1.52467E+5
   1.98304E+5  -1.46881E+5
   1.98691E+5  -1.41472E+5
   1.98757E+5  -1.35670E+5
   1.99003E+5  -1.30108E+5
   1.98752E+5  -1.24738E+5
   1.98530E+5  -1.19805E+5
   1.98696E+5  -1.14547E+5
   1.98353E+5  -1.08898E+5
   1.97671E+5  -1.03328E+5
   1.96917E+5  -9.85101E+4
   1.96254E+5  -9.32990E+4
   1.95565E+5  -8.90186E+4
   1.94397E+5  -8.38419E+4
   1.93476E+5  -7.91115E+4
   1.92400E+5  -7.45806E+4
   1.91498E+5  -6.99210E+4
   1.90530E+5  -6.55179E+4
   1.89147E+5  -6.09312E+4
   1.87669E+5  -5.64454E+4
   1.85977E+5  -5.25566E+4
   1.84647E+5  -4.85537E+4
   1.83531E+5  -4.43136E+4
   1.81849E+5  -4.01420E+4
   1.79867E+5  -3.63474E+4
   1.78279E+5  -3.27017E+4
   1.76579E+5  -2.91742E+4
   1.74867E+5  -2.54426E+4
   1.72518E+5  -2.20731E+4
   1.70934E+5  -1.89288E+4
   1.68989E+5  -1.60562E+4
   1.67089E+5  -1.25657E+4
   1.65003E+5  -9.38298E+3
   1.63014E+5  -6.55896E+3
   1.61157E+5  -3.79547E+3
   1.58980E+5  -1.06933E+3
   1.57361E+5   1.76050E+3
   1.54944E+5   4.56532E+3
   1.52933E+5   7.30239E+3
   1.50833E+5   9.86910E+3
   1.48955E+5   1.21616E+4
   1.47085E+5   1.46028E+4
   1.44428E+5   1.67649E+4
   1.42328E+5   1.89385E+4
   1.40564E+5   2.09020E+4
   1.38477E+5   2.30697E+4
   1.36153E+5   2.51815E+4
   1.33858E+5   2.70517E+4
   1.31476E+5   2.89806E+4
   1.29608E+5   3.06818E+4
   1.27405E+5   3.25169E+4
   1.25373E+5   3.44365E+4
   1.23150E+5   3.61713E+4
   1.21255E+5   3.80891E+4
   1.19064E+5   3.95590E+4
   1.16463E+5   4.14017E+4
   1.14203E+5   4.25458E+4
   1.11831E+5   4.39443E+4
   1.09801E+5   4.52954E+4
   1.07729E+5   4.66551E+4
   1.05621E+5   4.81052E+4
   1.03459E+5   4.93946E+4
   1.01166E+5   5.05341E+4
   9.88804E+4   5.16224E+4
   9.67589E+4   5.25798E+4
   9.45570E+4   5.36686E+4
   9.25970E+4   5.44855E+4
   9.06154E+4   5.56334E+4
   8.82917E+4   5.65659E+4
   8.63231E+4   5.75524E+4
   8.40049E+4   5.83649E+4
   8.19656E+4   5.88234E+4
   7.97244E+4   5.95902E+4
   7.74612E+4   6.02723E+4
   7.54217E+4   6.10126E+4
   7.35240E+4   6.13648E+4
   7.17031E+4   6.16307E+4
   6.96402E+4   6.24350E+4
   6.76991E+4   6.31129E+4
   6.54385E+4   6.33857E+4
   6.39251E+4   6.33493E+4
   6.18113E+4   6.35149E+4
   6.01882E+4   6.38476E+4
   5.82703E+4   6.42699E+4
   5.64270E+4   6.44512E+4
   5.47203E+4   6.45799E+4
   5.29155E+4   6.48217E+4
   5.09829E+4   6.47301E+4
   4.94881E+4   6.46919E+4
   4.75310E+4   6.48931E+4
   4.60630E+4   6.48118E+4
   4.44754E+4   6.46696E+4
   4.30117E+4   6.47895E+4
   4.12097E+4   6.47964E+4
   3.97333E+4   6.42405E+4
   3.82259E+4   6.43712E+4
   3.68842E+4   6.41011E+4
   3.54766E+4   6.42501E+4
   3.42429E+4   6.38238E+4
   3.27495E+4   6.38709E+4
   3.12757E+4   6.31857E+4
   2.98068E+4   6.29888E+4
   2.86679E+4   6.29732E+4
   2.73427E+4   6.24044E+4
   2.59247E+4   6.21643E+4
   2.48922E+4   6.18652E+4
   2.36421E+4   6.15930E+4
   2.23818E+4   6.09645E+4
   2.12046E+4   6.05124E+4
   2.02453E+4   6.01343E+4
   1.90867E+4   5.97412E+4
   1.80158E+4   5.90687E+4
   1.69809E+4   5.89288E+4
   1.59999E+4   5.83056E+4
   1.49278E+4   5.79605E+4
   1.41971E+4   5.72623E+4
   1.30206E+4   5.68614E+4
   1.22234E+4   5.63173E+4
   1.12234E+4   5.55788E+4
   1.04450E+4   5.53843E+4
   9.62505E+3   5.48441E+4
   8.94474E+3   5.43520E+4
   7.83526E+3   5.36696E+4
   7.06152E+3   5.29821E+4
   6.14608E+3   5.24621E+4
   5.67635E+3   5.17883E+4
   4.86355E+3   5.12667E+4
   4.05051E+3   5.07709E+4
   3.49135E+3   4.99111E+4
   2.61042E+3   4.95015E+4
   1.93761E+3   4.89483E+4
   1.31785E+3   4.82800E+4
   6.51310E+2   4.73562E+4
   1.32860E+1   4.68505E+4
  -1.97470E+2   4.63435E+4
  -8.90434E+2   4.55361E+4
  -1.67792E+3   4.49127E+4
  -2.21642E+3   4.42574E+4
  -2.76441E+3   4.35112E+4
  -2.91798E+3   4.29355E+4
  -3.57058E+3   4.22914E+4
  -4.05233E+3   4.15203E+4
  -4.38654E+3   4.10946E+4
  -4.72259E+3   4.07610E+4
  -5.20154E+3   3.96860E+4
  -5.72884E+3   3.91581E+4
  -6.18133E+3   3.84860E+4
  -6.54289E+3   3.77541E+4
  -6.63405E+3   3.70258E+4
  -7.37171E+3   3.67138E+4
  -7.48497E+3   3.58559E+4
  -7.82991E+3   3.51227E+4
  -8.11482E+3   3.47387E+4
  -8.32462E+3   3.41344E+4
  -8.52827E+3   3.35305E+4
  -8.88556E+3   3.27325E+4
  -9.07390E+3   3.21356E+4
  -9.23824E+3   3.16339E+4
  -9.13101E+3   3.09690E+4
  -9.55490E+3   3.05683E+4
  -9.64025E+3   2.96923E+4
