 LCModel (Version 6.3-1N) Copyright: S.W. Provencher.          Ref.: Magn. Reson. Med. 30:672-679 (1993).                
 Slice_N1@17_24  28-Feb-2025 11:38:35
 27 lines in following concentration table = NCONC+1
    Conc.  %SD /Cr+PCr  Metabolite                                         
 3.34E-04   7% 2.9E-04 Mac                                                 
    9.267  17%   8.000 Cr                                                  
    0.000 999%   0.000 PCr                                                 
    9.319  23%   8.045 Ins                                                 
    6.813  27%   5.881 NAA                                                 
    9.088  26%   7.845 Tau                                                 
    0.987  69%   0.852 PCho                                                
    0.000 999%   0.000 GPC                                                 
    7.534  27%   6.504 Glu                                                 
   10.748  16%   9.279 Gln                                                 
   15.628  12%  13.491 Ala                                                 
    0.458 607%   0.396 Asc                                                 
    2.390  55%   2.064 Asp                                                 
    1.068  73%   0.922 GABA                                                
    0.641 131%   0.554 Glc                                                 
    0.000 999%   0.000 GSH                                                 
    3.010  55%   2.599 Lac                                                 
    9.217  16%   7.957 NAAG                                                
    2.904  88%   2.507 PE                                                  
    0.987  69%   0.852 GPC+PCho                                            
   16.029  10%  13.838 NAA+NAAG                                            
   18.282  15%  15.783 Glu+Gln                                             
    9.267  17%   8.000 Cr+PCr                                              
   16.029  10%  13.838 NAA+NAAG                                            
    9.267  17%   8.000 Cr+PCr                                              
   18.282  15%  15.783 Glu+Gln                                             
   6 lines in following misc. output table
  FWHM = 0.089 ppm    S/N =   2                                            
  Data shift = 0.016 ppm                                                   
  Ph: -51 deg       0.0 deg/ppm                                            
  alphaB,S = 1.6E-01,   2.1E+01                                            
   19 spline knots.   Ns =11(1)                                            
  (14) 5 infls.   (14) 6 extrs.                                            
  480 points on ppm-axis = NY
      4.100000     4.091866     4.083733     4.075600     4.067466     4.059333     4.051199     4.043066     4.034933     4.026799
      4.018666     4.010532     4.002399     3.994265     3.986132     3.977998     3.969864     3.961731     3.953597     3.945463
      3.937330     3.929196     3.921062     3.912929     3.904795     3.896662     3.888528     3.880394     3.872261     3.864127
      3.855993     3.847860     3.839726     3.831592     3.823459     3.815325     3.807191     3.799058     3.790924     3.782790
      3.774657     3.766523     3.758389     3.750256     3.742122     3.733989     3.725855     3.717721     3.709588     3.701454
      3.693320     3.685187     3.677053     3.668919     3.660786     3.652652     3.644518     3.636385     3.628251     3.620117
      3.611984     3.603850     3.595716     3.587583     3.579449     3.571316     3.563182     3.555048     3.546915     3.538781
      3.530647     3.522514     3.514380     3.506246     3.498113     3.489979     3.481845     3.473712     3.465578     3.457444
      3.449311     3.441177     3.433043     3.424910     3.416776     3.408643     3.400509     3.392375     3.384242     3.376108
      3.367974     3.359841     3.351707     3.343573     3.335440     3.327306     3.319172     3.311039     3.302905     3.294771
      3.286638     3.278504     3.270370     3.262237     3.254103     3.245970     3.237836     3.229702     3.221569     3.213435
      3.205301     3.197168     3.189034     3.180900     3.172767     3.164633     3.156499     3.148366     3.140232     3.132098
      3.123965     3.115831     3.107697     3.099564     3.091430     3.083297     3.075163     3.067029     3.058896     3.050762
      3.042628     3.034495     3.026361     3.018227     3.010094     3.001960     2.993826     2.985693     2.977559     2.969425
      2.961292     2.953158     2.945024     2.936891     2.928757     2.920624     2.912490     2.904356     2.896223     2.888089
      2.879955     2.871822     2.863688     2.855554     2.847421     2.839287     2.831153     2.823020     2.814886     2.806752
      2.798619     2.790485     2.782351     2.774218     2.766084     2.757951     2.749817     2.741683     2.733550     2.725416
      2.717282     2.709149     2.701015     2.692881     2.684748     2.676614     2.668480     2.660347     2.652213     2.644079
      2.635946     2.627812     2.619678     2.611545     2.603411     2.595278     2.587144     2.579010     2.570877     2.562743
      2.554609     2.546476     2.538342     2.530208     2.522075     2.513941     2.505807     2.497674     2.489540     2.481406
      2.473273     2.465139     2.457006     2.448872     2.440738     2.432605     2.424471     2.416337     2.408204     2.400070
      2.391936     2.383803     2.375669     2.367535     2.359402     2.351268     2.343134     2.335001     2.326867     2.318733
      2.310600     2.302466     2.294333     2.286199     2.278065     2.269932     2.261798     2.253664     2.245531     2.237397
      2.229263     2.221130     2.212996     2.204862     2.196729     2.188595     2.180461     2.172328     2.164194     2.156060
      2.147927     2.139793     2.131660     2.123526     2.115392     2.107259     2.099125     2.090991     2.082858     2.074724
      2.066590     2.058457     2.050323     2.042189     2.034056     2.025922     2.017788     2.009655     2.001521     1.993387
      1.985254     1.977120     1.968987     1.960853     1.952719     1.944586     1.936452     1.928318     1.920185     1.912051
      1.903917     1.895784     1.887650     1.879516     1.871383     1.863249     1.855115     1.846982     1.838848     1.830714
      1.822581     1.814447     1.806314     1.798180     1.790046     1.781913     1.773779     1.765645     1.757512     1.749378
      1.741244     1.733111     1.724977     1.716843     1.708710     1.700576     1.692442     1.684309     1.676175     1.668041
      1.659908     1.651774     1.643641     1.635507     1.627373     1.619240     1.611106     1.602972     1.594839     1.586705
      1.578571     1.570438     1.562304     1.554170     1.546037     1.537903     1.529769     1.521636     1.513502     1.505368
      1.497235     1.489101     1.480968     1.472834     1.464700     1.456567     1.448433     1.440299     1.432166     1.424032
      1.415898     1.407765     1.399631     1.391497     1.383364     1.375230     1.367096     1.358963     1.350829     1.342695
      1.334562     1.326428     1.318295     1.310161     1.302027     1.293894     1.285760     1.277626     1.269493     1.261359
      1.253225     1.245092     1.236958     1.228824     1.220691     1.212557     1.204423     1.196290     1.188156     1.180022
      1.171889     1.163755     1.155622     1.147488     1.139354     1.131221     1.123087     1.114953     1.106820     1.098686
      1.090552     1.082419     1.074285     1.066151     1.058018     1.049884     1.041750     1.033617     1.025483     1.017349
      1.009216     1.001082     0.992949     0.984815     0.976681     0.968548     0.960414     0.952280     0.944147     0.936013
      0.927879     0.919746     0.911612     0.903478     0.895345     0.887211     0.879077     0.870944     0.862810     0.854676
      0.846543     0.838409     0.830276     0.822142     0.814008     0.805875     0.797741     0.789607     0.781474     0.773340
      0.765206     0.757073     0.748939     0.740805     0.732672     0.724538     0.716404     0.708271     0.700137     0.692003
      0.683870     0.675736     0.667603     0.659469     0.651335     0.643202     0.635068     0.626934     0.618801     0.610667
      0.602533     0.594400     0.586266     0.578132     0.569999     0.561865     0.553731     0.545598     0.537464     0.529330
      0.521197     0.513063     0.504930     0.496796     0.488662     0.480529     0.472395     0.464261     0.456128     0.447994
      0.439861     0.431727     0.423593     0.415460     0.407326     0.399192     0.391059     0.382925     0.374792     0.366658
      0.358524     0.350391     0.342257     0.334124     0.325990     0.317856     0.309723     0.301589     0.293455     0.285322
      0.277188     0.269055     0.260921     0.252787     0.244654     0.236520     0.228386     0.220253     0.212119     0.203986
 NY phased data points follow
  -1.21455E+02 -1.08244E+02 -1.17832E+02 -1.08825E+02 -1.18093E+02 -9.88041E+01 -1.06830E+02 -1.22973E+02 -1.07715E+02 -1.09693E+02
  -1.18038E+02 -1.21212E+02 -1.09794E+02 -1.19887E+02 -1.31001E+02 -1.27602E+02 -9.37022E+01 -1.03186E+02 -1.19736E+02 -1.02793E+02
  -9.01355E+01 -6.63178E+01 -7.17995E+01 -5.83943E+01 -4.71209E+01 -5.50257E+01 -8.33773E+01 -7.70258E+01 -7.05065E+01 -9.96526E+01
  -8.13089E+01 -8.80809E+01 -1.04428E+02 -1.03614E+02 -9.47009E+01 -9.27642E+01 -9.24165E+01 -1.13053E+02 -1.15011E+02 -6.87759E+01
  -6.29529E+01 -5.78258E+01 -2.92470E+01 -2.13988E+01 -4.11974E+01 -1.19286E+01 -1.50372E+01 -3.55563E+01 -3.13487E+01 -6.03985E+01
  -4.63447E+01 -5.49680E+01 -6.83064E+01 -6.73181E+01 -6.88833E+01 -5.94586E+01 -5.37756E+01 -4.53349E+01 -5.36049E+01 -4.61990E+01
  -1.84719E+01 -4.41688E+01 -7.36220E+01 -2.65160E+01 -4.87010E+01 -7.58422E+01 -5.99279E+01 -5.77735E+01 -3.97853E+01 -4.87422E+01
  -3.02170E+01 -2.05929E+01 -4.36135E+01 -4.23959E+01 -1.53446E+01 -3.03631E+01 -4.30744E+01 -3.69879E+01 -4.25891E+01 -3.25667E+01
  -5.68108E+01 -3.78736E+01 -3.20674E+01 -4.55906E+01 -2.70417E+01 -1.89457E+01 -4.53384E+00  1.28499E+00  5.43704E+00 -1.62918E+01
  -1.26977E+01 -2.84682E+00 -2.05993E+01 -1.14669E+01 -1.08335E+01 -1.91372E+01 -1.65542E+01 -4.82397E+01 -5.94714E+01 -5.29386E+01
  -7.77976E+01 -8.67320E+01 -1.08846E+02 -1.12298E+02 -1.16342E+02 -1.07689E+02 -1.04463E+02 -1.23246E+02 -1.02997E+02 -1.24254E+02
  -1.31324E+02 -8.36475E+01 -6.43330E+01 -9.89077E+01 -6.66619E+01 -4.37379E+01 -5.05445E+01 -8.81241E+00 -4.69912E+01 -3.12410E+01
   6.54514E+00 -5.03711E+00 -1.05610E+01 -1.56602E+01  9.11335E+00  1.46756E+00 -1.79221E+01 -5.09177E+01 -7.71735E+01 -8.82043E+01
  -1.05915E+02 -1.14879E+02 -1.67050E+02 -1.78714E+02 -1.16809E+02 -1.13466E+02 -1.22120E+02 -1.18628E+02 -1.24430E+02 -1.09293E+02
  -1.11358E+02 -1.04036E+02 -9.61629E+01 -1.06264E+02 -1.07129E+02 -7.57128E+01 -8.51859E+01 -8.94626E+01 -6.07888E+01 -8.93206E+01
  -7.44711E+01 -6.37589E+01 -5.99284E+01 -6.55788E+01 -7.23469E+01 -5.78471E+01 -7.07857E+01 -5.68307E+01 -6.86498E+01 -6.20145E+01
  -6.51472E+01 -5.64204E+01 -4.63999E+01 -6.60833E+01 -3.24019E+01 -3.56080E+01 -3.50683E+01 -3.80829E+01 -4.13180E+01 -2.35685E+01
  -2.41659E+01 -2.44904E+01 -4.19955E+01 -6.52095E+01 -8.15600E+01 -8.03782E+01 -7.62709E+01 -7.46178E+01 -9.56622E+01 -1.13175E+02
  -1.10708E+02 -1.16573E+02 -1.20351E+02 -1.06251E+02 -1.00122E+02 -1.09706E+02 -9.14357E+01 -9.09417E+01 -8.85892E+01 -7.81777E+01
  -6.68056E+01 -4.43402E+01 -4.91301E+01 -4.99678E+01 -3.23538E+01 -2.84167E+01 -4.12806E+01 -2.01543E+01 -2.25494E+01 -2.45745E+01
  -1.54706E+01 -4.99571E+01 -3.04422E+01 -2.76281E+01 -6.10631E+01 -4.49747E+01 -3.99680E+01 -4.33829E+01 -1.86308E+01 -1.53532E+01
  -2.38456E+01 -1.44804E+01  3.88923E+00  6.73391E+00 -2.17300E+01 -1.67836E+01 -2.56525E+01 -4.84524E+01 -5.00134E+01 -7.16290E+01
  -6.42577E+01 -7.11925E+01 -8.38611E+01 -7.09272E+01 -6.26859E+01 -5.73935E+01 -8.87522E+01 -9.03574E+01 -8.27375E+01 -1.05567E+02
  -1.13438E+02 -1.25690E+02 -1.04882E+02 -1.00807E+02 -1.22214E+02 -1.08965E+02 -1.11607E+02 -1.18765E+02 -1.08416E+02 -9.55121E+01
  -8.37563E+01 -7.08069E+01 -6.97279E+01 -5.99636E+01 -6.04041E+01 -7.54857E+01 -6.65997E+01 -6.69851E+01 -5.11742E+01 -6.51974E+01
  -5.05058E+01  8.56633E+00  7.90122E+00  4.66903E+01  8.50331E+01  1.01315E+02  1.02693E+02  1.26697E+02  1.64804E+02  9.02393E+01
   7.24755E+01  8.47741E+01  5.31828E+01  6.47469E+01  5.80362E+01  4.05258E+01  2.10564E+01  2.42569E+01  3.08986E+01  1.27188E+01
   1.29367E+01  2.97850E+01  3.14821E+01  9.23516E+00  2.21936E+01  2.60291E+01  1.33982E+01  3.37551E+01  3.54364E+01  2.71862E+01
   1.95088E+01  1.84131E+01  1.46625E+01 -4.78489E+00  5.52912E+00  2.03408E+01  1.50906E+01  6.19056E+00  1.38095E+01  1.20474E+01
  -1.10346E+01  1.21010E+01  2.60209E+01  3.15421E+01  5.91957E+01  6.64677E+01  8.54186E+01  1.00423E+02  1.15555E+02  1.09942E+02
   1.30026E+02  1.84289E+02  1.86113E+02  2.07101E+02  2.20996E+02  2.38161E+02  2.41468E+02  1.75715E+02  1.63087E+02  1.52278E+02
   1.06390E+02  9.16938E+01  7.06534E+01  4.96506E+01  3.68176E+01  2.26347E+01  3.62362E+00 -2.56964E+01 -2.08375E+01 -2.06463E+01
  -3.26347E+01 -1.57094E+01 -2.61472E+01 -4.76721E+01 -4.45629E+01 -4.01508E+01 -4.50578E+01 -3.57273E+01 -4.10864E+01 -6.70433E+01
  -6.57927E+01 -5.87246E+01 -5.02230E+01 -5.92041E+01 -5.26232E+01 -3.91180E+01 -5.09912E+01 -2.94193E+01 -2.31229E+01 -2.84506E+01
  -1.56891E+01 -1.22691E+01  7.93788E-01  5.67801E+00 -8.32049E+00 -3.16025E+00 -1.32379E+00 -1.04967E+01  9.10056E+00 -5.13964E+00
  -1.69211E+01 -6.82627E+00 -2.61378E+01 -2.22273E+01 -4.02377E+01 -4.33492E+01 -3.14487E+01 -5.60393E+01 -5.07582E+01 -3.07760E+01
  -2.57586E+01 -3.99496E+01 -2.79311E+01 -2.05608E+01 -1.25274E+01  7.90552E+00  8.88150E+00  1.57764E+01  4.85424E+00  2.56102E+01
   2.09578E+01  1.78335E+01  4.10188E+01  3.66311E+01  5.52973E+01  5.75528E+01  5.97632E+01  4.44339E+01  5.56472E+01  8.12079E+01
   8.13817E+01  8.18915E+01  7.41367E+01  8.90135E+01  6.81204E+01  5.96833E+01  5.58113E+01  4.76970E+01  4.92201E+01  2.78309E+01
   1.89034E+01  7.49357E+00  3.22154E+00 -1.80654E+01 -3.45805E+01 -3.58424E+01 -4.51435E+01 -4.84464E+01 -4.41672E+01 -5.76750E+01
  -6.25538E+01 -6.18242E+01 -7.66548E+01 -6.56222E+01 -7.88606E+01 -5.97482E+01 -6.07993E+01 -7.73911E+01 -5.81379E+01 -8.01009E+01
  -6.52623E+01 -6.69024E+01 -7.03290E+01 -6.22992E+01 -6.33713E+01 -5.30822E+01 -7.17642E+01 -5.35236E+01 -4.50016E+01 -5.38019E+01
  -4.59848E+01 -6.95133E+01 -6.39103E+01 -4.77563E+01 -5.29605E+01 -4.07137E+01 -5.32521E+01 -5.86315E+01 -5.96437E+01 -6.57948E+01
  -7.03989E+01 -7.03970E+01 -2.94780E+01 -4.20662E+01 -5.76739E+01 -5.21552E+01 -6.82659E+01 -5.54115E+01 -5.28020E+01 -5.61451E+01
  -4.50327E+01 -4.63091E+01 -4.34030E+01 -5.75350E+01 -7.17513E+01 -3.38753E+01 -5.44788E+01 -5.87361E+01 -3.32952E+01 -4.80427E+01
  -4.04650E+01 -5.82105E+01 -4.36840E+01 -3.36667E+01 -3.70025E+01 -4.33360E+01 -5.19519E+01 -3.14218E+01 -3.42459E+01 -2.96369E+01
  -4.84208E+01 -6.08058E+01 -5.33166E+01 -5.56772E+01 -6.23996E+01 -4.78088E+01 -2.95265E+01 -3.53875E+01 -4.88850E+01 -5.00505E+01
  -1.91415E+01 -4.20428E+01 -5.36221E+01 -4.02908E+01 -3.61145E+01 -4.22113E+01 -4.81857E+01 -2.68901E+01 -4.81414E+01 -5.61148E+01
 NY points of the fit to the data follow
  -1.10217E+02 -1.10980E+02 -1.11010E+02 -1.10236E+02 -1.08579E+02 -1.06761E+02 -1.06580E+02 -1.08627E+02 -1.11611E+02 -1.13787E+02
  -1.16352E+02 -1.22790E+02 -1.28133E+02 -1.24898E+02 -1.18779E+02 -1.13793E+02 -1.09794E+02 -1.06105E+02 -1.01342E+02 -9.46255E+01
  -8.61533E+01 -7.63435E+01 -6.50479E+01 -5.48996E+01 -5.26508E+01 -5.82006E+01 -6.67698E+01 -7.24529E+01 -7.84633E+01 -8.50491E+01
  -9.12247E+01 -9.47204E+01 -9.71309E+01 -9.86820E+01 -1.01060E+02 -1.00869E+02 -9.63291E+01 -8.94677E+01 -8.11770E+01 -7.22071E+01
  -6.30710E+01 -5.42981E+01 -4.69337E+01 -4.16548E+01 -3.86937E+01 -3.85294E+01 -3.86298E+01 -3.83046E+01 -4.12938E+01 -4.46551E+01
  -4.57980E+01 -4.99968E+01 -5.43011E+01 -5.65856E+01 -5.76423E+01 -5.78042E+01 -5.50152E+01 -5.10440E+01 -5.07355E+01 -5.28067E+01
  -5.18216E+01 -5.19470E+01 -5.50290E+01 -5.63746E+01 -5.64377E+01 -5.74558E+01 -5.76171E+01 -5.55548E+01 -5.21101E+01 -4.54925E+01
  -3.66538E+01 -2.99230E+01 -2.80197E+01 -2.99870E+01 -3.35131E+01 -3.90454E+01 -4.46786E+01 -4.84435E+01 -5.00040E+01 -4.97855E+01
  -4.85841E+01 -4.73102E+01 -4.47931E+01 -3.94935E+01 -3.27691E+01 -2.60860E+01 -1.97881E+01 -1.44446E+01 -1.09621E+01 -8.86926E+00
  -5.48762E+00 -1.88198E+00 -1.39077E+00 -1.38506E+00 -4.77568E+00 -1.20822E+01 -2.07782E+01 -3.01526E+01 -4.03633E+01 -5.54689E+01
  -7.13420E+01 -8.53049E+01 -9.74703E+01 -1.05763E+02 -1.09712E+02 -1.11364E+02 -1.11355E+02 -1.09970E+02 -1.08220E+02 -1.05837E+02
  -9.96582E+01 -8.92707E+01 -7.82385E+01 -6.86103E+01 -6.07564E+01 -5.38940E+01 -4.68151E+01 -4.04791E+01 -3.30043E+01 -2.18029E+01
  -2.71338E+00  8.81059E+00  4.34373E+00 -4.41911E+00 -1.43870E+01 -2.56100E+01 -3.58068E+01 -4.59673E+01 -5.87017E+01 -7.38410E+01
  -9.01788E+01 -1.08173E+02 -1.22575E+02 -1.24488E+02 -1.17289E+02 -1.12178E+02 -1.11972E+02 -1.12876E+02 -1.13952E+02 -1.15883E+02
  -1.17754E+02 -1.17926E+02 -1.14032E+02 -1.05588E+02 -9.95807E+01 -9.68432E+01 -9.45135E+01 -9.26175E+01 -9.07486E+01 -8.85822E+01
  -8.60876E+01 -8.36389E+01 -8.17630E+01 -8.04758E+01 -7.94033E+01 -7.75879E+01 -7.54128E+01 -7.33127E+01 -7.17498E+01 -7.02383E+01
  -6.72399E+01 -6.27279E+01 -5.85971E+01 -5.60202E+01 -5.41538E+01 -5.28360E+01 -5.12128E+01 -4.96675E+01 -4.92277E+01 -4.94395E+01
  -5.04684E+01 -5.34009E+01 -5.81920E+01 -6.28301E+01 -6.55572E+01 -6.70147E+01 -6.88717E+01 -7.20502E+01 -7.61445E+01 -7.95199E+01
  -8.03975E+01 -8.17615E+01 -8.37517E+01 -8.32204E+01 -8.08308E+01 -7.84939E+01 -7.73286E+01 -7.56658E+01 -7.34628E+01 -7.10252E+01
  -6.84167E+01 -6.62799E+01 -6.27468E+01 -5.71456E+01 -5.12965E+01 -4.58813E+01 -4.05716E+01 -3.56557E+01 -3.14674E+01 -2.87832E+01
  -2.76262E+01 -2.77479E+01 -2.88044E+01 -3.13458E+01 -3.70003E+01 -4.02478E+01 -4.12989E+01 -4.06536E+01 -3.77200E+01 -3.36636E+01
  -2.86378E+01 -2.40251E+01 -2.01521E+01 -1.74583E+01 -1.63834E+01 -1.64526E+01 -1.89471E+01 -2.41984E+01 -3.05742E+01 -3.78941E+01
  -4.66499E+01 -5.68348E+01 -6.65767E+01 -7.68893E+01 -8.82719E+01 -9.60182E+01 -1.03281E+02 -1.09632E+02 -1.12854E+02 -1.15145E+02
  -1.17464E+02 -1.16194E+02 -1.13773E+02 -1.09551E+02 -1.04089E+02 -9.83031E+01 -9.27995E+01 -8.88229E+01 -8.54787E+01 -8.16722E+01
  -7.97319E+01 -8.31022E+01 -9.08761E+01 -8.67407E+01 -7.95138E+01 -7.76961E+01 -7.90271E+01 -7.01089E+01 -5.49282E+01 -3.78077E+01
  -1.72156E+01  4.33772E+00  2.56065E+01  4.73950E+01  6.25261E+01  6.54116E+01  6.76744E+01  7.66267E+01  8.26660E+01  7.93680E+01
   7.40232E+01  7.33497E+01  7.51818E+01  7.44384E+01  7.02042E+01  6.56259E+01  6.63996E+01  6.66429E+01  6.40062E+01  6.06172E+01
   6.08159E+01  6.16674E+01  6.25271E+01  6.30364E+01  6.30512E+01  6.24782E+01  6.14530E+01  6.00733E+01  5.82720E+01  5.60685E+01
   5.35349E+01  5.08594E+01  4.83484E+01  4.59926E+01  4.39501E+01  4.23034E+01  4.11858E+01  4.08498E+01  4.11557E+01  4.21822E+01
   4.38785E+01  4.61064E+01  4.86655E+01  5.14592E+01  5.45324E+01  5.78018E+01  6.13597E+01  6.51245E+01  6.90387E+01  7.31846E+01
   7.74997E+01  8.18254E+01  8.62672E+01  9.07194E+01  9.51060E+01  9.95414E+01  1.04303E+02  1.09502E+02  1.15604E+02  1.22436E+02
   1.20180E+02  1.09822E+02  9.53825E+01  7.00574E+01  4.42534E+01  2.16807E+01 -3.89523E-01 -2.23995E+01 -4.31623E+01 -6.25794E+01
  -7.96196E+01 -8.89643E+01 -8.78745E+01 -8.12325E+01 -7.24594E+01 -6.34824E+01 -5.86088E+01 -5.81647E+01 -5.70734E+01 -5.21808E+01
  -4.58060E+01 -3.77389E+01 -2.83246E+01 -2.27908E+01 -1.85320E+01 -1.57478E+01 -1.70070E+01 -1.79611E+01 -1.92179E+01 -2.14664E+01
  -2.48682E+01 -2.82676E+01 -3.05980E+01 -3.19047E+01 -3.24563E+01 -3.28342E+01 -3.37636E+01 -3.53276E+01 -3.67183E+01 -3.72692E+01
  -3.68371E+01 -3.50984E+01 -3.20908E+01 -2.87727E+01 -2.52747E+01 -2.18668E+01 -1.90324E+01 -1.59749E+01 -1.27149E+01 -9.30495E+00
  -5.62784E+00 -1.61886E+00  2.53281E+00  6.90313E+00  1.17557E+01  1.69461E+01  2.24613E+01  2.85036E+01  3.51911E+01  4.24325E+01
   5.02281E+01  5.83905E+01  6.64528E+01  7.38865E+01  8.01645E+01  8.47716E+01  8.75259E+01  8.86333E+01  8.80639E+01  8.58619E+01
   8.21813E+01  7.71372E+01  7.07076E+01  6.32778E+01  5.52410E+01  4.67837E+01  3.83826E+01  3.00991E+01  2.16622E+01  1.29840E+01
   4.29594E+00 -4.17748E+00 -1.22356E+01 -1.94100E+01 -2.54217E+01 -3.03383E+01 -3.42789E+01 -3.74689E+01 -4.01700E+01 -4.26349E+01
  -4.48071E+01 -4.66604E+01 -4.81665E+01 -4.94211E+01 -5.04013E+01 -5.09801E+01 -5.12594E+01 -5.14398E+01 -5.16278E+01 -5.17785E+01
  -5.19024E+01 -5.20085E+01 -5.21594E+01 -5.23292E+01 -5.23529E+01 -5.22543E+01 -5.21404E+01 -5.21258E+01 -5.21657E+01 -5.21524E+01
  -5.21133E+01 -5.20592E+01 -5.20544E+01 -5.19345E+01 -5.17479E+01 -5.15944E+01 -5.15451E+01 -5.14503E+01 -5.12404E+01 -5.10528E+01
  -5.09101E+01 -5.07789E+01 -5.06398E+01 -5.05155E+01 -5.04232E+01 -5.03350E+01 -5.02960E+01 -5.02608E+01 -5.01755E+01 -5.00656E+01
  -4.99460E+01 -4.97458E+01 -4.95493E+01 -4.94078E+01 -4.92964E+01 -4.91770E+01 -4.90519E+01 -4.89375E+01 -4.88387E+01 -4.87537E+01
  -4.87003E+01 -4.87141E+01 -4.87063E+01 -4.86828E+01 -4.86214E+01 -4.85867E+01 -4.85952E+01 -4.86814E+01 -4.87840E+01 -4.88744E+01
  -4.90093E+01 -4.92203E+01 -4.94397E+01 -4.97375E+01 -5.01896E+01 -5.07408E+01 -5.12826E+01 -5.18521E+01 -5.23091E+01 -5.27298E+01
  -5.31691E+01 -5.36752E+01 -5.41971E+01 -5.47241E+01 -5.53430E+01 -5.60654E+01 -5.67686E+01 -5.74608E+01 -5.82677E+01 -5.92968E+01
 NY background values follow
    -7.992E+01   -7.958E+01   -7.923E+01   -7.888E+01   -7.854E+01   -7.819E+01   -7.785E+01   -7.750E+01   -7.716E+01   -7.681E+01
    -7.647E+01   -7.612E+01   -7.578E+01   -7.543E+01   -7.509E+01   -7.474E+01   -7.440E+01   -7.405E+01   -7.371E+01   -7.337E+01
    -7.302E+01   -7.268E+01   -7.234E+01   -7.199E+01   -7.165E+01   -7.131E+01   -7.097E+01   -7.063E+01   -7.029E+01   -6.994E+01
    -6.960E+01   -6.926E+01   -6.892E+01   -6.859E+01   -6.825E+01   -6.791E+01   -6.757E+01   -6.723E+01   -6.690E+01   -6.656E+01
    -6.623E+01   -6.589E+01   -6.556E+01   -6.522E+01   -6.489E+01   -6.456E+01   -6.423E+01   -6.390E+01   -6.357E+01   -6.324E+01
    -6.292E+01   -6.259E+01   -6.227E+01   -6.194E+01   -6.162E+01   -6.130E+01   -6.098E+01   -6.066E+01   -6.034E+01   -6.003E+01
    -5.971E+01   -5.940E+01   -5.908E+01   -5.877E+01   -5.846E+01   -5.815E+01   -5.785E+01   -5.754E+01   -5.723E+01   -5.693E+01
    -5.663E+01   -5.633E+01   -5.602E+01   -5.572E+01   -5.543E+01   -5.513E+01   -5.483E+01   -5.453E+01   -5.424E+01   -5.394E+01
    -5.365E+01   -5.336E+01   -5.307E+01   -5.278E+01   -5.249E+01   -5.220E+01   -5.191E+01   -5.162E+01   -5.133E+01   -5.104E+01
    -5.076E+01   -5.047E+01   -5.019E+01   -4.990E+01   -4.962E+01   -4.933E+01   -4.905E+01   -4.877E+01   -4.849E+01   -4.820E+01
    -4.792E+01   -4.764E+01   -4.736E+01   -4.708E+01   -4.680E+01   -4.652E+01   -4.624E+01   -4.596E+01   -4.568E+01   -4.540E+01
    -4.512E+01   -4.484E+01   -4.456E+01   -4.428E+01   -4.400E+01   -4.372E+01   -4.344E+01   -4.316E+01   -4.288E+01   -4.260E+01
    -4.232E+01   -4.204E+01   -4.176E+01   -4.148E+01   -4.120E+01   -4.093E+01   -4.065E+01   -4.037E+01   -4.009E+01   -3.981E+01
    -3.953E+01   -3.926E+01   -3.898E+01   -3.871E+01   -3.843E+01   -3.816E+01   -3.789E+01   -3.762E+01   -3.735E+01   -3.708E+01
    -3.682E+01   -3.655E+01   -3.629E+01   -3.603E+01   -3.577E+01   -3.551E+01   -3.526E+01   -3.500E+01   -3.475E+01   -3.450E+01
    -3.426E+01   -3.401E+01   -3.377E+01   -3.353E+01   -3.329E+01   -3.306E+01   -3.282E+01   -3.259E+01   -3.236E+01   -3.214E+01
    -3.191E+01   -3.169E+01   -3.147E+01   -3.125E+01   -3.103E+01   -3.082E+01   -3.060E+01   -3.039E+01   -3.018E+01   -2.997E+01
    -2.976E+01   -2.955E+01   -2.935E+01   -2.914E+01   -2.894E+01   -2.874E+01   -2.854E+01   -2.834E+01   -2.814E+01   -2.795E+01
    -2.775E+01   -2.756E+01   -2.736E+01   -2.717E+01   -2.698E+01   -2.679E+01   -2.660E+01   -2.641E+01   -2.622E+01   -2.603E+01
    -2.585E+01   -2.566E+01   -2.548E+01   -2.529E+01   -2.511E+01   -2.493E+01   -2.475E+01   -2.457E+01   -2.439E+01   -2.422E+01
    -2.404E+01   -2.387E+01   -2.369E+01   -2.352E+01   -2.335E+01   -2.318E+01   -2.301E+01   -2.284E+01   -2.267E+01   -2.250E+01
    -2.234E+01   -2.217E+01   -2.201E+01   -2.184E+01   -2.168E+01   -2.152E+01   -2.136E+01   -2.120E+01   -2.105E+01   -2.089E+01
    -2.073E+01   -2.058E+01   -2.043E+01   -2.027E+01   -2.012E+01   -1.997E+01   -1.983E+01   -1.968E+01   -1.953E+01   -1.939E+01
    -1.925E+01   -1.910E+01   -1.896E+01   -1.882E+01   -1.868E+01   -1.855E+01   -1.841E+01   -1.828E+01   -1.814E+01   -1.801E+01
    -1.788E+01   -1.775E+01   -1.763E+01   -1.750E+01   -1.737E+01   -1.725E+01   -1.713E+01   -1.700E+01   -1.688E+01   -1.676E+01
    -1.664E+01   -1.652E+01   -1.639E+01   -1.627E+01   -1.615E+01   -1.603E+01   -1.591E+01   -1.579E+01   -1.567E+01   -1.555E+01
    -1.542E+01   -1.530E+01   -1.518E+01   -1.505E+01   -1.492E+01   -1.480E+01   -1.467E+01   -1.454E+01   -1.441E+01   -1.428E+01
    -1.414E+01   -1.401E+01   -1.387E+01   -1.374E+01   -1.360E+01   -1.346E+01   -1.332E+01   -1.319E+01   -1.305E+01   -1.292E+01
    -1.278E+01   -1.265E+01   -1.253E+01   -1.240E+01   -1.228E+01   -1.216E+01   -1.204E+01   -1.193E+01   -1.182E+01   -1.172E+01
    -1.162E+01   -1.153E+01   -1.144E+01   -1.136E+01   -1.128E+01   -1.121E+01   -1.115E+01   -1.110E+01   -1.105E+01   -1.101E+01
    -1.098E+01   -1.096E+01   -1.095E+01   -1.094E+01   -1.095E+01   -1.096E+01   -1.098E+01   -1.100E+01   -1.104E+01   -1.108E+01
    -1.113E+01   -1.119E+01   -1.126E+01   -1.134E+01   -1.142E+01   -1.151E+01   -1.161E+01   -1.171E+01   -1.183E+01   -1.195E+01
    -1.208E+01   -1.221E+01   -1.236E+01   -1.251E+01   -1.267E+01   -1.283E+01   -1.301E+01   -1.319E+01   -1.337E+01   -1.357E+01
    -1.377E+01   -1.398E+01   -1.419E+01   -1.441E+01   -1.464E+01   -1.487E+01   -1.511E+01   -1.535E+01   -1.560E+01   -1.585E+01
    -1.611E+01   -1.636E+01   -1.663E+01   -1.689E+01   -1.716E+01   -1.742E+01   -1.769E+01   -1.797E+01   -1.824E+01   -1.851E+01
    -1.879E+01   -1.906E+01   -1.933E+01   -1.960E+01   -1.988E+01   -2.015E+01   -2.041E+01   -2.068E+01   -2.094E+01   -2.121E+01
    -2.146E+01   -2.172E+01   -2.197E+01   -2.222E+01   -2.246E+01   -2.270E+01   -2.294E+01   -2.317E+01   -2.340E+01   -2.363E+01
    -2.385E+01   -2.406E+01   -2.428E+01   -2.448E+01   -2.468E+01   -2.488E+01   -2.507E+01   -2.526E+01   -2.544E+01   -2.562E+01
    -2.579E+01   -2.595E+01   -2.611E+01   -2.626E+01   -2.641E+01   -2.655E+01   -2.669E+01   -2.682E+01   -2.694E+01   -2.705E+01
    -2.716E+01   -2.726E+01   -2.736E+01   -2.745E+01   -2.753E+01   -2.760E+01   -2.767E+01   -2.773E+01   -2.779E+01   -2.783E+01
    -2.788E+01   -2.791E+01   -2.794E+01   -2.796E+01   -2.797E+01   -2.798E+01   -2.798E+01   -2.797E+01   -2.796E+01   -2.794E+01
    -2.791E+01   -2.788E+01   -2.784E+01   -2.779E+01   -2.774E+01   -2.768E+01   -2.761E+01   -2.754E+01   -2.745E+01   -2.737E+01
    -2.727E+01   -2.717E+01   -2.706E+01   -2.695E+01   -2.683E+01   -2.670E+01   -2.657E+01   -2.643E+01   -2.629E+01   -2.614E+01
    -2.598E+01   -2.582E+01   -2.566E+01   -2.549E+01   -2.531E+01   -2.513E+01   -2.495E+01   -2.476E+01   -2.457E+01   -2.437E+01
    -2.417E+01   -2.396E+01   -2.375E+01   -2.354E+01   -2.332E+01   -2.310E+01   -2.288E+01   -2.266E+01   -2.243E+01   -2.220E+01
    -2.196E+01   -2.173E+01   -2.149E+01   -2.125E+01   -2.100E+01   -2.076E+01   -2.051E+01   -2.026E+01   -2.001E+01   -1.976E+01
    -1.951E+01   -1.925E+01   -1.899E+01   -1.874E+01   -1.848E+01   -1.822E+01   -1.795E+01   -1.769E+01   -1.743E+01   -1.716E+01
    -1.690E+01   -1.664E+01   -1.637E+01   -1.611E+01   -1.584E+01   -1.557E+01   -1.531E+01   -1.504E+01   -1.478E+01   -1.451E+01
 Mac      Conc. = 3.34E-04
  -1.10782E+02 -1.12065E+02 -1.13461E+02 -1.14334E+02 -1.14506E+02 -1.14241E+02 -1.13469E+02 -1.12177E+02 -1.10669E+02 -1.08969E+02
  -1.07029E+02 -1.04682E+02 -1.01930E+02 -9.87772E+01 -9.56356E+01 -9.29685E+01 -9.06665E+01 -8.84250E+01 -8.62372E+01 -8.42341E+01
  -8.23002E+01 -8.02945E+01 -7.83150E+01 -7.63802E+01 -7.45644E+01 -7.30208E+01 -7.16966E+01 -7.04758E+01 -6.93032E+01 -6.79808E+01
  -6.63724E+01 -6.46456E+01 -6.29133E+01 -6.14153E+01 -6.02799E+01 -5.96757E+01 -5.93670E+01 -5.90054E+01 -5.86249E+01 -5.83706E+01
  -5.83460E+01 -5.85564E+01 -5.88625E+01 -5.90062E+01 -5.90529E+01 -5.89374E+01 -5.83846E+01 -5.74471E+01 -5.64523E+01 -5.54979E+01
  -5.47181E+01 -5.40286E+01 -5.33618E+01 -5.27031E+01 -5.23331E+01 -5.21432E+01 -5.17746E+01 -5.11307E+01 -5.04136E+01 -4.95376E+01
  -4.83615E+01 -4.70458E+01 -4.56751E+01 -4.43824E+01 -4.32652E+01 -4.22298E+01 -4.12525E+01 -4.05912E+01 -4.02998E+01 -4.00790E+01
  -3.98294E+01 -3.93924E+01 -3.88410E+01 -3.81228E+01 -3.72620E+01 -3.62691E+01 -3.52142E+01 -3.42337E+01 -3.33182E+01 -3.23130E+01
  -3.14326E+01 -3.08123E+01 -3.04218E+01 -3.03197E+01 -3.05537E+01 -3.09778E+01 -3.15600E+01 -3.24592E+01 -3.36812E+01 -3.52210E+01
  -3.72591E+01 -3.98895E+01 -4.32049E+01 -4.70415E+01 -5.10415E+01 -5.50900E+01 -5.89225E+01 -6.25347E+01 -6.56917E+01 -6.82715E+01
  -7.01658E+01 -7.13341E+01 -7.15210E+01 -7.06785E+01 -6.89954E+01 -6.69174E+01 -6.47207E+01 -6.24747E+01 -6.00611E+01 -5.73107E+01
