 LCModel (Version 6.3-1N) Copyright: S.W. Provencher.          Ref.: Magn. Reson. Med. 30:672-679 (1993).                
 Slice_N1@10_19  28-Feb-2025 11:36:38
 27 lines in following concentration table = NCONC+1
    Conc.  %SD /Cr+PCr  Metabolite                                         
 2.99E-04   3% 3.7E-04 Mac                                                 
    3.290  26%   4.098 Cr                                                  
    3.132  27%   3.902 PCr                                                 
    4.643  15%   5.784 Ins                                                 
    7.770   8%   9.680 NAA                                                 
    6.178  11%   7.697 Tau                                                 
    0.000 999%   0.000 PCho                                                
    1.481  15%   1.845 GPC                                                 
    8.597  10%  10.710 Glu                                                 
    5.168  13%   6.438 Gln                                                 
    0.000 999%   0.000 Ala                                                 
    4.050  23%   5.045 Asc                                                 
    2.399  33%   2.988 Asp                                                 
    0.000 999%   0.000 GABA                                                
    0.768  74%   0.956 Glc                                                 
    1.438  29%   1.792 GSH                                                 
    1.574  33%   1.961 Lac                                                 
    1.283  32%   1.598 NAAG                                                
    1.264  67%   1.575 PE                                                  
    1.481  15%   1.845 GPC+PCho                                            
    9.053   7%  11.279 NAA+NAAG                                            
   13.765   8%  17.148 Glu+Gln                                             
    6.422   9%   8.000 Cr+PCr                                              
    9.053   7%  11.279 NAA+NAAG                                            
    6.422   9%   8.000 Cr+PCr                                              
   13.765   8%  17.148 Glu+Gln                                             
   6 lines in following misc. output table
  FWHM = 0.024 ppm    S/N =   4                                            
  Data shift = 0.033 ppm                                                   
  Ph:-124 deg       0.0 deg/ppm                                            
  alphaB,S = 3.1E+01,   7.9E-01                                            
   19 spline knots.   Ns = 5(1)                                            
   2 inflections.     2 extrema                                            
  480 points on ppm-axis = NY
      4.100000     4.091866     4.083733     4.075600     4.067466     4.059333     4.051199     4.043066     4.034933     4.026799
      4.018666     4.010532     4.002399     3.994265     3.986132     3.977998     3.969864     3.961731     3.953597     3.945463
      3.937330     3.929196     3.921062     3.912929     3.904795     3.896662     3.888528     3.880394     3.872261     3.864127
      3.855993     3.847860     3.839726     3.831592     3.823459     3.815325     3.807191     3.799058     3.790924     3.782790
      3.774657     3.766523     3.758389     3.750256     3.742122     3.733989     3.725855     3.717721     3.709588     3.701454
      3.693320     3.685187     3.677053     3.668919     3.660786     3.652652     3.644518     3.636385     3.628251     3.620117
      3.611984     3.603850     3.595716     3.587583     3.579449     3.571316     3.563182     3.555048     3.546915     3.538781
      3.530647     3.522514     3.514380     3.506246     3.498113     3.489979     3.481845     3.473712     3.465578     3.457444
      3.449311     3.441177     3.433043     3.424910     3.416776     3.408643     3.400509     3.392375     3.384242     3.376108
      3.367974     3.359841     3.351707     3.343573     3.335440     3.327306     3.319172     3.311039     3.302905     3.294771
      3.286638     3.278504     3.270370     3.262237     3.254103     3.245970     3.237836     3.229702     3.221569     3.213435
      3.205301     3.197168     3.189034     3.180900     3.172767     3.164633     3.156499     3.148366     3.140232     3.132098
      3.123965     3.115831     3.107697     3.099564     3.091430     3.083297     3.075163     3.067029     3.058896     3.050762
      3.042628     3.034495     3.026361     3.018227     3.010094     3.001960     2.993826     2.985693     2.977559     2.969425
      2.961292     2.953158     2.945024     2.936891     2.928757     2.920624     2.912490     2.904356     2.896223     2.888089
      2.879955     2.871822     2.863688     2.855554     2.847421     2.839287     2.831153     2.823020     2.814886     2.806752
      2.798619     2.790485     2.782351     2.774218     2.766084     2.757951     2.749817     2.741683     2.733550     2.725416
      2.717282     2.709149     2.701015     2.692881     2.684748     2.676614     2.668480     2.660347     2.652213     2.644079
      2.635946     2.627812     2.619678     2.611545     2.603411     2.595278     2.587144     2.579010     2.570877     2.562743
      2.554609     2.546476     2.538342     2.530208     2.522075     2.513941     2.505807     2.497674     2.489540     2.481406
      2.473273     2.465139     2.457006     2.448872     2.440738     2.432605     2.424471     2.416337     2.408204     2.400070
      2.391936     2.383803     2.375669     2.367535     2.359402     2.351268     2.343134     2.335001     2.326867     2.318733
      2.310600     2.302466     2.294333     2.286199     2.278065     2.269932     2.261798     2.253664     2.245531     2.237397
      2.229263     2.221130     2.212996     2.204862     2.196729     2.188595     2.180461     2.172328     2.164194     2.156060
      2.147927     2.139793     2.131660     2.123526     2.115392     2.107259     2.099125     2.090991     2.082858     2.074724
      2.066590     2.058457     2.050323     2.042189     2.034056     2.025922     2.017788     2.009655     2.001521     1.993387
      1.985254     1.977120     1.968987     1.960853     1.952719     1.944586     1.936452     1.928318     1.920185     1.912051
      1.903917     1.895784     1.887650     1.879516     1.871383     1.863249     1.855115     1.846982     1.838848     1.830714
      1.822581     1.814447     1.806314     1.798180     1.790046     1.781913     1.773779     1.765645     1.757512     1.749378
      1.741244     1.733111     1.724977     1.716843     1.708710     1.700576     1.692442     1.684309     1.676175     1.668041
      1.659908     1.651774     1.643641     1.635507     1.627373     1.619240     1.611106     1.602972     1.594839     1.586705
      1.578571     1.570438     1.562304     1.554170     1.546037     1.537903     1.529769     1.521636     1.513502     1.505368
      1.497235     1.489101     1.480968     1.472834     1.464700     1.456567     1.448433     1.440299     1.432166     1.424032
      1.415898     1.407765     1.399631     1.391497     1.383364     1.375230     1.367096     1.358963     1.350829     1.342695
      1.334562     1.326428     1.318295     1.310161     1.302027     1.293894     1.285760     1.277626     1.269493     1.261359
      1.253225     1.245092     1.236958     1.228824     1.220691     1.212557     1.204423     1.196290     1.188156     1.180022
      1.171889     1.163755     1.155622     1.147488     1.139354     1.131221     1.123087     1.114953     1.106820     1.098686
      1.090552     1.082419     1.074285     1.066151     1.058018     1.049884     1.041750     1.033617     1.025483     1.017349
      1.009216     1.001082     0.992949     0.984815     0.976681     0.968548     0.960414     0.952280     0.944147     0.936013
      0.927879     0.919746     0.911612     0.903478     0.895345     0.887211     0.879077     0.870944     0.862810     0.854676
      0.846543     0.838409     0.830276     0.822142     0.814008     0.805875     0.797741     0.789607     0.781474     0.773340
      0.765206     0.757073     0.748939     0.740805     0.732672     0.724538     0.716404     0.708271     0.700137     0.692003
      0.683870     0.675736     0.667603     0.659469     0.651335     0.643202     0.635068     0.626934     0.618801     0.610667
      0.602533     0.594400     0.586266     0.578132     0.569999     0.561865     0.553731     0.545598     0.537464     0.529330
      0.521197     0.513063     0.504930     0.496796     0.488662     0.480529     0.472395     0.464261     0.456128     0.447994
      0.439861     0.431727     0.423593     0.415460     0.407326     0.399192     0.391059     0.382925     0.374792     0.366658
      0.358524     0.350391     0.342257     0.334124     0.325990     0.317856     0.309723     0.301589     0.293455     0.285322
      0.277188     0.269055     0.260921     0.252787     0.244654     0.236520     0.228386     0.220253     0.212119     0.203986
 NY phased data points follow
  -1.70921E+01 -4.85562E+00 -4.81621E+00 -1.77518E+01  1.19769E+00  1.68075E+00 -1.62063E+01 -8.54467E+00 -1.43814E+01  3.86382E+00
  -1.02608E+01 -4.20835E+01 -2.58302E+01 -2.62318E+01 -2.14337E+01 -2.34828E+01 -2.79248E+01 -9.84199E+00 -2.89863E+01 -6.75679E+01
  -6.21714E+01 -6.50560E+01 -5.99837E+01 -2.14089E+01 -8.08000E+00  1.14810E+01  3.77159E+01  3.87813E+01  2.33168E+01  2.35028E+01
   3.75667E+01  3.09496E+01  1.52072E+01  3.20445E+01  4.39766E+01  2.94534E+01  2.99484E+01  1.30045E+01 -6.43628E+00 -2.20874E+01
  -3.85633E+01 -3.18639E+01 -3.41983E+01 -2.54514E+01 -6.28299E+00 -9.02416E+00  1.78522E+01  5.67857E+01  6.57579E+01  7.16833E+01
   5.31111E+01  3.43557E+01  4.01268E+01  4.19829E+01  2.18492E+01  3.09234E+01  3.24610E+01 -6.90579E+00  1.51193E+01  2.23913E+01
   1.51639E+01  1.48276E+01  2.52774E+01  5.83134E+01  5.71368E+01  8.58218E+01  7.64505E+01  4.59960E+01  2.52482E+01 -8.02794E-01
   7.89841E+00  1.65047E+01  3.22237E+01  2.75976E+01  4.88241E+01  6.51185E+01  7.10441E+01  9.32849E+01  6.62940E+01  7.12431E+01
   8.71702E+01  5.27156E+01  1.59954E+01  1.81389E+01  1.57770E+01  3.27770E+00  1.01301E+01  4.44814E+00  3.44244E+01  6.56077E+01
   6.95240E+01  7.14407E+01  6.66229E+01  7.56772E+01  7.95483E+01  8.55330E+01  8.19313E+01  8.75345E+01  1.05058E+02  1.11462E+02
   1.06197E+02  8.21133E+01  7.03348E+01  5.59851E+01  4.04608E+01  1.28735E+01  1.33747E+01  3.10970E+01 -6.99707E+00 -7.00694E+01
  -1.32315E+02 -1.27510E+02 -9.42790E+01 -6.72795E+01 -4.35235E+01 -3.12445E+01 -2.38336E+01 -1.15076E+01  1.69105E+01 -1.24993E+01
  -3.35474E+00  1.98994E+01  3.86973E+00  1.25206E+01  2.48702E+01  5.97727E+01  4.51248E+01  3.72231E+01  8.20052E+01  1.31943E+02
   1.73630E+02  1.41888E+02  5.02304E+01 -2.50831E+01 -5.54025E+01 -7.01155E+01 -5.75614E+01 -5.86946E+01 -5.96151E+01 -3.54450E+01
  -3.59680E+01 -4.16538E+01 -5.09049E+01 -5.31382E+01 -5.28777E+01 -5.54169E+01 -4.75602E+01 -3.28605E+01 -3.26931E+01 -3.84207E+01
  -3.55162E+01 -4.01449E+01 -2.77835E+01 -2.09492E+01 -1.89317E+01 -9.19638E+00 -1.59301E+01 -1.00032E+01 -1.15573E+01 -1.97391E+01
  -7.49785E+00  1.67471E+00 -7.98620E-03 -1.40470E+01 -1.03356E+01 -8.05623E+00 -1.76250E+00 -5.41543E+00 -2.16261E+01  3.96100E+00
  -1.07712E+01  1.98691E+01  5.64703E+01  2.97884E+01  3.07048E+01 -4.35472E+00  1.68945E+01  4.57272E+01  2.75747E+01  1.79303E+01
  -9.01746E+00 -1.50584E+01 -2.09660E+01 -1.82098E+01 -3.05819E+01 -3.03167E+01 -1.12789E+01 -1.69856E+01 -6.32063E+00 -3.37989E+00
  -1.20155E+01 -6.08712E+00  1.39455E+00  2.35320E+00  5.30693E+00 -7.47589E+00 -1.81472E+01 -3.51250E+00  1.46226E+00 -4.98644E+00
   1.87958E+00  3.55894E+00  1.35498E+01  4.53712E+01  3.96158E+01  1.42680E+01  1.53965E+01  2.14273E+01 -8.05935E+00 -2.27143E+01
  -1.92557E+01 -3.33659E+01 -9.39062E+00  6.55778E+00  9.71386E+00  4.58994E+01  7.86939E+01  7.97790E+01  6.39528E+01  5.91629E+01
   5.49489E+01  2.82961E+01  2.23665E+01  3.61762E+01  1.67541E+01  2.90275E+01  3.97172E+01  1.42108E+01  1.95761E+01  3.60182E+01
   2.17929E+01 -3.31013E+00  1.08787E+00 -1.31123E+01 -3.76312E+01 -3.52512E+01 -4.76013E+01 -7.86253E+01 -7.02842E+01 -5.04253E+01
  -5.89097E+01 -5.15619E+01 -4.19069E+01 -2.83997E+01 -8.31918E+00  1.34578E+01  5.12932E+00  9.85433E+00  2.63932E+01 -1.83395E+01
  -1.23657E+01 -3.34817E+00 -3.32082E+00  1.77806E+01 -4.25511E+01 -8.79592E+01 -6.48553E+01 -2.67515E+00  8.57934E+01  1.47256E+02
   1.65074E+02  1.71403E+02  1.65410E+02  1.35312E+02  1.25896E+02  1.00917E+02  8.57858E+01  1.17325E+02  1.00020E+02  8.36687E+01
   9.93581E+01  9.04776E+01  8.82497E+01  8.95309E+01  8.02524E+01  9.17799E+01  1.07126E+02  8.64874E+01  7.76386E+01  9.33640E+01
   8.49043E+01  8.02059E+01  8.65586E+01  6.97805E+01  6.98701E+01  6.42342E+01  5.13189E+01  6.41044E+01  5.07743E+01  7.30134E+01
   6.89814E+01  4.39229E+01  5.56785E+01  4.00299E+01  6.29238E+01  5.64906E+01  4.85732E+01  4.36830E+01  3.13536E+01  4.13723E+01
   2.40909E+01  5.22110E+01  4.94979E+01  4.61626E+01  4.71656E+01  5.40858E+01  7.74622E+01  5.00446E+01  6.82330E+01  6.09443E+01
   4.54014E+01  4.23795E+01  4.88521E+01  7.15231E+01  4.79905E+01  6.70978E+01  7.92047E+01  7.79124E+01  1.09851E+02  1.21353E+02
   1.27362E+02  1.35433E+02  1.29109E+02  1.33592E+02  1.16864E+02  8.48107E+01  9.25720E+01  7.30920E+01  5.36050E+01  4.42419E+01
   2.95714E+01  2.17974E+01 -4.77393E+00 -1.45488E+01 -1.83865E+01 -2.55746E+00  3.34193E+00  1.14856E+01  3.58244E+01  1.38010E+01
   8.47158E+00  3.59317E+00 -1.21500E+01 -4.29604E+00  5.93650E+00  5.29805E+00  9.61783E+00  3.18364E+01  2.12503E+01  4.50115E+01
   7.21536E+01  5.01442E+01  6.38244E+01  6.13228E+01  4.71760E+01  3.62925E+01  2.84976E+01  1.74909E+01  8.08180E+00  2.05017E+01
  -9.19136E-01  8.80422E+00  1.46664E+01  1.63605E+01  4.16723E+01  2.79067E+01  3.19924E+01  2.88727E+01  2.84836E+01  4.51685E+01
   4.79193E+01  3.87643E+01  4.67695E+01  5.91404E+01  4.18361E+01  5.95047E+01  5.32663E+01  4.36690E+01  6.36013E+01  6.74328E+01
   8.33911E+01  7.10543E+01  8.20003E+01  1.10403E+02  1.01387E+02  1.05094E+02  1.20825E+02  1.29706E+02  1.27189E+02  1.30516E+02
   1.26610E+02  1.18502E+02  1.05968E+02  8.06093E+01  8.55230E+01  8.77629E+01  6.41784E+01  4.40780E+01  5.91565E+01  6.44057E+01
   3.54995E+01  3.39719E+01  1.44331E+01  9.14465E+00  1.34918E+01 -3.40586E+00 -9.30990E-01 -8.72114E+00 -4.94864E+00 -1.26015E+01
  -6.39358E+00  6.21910E+00 -9.90137E+00 -1.12927E+01  2.01898E+00  1.02186E+01 -3.01688E+00  3.53105E+00 -5.63877E+00 -1.82638E+00
   2.91959E+00 -1.40124E+01 -6.84283E+00 -1.75977E+01 -1.34101E+01 -1.90630E+01 -5.75185E+00 -2.95143E+00 -2.19572E+01 -9.12026E+00
  -1.23650E+01 -1.09871E+01 -3.36782E+00  1.20096E+01 -1.66691E+01 -1.67104E+01  7.19402E+00 -1.16482E+01 -1.51476E+01 -2.33928E+01
  -4.78218E+00  5.26026E+00  6.84602E+00 -3.39937E-01 -5.13922E-01 -9.71903E+00 -2.29904E+01  4.07090E+00 -1.39847E+01 -4.24979E+00
  -2.40000E+00 -2.77159E+00  1.05032E+01 -3.39768E+00  1.66813E+01  6.90961E+00 -8.35056E+00 -1.52875E+01 -9.40023E-01  8.00362E+00
   8.22950E+00  1.02559E+01 -1.90292E+01  3.42220E+00  1.36106E+01 -4.26167E+00 -1.12991E+01  5.84131E-01  1.21692E+01 -4.49594E+00
  -1.50733E+00 -6.71874E+00  3.50738E+00  4.52628E+00 -4.01640E+00  8.22757E-01 -4.42976E+00  1.06786E+01  1.29768E+01  6.68174E+00
 NY points of the fit to the data follow
   9.77786E-01 -5.92262E+00 -1.62168E+01 -2.05133E+01 -1.35398E+01  3.45438E-01  9.85038E+00  9.81647E+00  1.65857E+00 -8.69262E+00
  -1.86159E+01 -2.31413E+01 -2.20443E+01 -1.83843E+01 -1.39290E+01 -1.08665E+01 -9.87288E+00 -1.25452E+01 -2.75185E+01 -4.89388E+01
  -6.07762E+01 -6.35260E+01 -4.83365E+01 -1.94086E+01  5.83955E+00  2.69592E+01  3.71614E+01  4.24362E+01  4.89977E+01  4.91257E+01
   5.01439E+01  5.08732E+01  5.05862E+01  4.94801E+01  4.83233E+01  4.89453E+01  4.57182E+01  3.50895E+01  7.30884E+00 -2.33015E+01
  -4.19628E+01 -4.62439E+01 -3.88735E+01 -2.73767E+01 -1.19389E+01  8.31240E+00  2.37898E+01  3.97107E+01  5.01362E+01  5.79262E+01
   6.03678E+01  5.67504E+01  4.75420E+01  3.59896E+01  2.78869E+01  2.78826E+01  2.85477E+01  2.10820E+01  1.56178E+01  1.44887E+01
   1.53510E+01  2.13281E+01  3.03025E+01  4.42151E+01  5.95649E+01  6.85277E+01  6.93075E+01  5.37482E+01  3.07341E+01  1.71189E+01
   1.18387E+01  1.30117E+01  2.00819E+01  3.15724E+01  4.65449E+01  5.73905E+01  6.55113E+01  7.42313E+01  8.13903E+01  8.05761E+01
   7.35257E+01  5.15919E+01  2.53778E+01  3.59981E+00 -9.19739E+00 -4.61895E+00  9.02907E+00  2.33500E+01  3.87559E+01  4.50877E+01
   5.26272E+01  5.61584E+01  6.01032E+01  6.41618E+01  6.85058E+01  7.22587E+01  7.52435E+01  7.62928E+01  7.86333E+01  8.76143E+01
   9.42602E+01  9.10094E+01  8.06173E+01  5.45972E+01  3.49115E+01  2.88375E+01  3.89022E+01  3.93342E+01 -7.65988E+00 -6.86429E+01
  -1.05734E+02 -1.12670E+02 -9.07026E+01 -7.06796E+01 -4.80035E+01 -3.17381E+01 -2.37006E+01 -1.66828E+01 -1.05347E+01 -4.93296E+00
   1.01795E-01  4.95339E+00  9.95534E+00  1.59863E+01  2.40915E+01  3.41599E+01  4.28299E+01  5.85994E+01  8.42114E+01  1.34751E+02
   1.71009E+02  1.37647E+02  6.04211E+01 -1.62198E+01 -6.01148E+01 -6.59595E+01 -6.41472E+01 -5.05455E+01 -4.01492E+01 -3.89717E+01
  -4.02516E+01 -4.14568E+01 -4.28851E+01 -4.52514E+01 -4.60649E+01 -4.59737E+01 -4.43080E+01 -4.12533E+01 -3.83000E+01 -3.45357E+01
  -3.17035E+01 -2.97071E+01 -2.78295E+01 -2.50611E+01 -2.10727E+01 -1.76988E+01 -1.64000E+01 -1.64741E+01 -1.60254E+01 -1.28352E+01
  -8.27957E+00 -6.28845E+00 -7.87834E+00 -1.08850E+01 -1.22741E+01 -1.13000E+01 -1.14446E+01 -1.51439E+01 -1.95261E+01 -1.89454E+01
  -7.44987E+00  8.92340E+00  1.57468E+01  1.18472E+01  6.11272E+00  8.05145E+00  1.91919E+01  2.47709E+01  2.06490E+01  1.14776E+01
  -1.70355E-02 -8.55470E+00 -1.48802E+01 -1.95195E+01 -2.06294E+01 -2.19347E+01 -2.19347E+01 -2.07586E+01 -1.90181E+01 -1.60899E+01
  -1.48052E+01 -1.51731E+01 -1.35240E+01 -8.00985E+00 -3.82775E+00 -4.45920E+00 -4.75585E+00 -3.18512E+00 -7.90959E-01 -9.15611E-01
  -5.99926E-01  7.40072E+00  1.94788E+01  2.83991E+01  3.24619E+01  3.08369E+01  2.38409E+01  1.18604E+01 -2.02969E+00 -1.53789E+01
  -2.78752E+01 -3.36592E+01 -3.58809E+01 -2.24030E+01  6.09671E+00  3.28575E+01  5.81859E+01  6.97798E+01  6.48892E+01  5.63101E+01
   3.99367E+01  3.27840E+01  3.05646E+01  3.08636E+01  3.45459E+01  3.68881E+01  3.66045E+01  3.33756E+01  2.68781E+01  1.80029E+01
   7.05690E+00 -4.53618E+00 -1.64403E+01 -2.97039E+01 -4.19131E+01 -5.29986E+01 -6.30483E+01 -6.77147E+01 -6.96602E+01 -6.90644E+01
  -6.20548E+01 -5.35247E+01 -3.85635E+01 -2.04327E+01 -6.60148E+00  5.65672E+00  8.60458E+00  6.41097E+00  4.66447E+00 -3.20885E+00
  -8.53593E+00 -9.39684E+00 -2.56558E+00  6.73552E-02 -3.80269E+01 -9.07347E+01 -8.20589E+01 -9.14445E+00  7.82922E+01  1.35751E+02
   1.49735E+02  1.47251E+02  1.34463E+02  1.16145E+02  1.10124E+02  1.06197E+02  1.02540E+02  9.90338E+01  9.58205E+01  9.34626E+01
   9.21299E+01  9.14691E+01  9.13510E+01  9.11143E+01  9.05987E+01  8.94469E+01  8.82190E+01  8.72746E+01  8.64037E+01  8.52779E+01
   8.35127E+01  8.15894E+01  7.98004E+01  7.79500E+01  7.59532E+01  7.41069E+01  7.22093E+01  7.04470E+01  6.81995E+01  6.51240E+01
   6.16898E+01  5.72486E+01  5.18764E+01  4.62195E+01  4.12629E+01  3.83162E+01  3.75875E+01  3.86197E+01  4.06696E+01  4.31377E+01
   4.60205E+01  4.91856E+01  5.25252E+01  5.56615E+01  5.82852E+01  6.04464E+01  6.23569E+01  6.49297E+01  6.78708E+01  7.08876E+01
   7.35213E+01  7.56377E+01  7.78256E+01  8.01089E+01  8.19668E+01  8.37021E+01  8.47717E+01  8.49137E+01  8.40356E+01  8.27458E+01
   8.08846E+01  7.83981E+01  7.55383E+01  7.28945E+01  7.05180E+01  6.71341E+01  6.09195E+01  5.20504E+01  4.09988E+01  2.92826E+01
   1.77578E+01  7.31202E+00 -6.42341E-01 -5.11814E+00 -5.15068E+00 -1.37204E+00  6.33768E+00  1.57909E+01  2.69979E+01  3.21635E+01
   3.03962E+01  2.39134E+01  1.41008E+01  8.99585E+00  1.04403E+01  1.51043E+01  2.32030E+01  2.78764E+01  3.24009E+01  3.49215E+01
   3.55020E+01  3.44727E+01  3.13821E+01  2.60231E+01  1.95934E+01  1.38571E+01  9.49685E+00  7.19363E+00  6.77203E+00  7.90330E+00
   1.06293E+01  1.39870E+01  1.80878E+01  2.24153E+01  2.64955E+01  3.04220E+01  3.37881E+01  3.68822E+01  4.00628E+01  4.31300E+01
   4.61820E+01  4.91302E+01  5.18260E+01  5.46011E+01  5.79870E+01  6.18274E+01  6.59928E+01  7.10413E+01  7.68724E+01  8.31213E+01
   8.98282E+01  9.76556E+01  1.07137E+02  1.17990E+02  1.29600E+02  1.40658E+02  1.48685E+02  1.50781E+02  1.45575E+02  1.34564E+02
   1.20850E+02  1.07333E+02  9.60235E+01  8.77588E+01  8.18703E+01  7.62903E+01  6.91978E+01  6.02312E+01  4.94221E+01  3.78005E+01
   2.71349E+01  1.80928E+01  1.12648E+01  5.96536E+00  2.32998E+00  3.34799E-01 -1.00587E+00 -1.93954E+00 -3.13843E+00 -4.34731E+00
  -5.43467E+00 -6.04250E+00 -6.30057E+00 -6.43600E+00 -6.26787E+00 -5.85684E+00 -5.64357E+00 -6.04679E+00 -6.32143E+00 -5.86459E+00
  -5.38993E+00 -5.08685E+00 -5.06524E+00 -4.79407E+00 -4.44213E+00 -4.52876E+00 -4.75043E+00 -4.58562E+00 -3.95480E+00 -3.28440E+00
  -2.76164E+00 -2.67345E+00 -2.81835E+00 -3.05528E+00 -3.12150E+00 -2.91781E+00 -2.55674E+00 -2.01183E+00 -1.52126E+00 -1.07682E+00
  -6.06975E-01 -1.45408E-01  1.93332E-01 -3.23810E-02 -3.55001E-01 -5.48849E-01 -3.00552E-01  5.55023E-02  5.66632E-01  9.79552E-01
   9.49670E-01  8.61406E-01  9.96649E-01  1.29551E+00  1.82188E+00  2.21750E+00  2.58003E+00  2.91933E+00  3.24715E+00  3.61228E+00
   3.97862E+00  4.05255E+00  3.91833E+00  3.77380E+00  3.58992E+00  3.67060E+00  4.26773E+00  5.23494E+00  6.27034E+00  6.77367E+00
   6.71725E+00  6.39883E+00  6.20029E+00  6.36426E+00  6.45947E+00  6.84245E+00  7.26501E+00  7.50018E+00  7.36863E+00  7.24343E+00
 NY background values follow
     2.787E+01    2.784E+01    2.780E+01    2.777E+01    2.773E+01    2.770E+01    2.766E+01    2.763E+01    2.759E+01    2.756E+01
     2.752E+01    2.748E+01    2.745E+01    2.741E+01    2.738E+01    2.734E+01    2.731E+01    2.727E+01    2.724E+01    2.720E+01
     2.717E+01    2.713E+01    2.709E+01    2.706E+01    2.702E+01    2.699E+01    2.695E+01    2.692E+01    2.688E+01    2.685E+01
     2.681E+01    2.678E+01    2.674E+01    2.670E+01    2.667E+01    2.663E+01    2.660E+01    2.656E+01    2.653E+01    2.649E+01
     2.646E+01    2.642E+01    2.639E+01    2.635E+01    2.632E+01    2.628E+01    2.624E+01    2.621E+01    2.617E+01    2.614E+01
     2.610E+01    2.607E+01    2.603E+01    2.600E+01    2.596E+01    2.593E+01    2.589E+01    2.585E+01    2.582E+01    2.578E+01
     2.575E+01    2.571E+01    2.568E+01    2.564E+01    2.561E+01    2.557E+01    2.554E+01    2.550E+01    2.546E+01    2.543E+01
     2.539E+01    2.536E+01    2.532E+01    2.529E+01    2.525E+01    2.522E+01    2.518E+01    2.515E+01    2.511E+01    2.507E+01
     2.504E+01    2.500E+01    2.497E+01    2.493E+01    2.490E+01    2.486E+01    2.483E+01    2.479E+01    2.476E+01    2.472E+01
     2.468E+01    2.465E+01    2.461E+01    2.458E+01    2.454E+01    2.451E+01    2.447E+01    2.444E+01    2.440E+01    2.437E+01
     2.433E+01    2.429E+01    2.426E+01    2.422E+01    2.419E+01    2.415E+01    2.412E+01    2.408E+01    2.405E+01    2.401E+01
     2.398E+01    2.394E+01    2.390E+01    2.387E+01    2.383E+01    2.380E+01    2.376E+01    2.373E+01    2.369E+01    2.366E+01
     2.362E+01    2.359E+01    2.355E+01    2.351E+01    2.348E+01    2.344E+01    2.341E+01    2.337E+01    2.334E+01    2.330E+01
     2.327E+01    2.323E+01    2.320E+01    2.316E+01    2.312E+01    2.309E+01    2.305E+01    2.302E+01    2.298E+01    2.295E+01
     2.291E+01    2.288E+01    2.284E+01    2.281E+01    2.277E+01    2.273E+01    2.270E+01    2.266E+01    2.263E+01    2.259E+01
     2.256E+01    2.252E+01    2.249E+01    2.245E+01    2.241E+01    2.238E+01    2.234E+01    2.231E+01    2.227E+01    2.224E+01
     2.220E+01    2.217E+01    2.213E+01    2.210E+01    2.206E+01    2.202E+01    2.199E+01    2.195E+01    2.192E+01    2.188E+01
     2.185E+01    2.181E+01    2.178E+01    2.174E+01    2.170E+01    2.167E+01    2.163E+01    2.160E+01    2.156E+01    2.153E+01
     2.149E+01    2.146E+01    2.142E+01    2.138E+01    2.135E+01    2.131E+01    2.128E+01    2.124E+01    2.121E+01    2.117E+01
     2.114E+01    2.110E+01    2.106E+01    2.103E+01    2.099E+01    2.096E+01    2.092E+01    2.089E+01    2.085E+01    2.082E+01
     2.078E+01    2.074E+01    2.071E+01    2.067E+01    2.064E+01    2.060E+01    2.057E+01    2.053E+01    2.050E+01    2.046E+01
     2.042E+01    2.039E+01    2.035E+01    2.032E+01    2.028E+01    2.025E+01    2.021E+01    2.018E+01    2.014E+01    2.010E+01
     2.007E+01    2.003E+01    2.000E+01    1.996E+01    1.993E+01    1.989E+01    1.986E+01    1.982E+01    1.978E+01    1.975E+01
     1.971E+01    1.968E+01    1.964E+01    1.961E+01    1.957E+01    1.954E+01    1.950E+01    1.946E+01    1.943E+01    1.939E+01
     1.936E+01    1.932E+01    1.929E+01    1.925E+01    1.922E+01    1.918E+01    1.914E+01    1.911E+01    1.907E+01    1.904E+01
     1.900E+01    1.897E+01    1.893E+01    1.889E+01    1.886E+01    1.882E+01    1.879E+01    1.875E+01    1.872E+01    1.868E+01
     1.865E+01    1.861E+01    1.857E+01    1.854E+01    1.850E+01    1.847E+01    1.843E+01    1.840E+01    1.836E+01    1.832E+01
     1.829E+01    1.825E+01    1.822E+01    1.818E+01    1.815E+01    1.811E+01    1.807E+01    1.804E+01    1.800E+01    1.797E+01
     1.793E+01    1.790E+01    1.786E+01    1.783E+01    1.779E+01    1.775E+01    1.772E+01    1.768E+01    1.765E+01    1.761E+01
     1.758E+01    1.754E+01    1.750E+01    1.747E+01    1.743E+01    1.740E+01    1.736E+01    1.733E+01    1.729E+01    1.725E+01
     1.722E+01    1.718E+01    1.715E+01    1.711E+01    1.708E+01    1.704E+01    1.700E+01    1.697E+01    1.693E+01    1.690E+01
     1.686E+01    1.683E+01    1.679E+01    1.676E+01    1.672E+01    1.668E+01    1.665E+01    1.661E+01    1.658E+01    1.654E+01
     1.651E+01    1.647E+01    1.643E+01    1.640E+01    1.636E+01    1.633E+01    1.629E+01    1.626E+01    1.622E+01    1.618E+01
     1.615E+01    1.611E+01    1.608E+01    1.604E+01    1.601E+01    1.597E+01    1.593E+01    1.590E+01    1.586E+01    1.583E+01
     1.579E+01    1.576E+01    1.572E+01    1.568E+01    1.565E+01    1.561E+01    1.558E+01    1.554E+01    1.551E+01    1.547E+01
     1.543E+01    1.540E+01    1.536E+01    1.533E+01    1.529E+01    1.526E+01    1.522E+01    1.518E+01    1.515E+01    1.511E+01
     1.508E+01    1.504E+01    1.501E+01    1.497E+01    1.493E+01    1.490E+01    1.486E+01    1.483E+01    1.479E+01    1.476E+01
     1.472E+01    1.468E+01    1.465E+01    1.461E+01    1.458E+01    1.454E+01    1.451E+01    1.447E+01    1.443E+01    1.440E+01
     1.436E+01    1.433E+01    1.429E+01    1.425E+01    1.422E+01    1.418E+01    1.415E+01    1.411E+01    1.408E+01    1.404E+01
     1.400E+01    1.397E+01    1.393E+01    1.390E+01    1.386E+01    1.383E+01    1.379E+01    1.375E+01    1.372E+01    1.368E+01
     1.365E+01    1.361E+01    1.358E+01    1.354E+01    1.350E+01    1.347E+01    1.343E+01    1.340E+01    1.336E+01    1.333E+01
     1.329E+01    1.325E+01    1.322E+01    1.318E+01    1.315E+01    1.311E+01    1.308E+01    1.304E+01    1.300E+01    1.297E+01
     1.293E+01    1.290E+01    1.286E+01    1.282E+01    1.279E+01    1.275E+01    1.272E+01    1.268E+01    1.265E+01    1.261E+01
     1.257E+01    1.254E+01    1.250E+01    1.247E+01    1.243E+01    1.240E+01    1.236E+01    1.232E+01    1.229E+01    1.225E+01
     1.222E+01    1.218E+01    1.215E+01    1.211E+01    1.207E+01    1.204E+01    1.200E+01    1.197E+01    1.193E+01    1.190E+01
     1.186E+01    1.182E+01    1.179E+01    1.175E+01    1.172E+01    1.168E+01    1.165E+01    1.161E+01    1.157E+01    1.154E+01
     1.150E+01    1.147E+01    1.143E+01    1.139E+01    1.136E+01    1.132E+01    1.129E+01    1.125E+01    1.122E+01    1.118E+01
     1.114E+01    1.111E+01    1.107E+01    1.104E+01    1.100E+01    1.097E+01    1.093E+01    1.089E+01    1.086E+01    1.082E+01
 Mac      Conc. = 2.99E-04
   6.58845E+00  6.17285E+00  6.23828E+00  6.57442E+00  6.57338E+00  5.90401E+00  4.14040E+00  1.82353E+00 -8.44664E-01 -2.86817E+00
  -3.93651E+00 -3.88345E+00 -2.94451E+00 -2.98136E+00 -5.32416E+00 -9.89491E+00 -1.37915E+01 -1.33211E+01 -9.84523E+00 -4.73239E+00
   1.20212E+00  6.55538E+00  1.08075E+01  1.27669E+01  1.34863E+01  1.43209E+01  1.54170E+01  1.72348E+01  1.96503E+01  2.20939E+01
   2.43269E+01  2.61858E+01  2.75800E+01  2.75379E+01  2.61562E+01  2.44792E+01  2.44397E+01  2.69114E+01  3.04902E+01  3.30168E+01
   3.34572E+01  3.28324E+01  3.24698E+01  3.35506E+01  3.55018E+01  3.74751E+01  3.87690E+01  3.89083E+01  3.81107E+01  3.62835E+01
   3.42436E+01  3.26059E+01  3.11909E+01  3.00305E+01  2.86485E+01  2.76663E+01  2.78003E+01  2.87892E+01  3.01221E+01  3.18975E+01
   3.42916E+01  3.63741E+01  3.77813E+01  3.76148E+01  3.65852E+01  3.53451E+01  3.39995E+01  3.24441E+01  3.05828E+01  2.94356E+01
   3.05601E+01  3.33475E+01  3.67781E+01  3.97040E+01  4.18509E+01  4.28173E+01  4.26982E+01  4.17440E+01  4.06450E+01  3.95621E+01
   3.83585E+01  3.71434E+01  3.65656E+01  3.65464E+01  3.72296E+01  3.82083E+01  3.92712E+01  4.03291E+01  4.11130E+01  4.16468E+01
   4.24807E+01  4.30514E+01  4.40558E+01  4.47374E+01  4.47440E+01  4.36519E+01  4.13644E+01  3.81565E+01  3.51939E+01  3.29949E+01
   3.16493E+01  3.04400E+01  2.93058E+01  2.75028E+01  2.38985E+01  1.71064E+01  7.39813E+00 -2.18513E+00 -9.67613E+00 -1.35800E+01
