 LCModel (Version 6.3-1N) Copyright: S.W. Provencher.          Ref.: Magn. Reson. Med. 30:672-679 (1993).                
 Slice_N1@20_20  28-Feb-2025 11:43:00
 27 lines in following concentration table = NCONC+1
    Conc.  %SD /Cr+PCr  Metabolite                                         
 3.00E-04   3% 3.0E-04 Mac                                                 
    3.769  36%   3.823 Cr                                                  
    4.116  32%   4.177 PCr                                                 
    7.617  11%   7.728 Ins                                                 
   10.238   7%  10.387 NAA                                                 
    4.746  16%   4.815 Tau                                                 
    0.125 675%   0.127 PCho                                                
    1.973  42%   2.002 GPC                                                 
    9.833  10%   9.976 Glu                                                 
    4.099  19%   4.159 Gln                                                 
    0.000 999%   0.000 Ala                                                 
    3.131  35%   3.176 Asc                                                 
    2.891  31%   2.933 Asp                                                 
    0.697  71%   0.707 GABA                                                
    1.054  61%   1.069 Glc                                                 
    1.406  33%   1.427 GSH                                                 
    2.684  24%   2.724 Lac                                                 
    0.965  58%   0.979 NAAG                                                
    0.000 999%   0.000 PE                                                  
    2.098  10%   2.128 GPC+PCho                                            
   11.203   7%  11.366 NAA+NAAG                                            
   13.931   8%  14.135 Glu+Gln                                             
    7.885   8%   8.000 Cr+PCr                                              
   11.203   7%  11.366 NAA+NAAG                                            
    7.885   8%   8.000 Cr+PCr                                              
   13.931   8%  14.135 Glu+Gln                                             
   6 lines in following misc. output table
  FWHM = 0.024 ppm    S/N =   4                                            
  Data shift = 0.024 ppm                                                   
  Ph: -70 deg       0.0 deg/ppm                                            
  alphaB,S = 8.7E+00,   2.4E+01                                            
   19 spline knots.   Ns = 5(1)                                            
   3 inflections.     2 extrema                                            
  480 points on ppm-axis = NY
      4.100000     4.091866     4.083733     4.075600     4.067466     4.059333     4.051199     4.043066     4.034933     4.026799
      4.018666     4.010532     4.002399     3.994265     3.986132     3.977998     3.969864     3.961731     3.953597     3.945463
      3.937330     3.929196     3.921062     3.912929     3.904795     3.896662     3.888528     3.880394     3.872261     3.864127
      3.855993     3.847860     3.839726     3.831592     3.823459     3.815325     3.807191     3.799058     3.790924     3.782790
      3.774657     3.766523     3.758389     3.750256     3.742122     3.733989     3.725855     3.717721     3.709588     3.701454
      3.693320     3.685187     3.677053     3.668919     3.660786     3.652652     3.644518     3.636385     3.628251     3.620117
      3.611984     3.603850     3.595716     3.587583     3.579449     3.571316     3.563182     3.555048     3.546915     3.538781
      3.530647     3.522514     3.514380     3.506246     3.498113     3.489979     3.481845     3.473712     3.465578     3.457444
      3.449311     3.441177     3.433043     3.424910     3.416776     3.408643     3.400509     3.392375     3.384242     3.376108
      3.367974     3.359841     3.351707     3.343573     3.335440     3.327306     3.319172     3.311039     3.302905     3.294771
      3.286638     3.278504     3.270370     3.262237     3.254103     3.245970     3.237836     3.229702     3.221569     3.213435
      3.205301     3.197168     3.189034     3.180900     3.172767     3.164633     3.156499     3.148366     3.140232     3.132098
      3.123965     3.115831     3.107697     3.099564     3.091430     3.083297     3.075163     3.067029     3.058896     3.050762
      3.042628     3.034495     3.026361     3.018227     3.010094     3.001960     2.993826     2.985693     2.977559     2.969425
      2.961292     2.953158     2.945024     2.936891     2.928757     2.920624     2.912490     2.904356     2.896223     2.888089
      2.879955     2.871822     2.863688     2.855554     2.847421     2.839287     2.831153     2.823020     2.814886     2.806752
      2.798619     2.790485     2.782351     2.774218     2.766084     2.757951     2.749817     2.741683     2.733550     2.725416
      2.717282     2.709149     2.701015     2.692881     2.684748     2.676614     2.668480     2.660347     2.652213     2.644079
      2.635946     2.627812     2.619678     2.611545     2.603411     2.595278     2.587144     2.579010     2.570877     2.562743
      2.554609     2.546476     2.538342     2.530208     2.522075     2.513941     2.505807     2.497674     2.489540     2.481406
      2.473273     2.465139     2.457006     2.448872     2.440738     2.432605     2.424471     2.416337     2.408204     2.400070
      2.391936     2.383803     2.375669     2.367535     2.359402     2.351268     2.343134     2.335001     2.326867     2.318733
      2.310600     2.302466     2.294333     2.286199     2.278065     2.269932     2.261798     2.253664     2.245531     2.237397
      2.229263     2.221130     2.212996     2.204862     2.196729     2.188595     2.180461     2.172328     2.164194     2.156060
      2.147927     2.139793     2.131660     2.123526     2.115392     2.107259     2.099125     2.090991     2.082858     2.074724
      2.066590     2.058457     2.050323     2.042189     2.034056     2.025922     2.017788     2.009655     2.001521     1.993387
      1.985254     1.977120     1.968987     1.960853     1.952719     1.944586     1.936452     1.928318     1.920185     1.912051
      1.903917     1.895784     1.887650     1.879516     1.871383     1.863249     1.855115     1.846982     1.838848     1.830714
      1.822581     1.814447     1.806314     1.798180     1.790046     1.781913     1.773779     1.765645     1.757512     1.749378
      1.741244     1.733111     1.724977     1.716843     1.708710     1.700576     1.692442     1.684309     1.676175     1.668041
      1.659908     1.651774     1.643641     1.635507     1.627373     1.619240     1.611106     1.602972     1.594839     1.586705
      1.578571     1.570438     1.562304     1.554170     1.546037     1.537903     1.529769     1.521636     1.513502     1.505368
      1.497235     1.489101     1.480968     1.472834     1.464700     1.456567     1.448433     1.440299     1.432166     1.424032
      1.415898     1.407765     1.399631     1.391497     1.383364     1.375230     1.367096     1.358963     1.350829     1.342695
      1.334562     1.326428     1.318295     1.310161     1.302027     1.293894     1.285760     1.277626     1.269493     1.261359
      1.253225     1.245092     1.236958     1.228824     1.220691     1.212557     1.204423     1.196290     1.188156     1.180022
      1.171889     1.163755     1.155622     1.147488     1.139354     1.131221     1.123087     1.114953     1.106820     1.098686
      1.090552     1.082419     1.074285     1.066151     1.058018     1.049884     1.041750     1.033617     1.025483     1.017349
      1.009216     1.001082     0.992949     0.984815     0.976681     0.968548     0.960414     0.952280     0.944147     0.936013
      0.927879     0.919746     0.911612     0.903478     0.895345     0.887211     0.879077     0.870944     0.862810     0.854676
      0.846543     0.838409     0.830276     0.822142     0.814008     0.805875     0.797741     0.789607     0.781474     0.773340
      0.765206     0.757073     0.748939     0.740805     0.732672     0.724538     0.716404     0.708271     0.700137     0.692003
      0.683870     0.675736     0.667603     0.659469     0.651335     0.643202     0.635068     0.626934     0.618801     0.610667
      0.602533     0.594400     0.586266     0.578132     0.569999     0.561865     0.553731     0.545598     0.537464     0.529330
      0.521197     0.513063     0.504930     0.496796     0.488662     0.480529     0.472395     0.464261     0.456128     0.447994
      0.439861     0.431727     0.423593     0.415460     0.407326     0.399192     0.391059     0.382925     0.374792     0.366658
      0.358524     0.350391     0.342257     0.334124     0.325990     0.317856     0.309723     0.301589     0.293455     0.285322
      0.277188     0.269055     0.260921     0.252787     0.244654     0.236520     0.228386     0.220253     0.212119     0.203986
 NY phased data points follow
   2.37023E+01  1.60112E+01  3.32756E+01  2.10722E+01  3.19517E+01  3.22594E+01  2.92425E+01  3.49817E+01  2.22365E+01  1.71688E+01
   6.51245E+00  5.52171E+00  9.00843E+00  7.32594E+00 -1.20555E+00 -7.37487E+00 -1.36908E+01 -3.39638E+01 -4.52572E+01 -5.59914E+01
  -5.60053E+01 -4.28322E+01 -2.92076E+01 -9.00722E+00  3.04060E+01  4.74917E+01  3.72279E+01  5.11412E+01  5.05634E+01  4.25070E+01
   5.31277E+01  4.05233E+01  2.91127E+01  3.59900E+01  3.50889E+01  3.69538E+01  4.07342E+01  2.86341E+01  7.33596E+00 -5.85894E+00
  -1.71656E+01 -2.05822E+01 -4.46070E+00 -1.09422E+00  1.71637E+01  4.18373E+01  4.63221E+01  6.69163E+01  7.68975E+01  6.88190E+01
   7.08898E+01  6.86301E+01  5.61695E+01  4.88374E+01  5.02223E+01  3.69833E+01  1.39526E+01  2.86076E+01  2.32340E+01 -6.93801E+00
   1.73258E+01  2.26894E+01  2.86573E+01  5.73965E+01  6.17619E+01  6.81299E+01  6.79596E+01  5.93199E+01  3.22784E+01 -4.11464E+00
  -4.24120E+00  3.28738E+01  2.69624E+01  2.28248E+01  7.53143E+01  6.95274E+01  6.88820E+01  8.20640E+01  6.01600E+01  7.58414E+01
   7.61842E+01  6.28142E+01  7.40902E+01  5.38104E+01  2.74469E+01  3.22221E+01  3.54371E+01  4.62232E+01  7.59073E+01  8.96617E+01
   7.68730E+01  9.27228E+01  1.17919E+02  9.97584E+01  1.08906E+02  1.13717E+02  1.11760E+02  1.25657E+02  9.91515E+01  8.47811E+01
   7.99980E+01  7.39359E+01  5.77610E+01  4.10642E+01  4.95870E+01  3.22974E+01  2.15859E+01  1.43754E+01  1.03162E+00 -4.55825E+01
  -1.08654E+02 -1.01546E+02 -8.35553E+01 -5.19445E+01 -1.37762E+01 -9.90704E+00  2.00680E+00  1.12671E+01  1.63078E+01  2.35482E+01
   3.11326E+01  4.16567E+01  4.72161E+01  4.61354E+01  4.85931E+01  5.55885E+01  7.36434E+01  9.74015E+01  1.08409E+02  1.26495E+02
   1.55572E+02  1.43347E+02  5.98269E+01 -2.67567E+01 -5.75703E+01 -5.02896E+01 -5.09445E+01 -4.79482E+01 -4.20036E+01 -5.33820E+01
  -3.24727E+01 -4.23786E+01 -4.99199E+01 -1.54453E+01 -2.27237E+01 -3.41537E+01 -3.42379E+01 -2.24780E+01 -1.86462E+01 -1.43797E+01
  -1.12150E+01 -2.51151E+01 -4.79253E+00  5.39112E+00 -6.00289E+00 -3.86395E+00  3.81296E+00  1.02466E+00  5.27658E+00  8.51891E+00
   6.85212E+00  2.12261E+01  1.29242E+01  2.55267E+00  7.95471E+00  7.91652E+00 -9.70413E-01  6.60589E+00  2.52363E+01  1.87171E+01
   2.46668E+01  3.49006E+01  4.87321E+01  5.40171E+01  2.92343E+01  3.54905E+01  3.99352E+01  3.75397E+01  4.41865E+01  1.75653E+01
   1.32869E+01  1.14679E+00 -1.17474E+01 -5.47172E+00 -2.83982E+01 -1.36826E+01 -1.59446E+01 -1.69566E+01  9.00025E+00 -8.12299E+00
  -3.76710E+00 -1.14908E+00 -3.55148E+00  1.35463E+01  3.50166E+01  3.53332E+01  9.53730E+00  1.38749E+01  1.51957E+01  8.22805E+00
   1.89975E+01  2.09259E+01  2.60062E+01  3.25992E+01  2.97837E+01  2.95554E+01  1.96673E+01  5.81872E+00 -2.26299E+00 -1.15779E+01
  -1.42118E+01  7.95798E-01  1.23158E+01  2.08917E+01  4.96887E+01  5.62034E+01  6.84454E+01  8.17182E+01  7.39831E+01  6.20790E+01
   4.49233E+01  4.80866E+01  3.15091E+01  2.68847E+01  4.09214E+01  5.10483E+01  3.74618E+01  1.90533E+01  3.53514E+01  1.85479E+01
   2.57855E+01  2.01269E+01  4.99910E+00  1.29765E+01 -1.70609E+01 -2.08903E+01 -2.45700E+01 -3.67080E+01 -3.87974E+01 -3.79430E+01
  -2.92406E+01 -2.72728E+01 -2.57123E+01 -1.06367E+01 -4.50310E+00 -9.64442E-01  1.75271E+01 -4.23792E+00 -6.87688E+00  2.59316E-01
  -7.96392E+00 -2.83480E+00 -9.50229E+00 -1.19188E+01 -2.30190E+01 -3.69094E+01 -5.63360E+01  2.33905E+01  1.76315E+02  2.10681E+02
   1.91204E+02  1.87507E+02  1.61400E+02  1.33241E+02  1.24602E+02  1.19130E+02  1.25140E+02  1.10074E+02  9.51951E+01  1.01202E+02
   9.23233E+01  1.02735E+02  9.55849E+01  9.09832E+01  1.07620E+02  1.02705E+02  9.76779E+01  9.00200E+01  9.23430E+01  9.98650E+01
   9.88317E+01  8.29902E+01  7.45148E+01  7.67449E+01  6.24585E+01  7.68685E+01  7.52158E+01  5.26316E+01  6.23962E+01  5.61064E+01
   6.52300E+01  6.49545E+01  5.28350E+01  5.27124E+01  3.86466E+01  5.08691E+01  4.28201E+01  3.75311E+01  3.90393E+01  3.12122E+01
   4.01660E+01  4.52363E+01  6.24998E+01  6.02683E+01  6.99668E+01  8.25996E+01  9.07595E+01  9.25209E+01  9.68111E+01  1.15913E+02
   9.66148E+01  1.21462E+02  1.36313E+02  1.23486E+02  1.35492E+02  1.39938E+02  1.46053E+02  1.31159E+02  1.35334E+02  1.40795E+02
   1.18740E+02  1.10736E+02  1.15848E+02  9.74823E+01  1.08218E+02  1.27712E+02  9.89855E+01  8.55568E+01  7.01873E+01  6.00596E+01
   5.08949E+01  3.55816E+01  2.21284E+01  2.57440E+01  2.83053E+01  1.06091E+01  2.25142E+01  1.44411E+01  1.47087E+01  2.54458E+01
   1.84028E+01  1.14808E+01  2.81279E+01  2.84952E+01  4.41719E+00  3.38791E+01  2.57707E+01  3.53083E+01  5.18333E+01  3.18140E+01
   4.29772E+01  3.80227E+01  5.53790E+01  5.35674E+01  4.16564E+01  4.37384E+01  2.89886E+01  2.74596E+01  3.16627E+01  3.14984E+01
   2.20380E+01  3.74068E+01  4.45907E+01  3.56315E+01  5.42344E+01  5.79749E+01  5.08082E+01  5.57177E+01  4.66119E+01  5.15634E+01
   6.95162E+01  6.47399E+01  6.64481E+01  7.05194E+01  7.45503E+01  8.03356E+01  7.82141E+01  8.70381E+01  9.44866E+01  8.95508E+01
   1.08481E+02  1.14985E+02  1.04361E+02  1.26866E+02  1.21048E+02  1.13655E+02  1.33193E+02  1.48234E+02  1.52839E+02  1.31359E+02
   1.37633E+02  1.32338E+02  9.70073E+01  9.60728E+01  9.13877E+01  7.60030E+01  8.70038E+01  9.01889E+01  6.56279E+01  5.55806E+01
   4.93584E+01  3.05990E+01  2.42978E+01  1.42832E+01  6.59310E+00 -7.32710E-03  2.16331E+00  2.35305E+01  1.56371E+01  6.43036E+00
   5.63492E+00  3.28498E+00  7.59763E+00  8.10818E+00  1.22380E+01  5.21069E+00  1.77320E+01  3.06935E+01  2.90274E+01  2.06916E+01
   1.27320E+00  8.81930E+00  1.52191E+01  1.19200E+01  2.09919E+01  2.45381E+01  7.95286E+00  4.63394E+00  1.63711E+01  1.52840E+01
   1.18589E+01  1.16789E+01  1.22700E+01  1.58459E+01  1.88742E+01  1.01895E+01  1.95183E+01  1.91770E+01  2.29964E+01  2.98244E+01
   5.24478E+00  1.35468E+01  2.16137E+01  1.63507E+01  7.07855E+00  7.73775E+00  1.41732E+01  6.10313E+00  2.25076E+01  2.26620E+01
   1.47066E+01  9.01320E+00  1.55682E+01  1.76664E+01 -4.47956E+00  1.20051E+01  1.02320E+01  9.77193E+00  2.97384E+01  9.13440E+00
   1.04754E+01  1.03321E+01  2.11506E+00  1.46207E+01  1.38174E+01  1.42051E+01  1.03433E+01  1.50497E+01  1.88906E+01  1.44286E+01
   1.58383E+01  1.90714E+01  2.42399E+01  2.06529E+01  2.17409E+01  7.97740E+00  1.01494E+01  2.87118E+01  2.88030E+01  1.88402E+01
 NY points of the fit to the data follow
   6.92547E+00  3.23247E+00 -1.20167E+00 -3.10879E+00  1.70706E+00  1.37217E+01  2.60934E+01  3.10081E+01  2.65253E+01  1.73077E+01
   9.19784E+00  5.40549E+00  4.98840E+00  4.99116E+00  3.11932E+00 -1.66573E+00 -9.18178E+00 -1.88924E+01 -3.03422E+01 -4.19219E+01
  -4.79337E+01 -4.12773E+01 -2.10450E+01  6.62099E+00  3.34207E+01  5.19290E+01  6.02924E+01  6.38676E+01  6.58962E+01  6.67535E+01
   6.71434E+01  6.59086E+01  6.37209E+01  6.08953E+01  5.71139E+01  5.21799E+01  4.54992E+01  3.56366E+01  2.10365E+01  2.94741E+00
  -1.23469E+01 -1.70295E+01 -9.09260E+00  6.92686E+00  2.56936E+01  4.32888E+01  5.68437E+01  6.57707E+01  6.98680E+01  6.99809E+01
   6.66541E+01  6.06046E+01  5.16752E+01  4.10117E+01  3.16828E+01  2.61843E+01  2.41385E+01  2.18293E+01  1.73335E+01  1.49279E+01
   1.92489E+01  2.84489E+01  4.00563E+01  5.35781E+01  6.48389E+01  7.00828E+01  6.72261E+01  5.33526E+01  3.21356E+01  1.40920E+01
   7.87859E+00  1.34694E+01  2.48886E+01  3.88696E+01  5.33956E+01  6.53488E+01  7.36451E+01  7.75196E+01  7.75561E+01  7.53740E+01
   7.05306E+01  6.21860E+01  5.12001E+01  4.04474E+01  3.39400E+01  3.43094E+01  4.11105E+01  5.16206E+01  6.23636E+01  7.04105E+01
   7.62114E+01  8.04265E+01  8.41929E+01  8.80503E+01  9.17648E+01  9.50090E+01  9.72876E+01  9.78120E+01  9.62076E+01  9.34626E+01
   9.04500E+01  8.52492E+01  7.59833E+01  6.42681E+01  5.25085E+01  4.24570E+01  3.56621E+01  2.50559E+01 -2.29685E+00 -4.57233E+01
  -8.31470E+01 -9.22219E+01 -7.31260E+01 -4.41355E+01 -1.96380E+01 -6.69378E+00  3.38805E-01  7.09831E+00  1.37305E+01  2.02317E+01
   2.67258E+01  3.35641E+01  4.11285E+01  4.98744E+01  6.01559E+01  7.21342E+01  8.57610E+01  1.01017E+02  1.17624E+02  1.33501E+02
   1.39377E+02  1.17531E+02  6.02829E+01 -8.75814E+00 -5.38193E+01 -6.46273E+01 -5.40570E+01 -3.86110E+01 -3.18644E+01 -3.12472E+01
  -3.14243E+01 -3.19571E+01 -3.25188E+01 -3.27553E+01 -3.24931E+01 -3.14729E+01 -2.93652E+01 -2.64085E+01 -2.31242E+01 -1.98897E+01
  -1.70571E+01 -1.45704E+01 -1.22324E+01 -9.70608E+00 -6.76279E+00 -3.92059E+00 -1.94002E+00 -1.05337E+00 -4.37777E-01  1.04731E+00
   3.44458E+00  5.26881E+00  4.83580E+00  2.38932E+00  2.98211E-03 -7.56037E-01 -5.81833E-02  1.11366E+00  2.68281E+00  6.54225E+00
   1.45732E+01  2.51244E+01  3.28091E+01  3.36974E+01  3.07066E+01  3.04123E+01  3.42134E+01  3.65568E+01  3.16154E+01  1.98437E+01
   7.35336E+00 -9.81063E-01 -5.08625E+00 -6.84992E+00 -7.73327E+00 -8.20308E+00 -7.72824E+00 -6.65642E+00 -5.32641E+00 -3.87702E+00
  -2.26411E+00 -1.95063E-01  3.04001E+00  8.17158E+00  1.38956E+01  1.72665E+01  1.84738E+01  2.01583E+01  2.21477E+01  2.33021E+01
   2.41674E+01  2.55028E+01  2.82648E+01  3.01836E+01  2.82335E+01  2.31888E+01  1.61260E+01  8.30532E+00  3.95400E-01 -6.83477E+00
  -1.12499E+01 -1.07126E+01 -3.37069E+00  1.12447E+01  3.18878E+01  5.46355E+01  7.20163E+01  7.87710E+01  7.57813E+01  6.58709E+01
   5.42380E+01  4.76230E+01  4.56993E+01  4.74614E+01  5.00882E+01  5.02180E+01  4.72999E+01  4.12199E+01  3.24655E+01  2.21828E+01
   1.10617E+01 -1.58591E-01 -1.09755E+01 -2.12728E+01 -3.07650E+01 -3.87022E+01 -4.43625E+01 -4.72217E+01 -4.69194E+01 -4.35754E+01
  -3.78684E+01 -2.98911E+01 -2.00203E+01 -9.63848E+00 -4.11246E-01  5.84557E+00  7.72092E+00  5.91561E+00  2.07049E+00 -2.45916E+00
  -6.60741E+00 -1.12665E+01 -1.74482E+01 -2.78404E+01 -4.42195E+01 -5.54756E+01 -3.44661E+01  3.39410E+01  1.18460E+02  1.71741E+02
   1.81825E+02  1.63804E+02  1.39421E+02  1.27711E+02  1.22597E+02  1.18877E+02  1.15437E+02  1.12050E+02  1.08951E+02  1.06622E+02
   1.05370E+02  1.05068E+02  1.05363E+02  1.05807E+02  1.06012E+02  1.05713E+02  1.04963E+02  1.03843E+02  1.02604E+02  1.01122E+02
   9.93223E+01  9.72772E+01  9.51257E+01  9.30750E+01  9.10229E+01  8.88477E+01  8.65149E+01  8.40041E+01  8.11780E+01  7.79282E+01
   7.42071E+01  7.01594E+01  6.60780E+01  6.22750E+01  5.93263E+01  5.78234E+01  5.79686E+01  5.95559E+01  6.20375E+01  6.48266E+01
   6.77009E+01  7.06491E+01  7.36360E+01  7.65137E+01  7.91520E+01  8.15143E+01  8.37343E+01  8.60936E+01  8.87074E+01  9.14146E+01
   9.38944E+01  9.59789E+01  9.77168E+01  9.92412E+01  1.00546E+02  1.01382E+02  1.01560E+02  1.01037E+02  9.97128E+01  9.77035E+01
   9.52234E+01  9.22706E+01  8.87800E+01  8.48330E+01  8.03356E+01  7.49350E+01  6.81385E+01  5.97239E+01  5.01656E+01  4.06783E+01
   3.23680E+01  2.60229E+01  2.22128E+01  2.13388E+01  2.35838E+01  2.86469E+01  3.56407E+01  4.32005E+01  4.96358E+01  5.25680E+01
   4.95597E+01  4.08319E+01  3.02753E+01  2.25730E+01  2.08410E+01  2.55988E+01  3.33995E+01  3.97348E+01  4.37646E+01  4.49183E+01
   4.41802E+01  4.22934E+01  3.91719E+01  3.50377E+01  3.05536E+01  2.67033E+01  2.42975E+01  2.36414E+01  2.45997E+01  2.68219E+01
   2.99155E+01  3.35735E+01  3.75763E+01  4.16108E+01  4.55249E+01  4.91964E+01  5.25660E+01  5.57450E+01  5.88566E+01  6.20339E+01
   6.53075E+01  6.86228E+01  7.20420E+01  7.56774E+01  7.97362E+01  8.44403E+01  8.97578E+01  9.56050E+01  1.02089E+02  1.09193E+02
   1.16717E+02  1.24631E+02  1.32945E+02  1.41240E+02  1.48749E+02  1.54359E+02  1.56740E+02  1.54792E+02  1.48197E+02  1.37815E+02
   1.25607E+02  1.13823E+02  1.03797E+02  9.57074E+01  8.89075E+01  8.22896E+01  7.48009E+01  6.60470E+01  5.64311E+01  4.67293E+01
   3.78943E+01  3.06729E+01  2.52667E+01  2.13610E+01  1.86593E+01  1.68467E+01  1.56103E+01  1.46809E+01  1.37655E+01  1.28135E+01
   1.19347E+01  1.13546E+01  1.11269E+01  1.11123E+01  1.11653E+01  1.12454E+01  1.13257E+01  1.13035E+01  1.11901E+01  1.12232E+01
   1.14947E+01  1.18094E+01  1.19539E+01  1.20091E+01  1.20751E+01  1.21688E+01  1.22556E+01  1.23474E+01  1.26028E+01  1.30138E+01
   1.33701E+01  1.35009E+01  1.34251E+01  1.32894E+01  1.32798E+01  1.34855E+01  1.38280E+01  1.42414E+01  1.46464E+01  1.49839E+01
   1.52275E+01  1.54072E+01  1.55227E+01  1.54856E+01  1.53470E+01  1.52399E+01  1.53338E+01  1.56063E+01  1.59418E+01  1.62047E+01
   1.63281E+01  1.63532E+01  1.64209E+01  1.66599E+01  1.70074E+01  1.73558E+01  1.76585E+01  1.78668E+01  1.80318E+01  1.82095E+01
   1.83517E+01  1.84070E+01  1.83685E+01  1.82860E+01  1.82906E+01  1.84622E+01  1.88251E+01  1.93506E+01  1.98860E+01  2.01930E+01
   2.01786E+01  1.99200E+01  1.96469E+01  1.95716E+01  1.96734E+01  1.98334E+01  1.99674E+01  2.00806E+01  2.00899E+01  2.00631E+01
 NY background values follow
     4.234E+01    4.231E+01    4.228E+01    4.225E+01    4.222E+01    4.219E+01    4.216E+01    4.213E+01    4.210E+01    4.207E+01
     4.204E+01    4.202E+01    4.199E+01    4.196E+01    4.193E+01    4.190E+01    4.187E+01    4.184E+01    4.181E+01    4.178E+01
     4.175E+01    4.172E+01    4.169E+01    4.166E+01    4.163E+01    4.160E+01    4.157E+01    4.154E+01    4.151E+01    4.148E+01
     4.145E+01    4.142E+01    4.139E+01    4.136E+01    4.133E+01    4.130E+01    4.128E+01    4.125E+01    4.122E+01    4.119E+01
     4.116E+01    4.113E+01    4.110E+01    4.107E+01    4.104E+01    4.101E+01    4.098E+01    4.095E+01    4.092E+01    4.089E+01
     4.086E+01    4.083E+01    4.080E+01    4.077E+01    4.074E+01    4.071E+01    4.068E+01    4.065E+01    4.062E+01    4.059E+01
     4.057E+01    4.054E+01    4.051E+01    4.048E+01    4.045E+01    4.042E+01    4.039E+01    4.036E+01    4.033E+01    4.030E+01
     4.027E+01    4.024E+01    4.021E+01    4.018E+01    4.015E+01    4.012E+01    4.009E+01    4.006E+01    4.003E+01    4.000E+01
     3.997E+01    3.994E+01    3.991E+01    3.988E+01    3.985E+01    3.983E+01    3.980E+01    3.977E+01    3.974E+01    3.971E+01
     3.968E+01    3.965E+01    3.962E+01    3.959E+01    3.956E+01    3.953E+01    3.950E+01    3.947E+01    3.944E+01    3.941E+01
     3.938E+01    3.935E+01    3.932E+01    3.929E+01    3.926E+01    3.923E+01    3.920E+01    3.917E+01    3.914E+01    3.911E+01
     3.908E+01    3.905E+01    3.902E+01    3.899E+01    3.896E+01    3.893E+01    3.890E+01    3.887E+01    3.885E+01    3.882E+01
     3.879E+01    3.876E+01    3.873E+01    3.870E+01    3.867E+01    3.864E+01    3.861E+01    3.858E+01    3.855E+01    3.852E+01
     3.849E+01    3.846E+01    3.843E+01    3.840E+01    3.837E+01    3.834E+01    3.831E+01    3.828E+01    3.825E+01    3.822E+01
     3.819E+01    3.816E+01    3.813E+01    3.810E+01    3.807E+01    3.804E+01    3.801E+01    3.798E+01    3.795E+01    3.792E+01
     3.789E+01    3.786E+01    3.783E+01    3.780E+01    3.777E+01    3.774E+01    3.771E+01    3.768E+01    3.765E+01    3.762E+01
     3.759E+01    3.756E+01    3.753E+01    3.750E+01    3.747E+01    3.744E+01    3.741E+01    3.738E+01    3.735E+01    3.732E+01
     3.729E+01    3.726E+01    3.723E+01    3.720E+01    3.717E+01    3.714E+01    3.711E+01    3.708E+01    3.705E+01    3.702E+01
     3.699E+01    3.696E+01    3.693E+01    3.690E+01    3.687E+01    3.684E+01    3.681E+01    3.678E+01    3.675E+01    3.672E+01
     3.669E+01    3.666E+01    3.663E+01    3.660E+01    3.657E+01    3.654E+01    3.650E+01    3.647E+01    3.644E+01    3.641E+01
     3.638E+01    3.635E+01    3.632E+01    3.629E+01    3.626E+01    3.623E+01    3.620E+01    3.617E+01    3.614E+01    3.611E+01
     3.608E+01    3.605E+01    3.602E+01    3.599E+01    3.596E+01    3.593E+01    3.590E+01    3.587E+01    3.584E+01    3.581E+01
     3.577E+01    3.574E+01    3.571E+01    3.568E+01    3.565E+01    3.562E+01    3.559E+01    3.556E+01    3.553E+01    3.550E+01
     3.547E+01    3.544E+01    3.541E+01    3.538E+01    3.535E+01    3.532E+01    3.529E+01    3.525E+01    3.522E+01    3.519E+01
     3.516E+01    3.513E+01    3.510E+01    3.507E+01    3.504E+01    3.501E+01    3.498E+01    3.495E+01    3.492E+01    3.489E+01
     3.486E+01    3.482E+01    3.479E+01    3.476E+01    3.473E+01    3.470E+01    3.467E+01    3.464E+01    3.461E+01    3.458E+01
     3.455E+01    3.452E+01    3.449E+01    3.445E+01    3.442E+01    3.439E+01    3.436E+01    3.433E+01    3.430E+01    3.427E+01
     3.424E+01    3.421E+01    3.418E+01    3.414E+01    3.411E+01    3.408E+01    3.405E+01    3.402E+01    3.399E+01    3.396E+01
     3.393E+01    3.390E+01    3.387E+01    3.383E+01    3.380E+01    3.377E+01    3.374E+01    3.371E+01    3.368E+01    3.365E+01
     3.362E+01    3.359E+01    3.355E+01    3.352E+01    3.349E+01    3.346E+01    3.343E+01    3.340E+01    3.337E+01    3.334E+01
     3.331E+01    3.327E+01    3.324E+01    3.321E+01    3.318E+01    3.315E+01    3.312E+01    3.309E+01    3.306E+01    3.302E+01
     3.299E+01    3.296E+01    3.293E+01    3.290E+01    3.287E+01    3.284E+01    3.281E+01    3.277E+01    3.274E+01    3.271E+01
     3.268E+01    3.265E+01    3.262E+01    3.259E+01    3.256E+01    3.252E+01    3.249E+01    3.246E+01    3.243E+01    3.240E+01
     3.237E+01    3.234E+01    3.230E+01    3.227E+01    3.224E+01    3.221E+01    3.218E+01    3.215E+01    3.212E+01    3.208E+01
     3.205E+01    3.202E+01    3.199E+01    3.196E+01    3.193E+01    3.189E+01    3.186E+01    3.183E+01    3.180E+01    3.177E+01
     3.174E+01    3.171E+01    3.167E+01    3.164E+01    3.161E+01    3.158E+01    3.155E+01    3.152E+01    3.148E+01    3.145E+01
     3.142E+01    3.139E+01    3.136E+01    3.133E+01    3.129E+01    3.126E+01    3.123E+01    3.120E+01    3.117E+01    3.114E+01
     3.111E+01    3.107E+01    3.104E+01    3.101E+01    3.098E+01    3.095E+01    3.092E+01    3.088E+01    3.085E+01    3.082E+01
     3.079E+01    3.076E+01    3.073E+01    3.069E+01    3.066E+01    3.063E+01    3.060E+01    3.057E+01    3.054E+01    3.050E+01
     3.047E+01    3.044E+01    3.041E+01    3.038E+01    3.035E+01    3.031E+01    3.028E+01    3.025E+01    3.022E+01    3.019E+01
     3.016E+01    3.012E+01    3.009E+01    3.006E+01    3.003E+01    3.000E+01    2.996E+01    2.993E+01    2.990E+01    2.987E+01
     2.984E+01    2.981E+01    2.977E+01    2.974E+01    2.971E+01    2.968E+01    2.965E+01    2.962E+01    2.958E+01    2.955E+01
     2.952E+01    2.949E+01    2.946E+01    2.943E+01    2.939E+01    2.936E+01    2.933E+01    2.930E+01    2.927E+01    2.923E+01
     2.920E+01    2.917E+01    2.914E+01    2.911E+01    2.908E+01    2.904E+01    2.901E+01    2.898E+01    2.895E+01    2.892E+01
     2.889E+01    2.885E+01    2.882E+01    2.879E+01    2.876E+01    2.873E+01    2.869E+01    2.866E+01    2.863E+01    2.860E+01
     2.857E+01    2.854E+01    2.850E+01    2.847E+01    2.844E+01    2.841E+01    2.838E+01    2.835E+01    2.831E+01    2.828E+01
     2.825E+01    2.822E+01    2.819E+01    2.815E+01    2.812E+01    2.809E+01    2.806E+01    2.803E+01    2.800E+01    2.796E+01
     2.793E+01    2.790E+01    2.787E+01    2.784E+01    2.781E+01    2.777E+01    2.774E+01    2.771E+01    2.768E+01    2.765E+01
 Mac      Conc. = 3.00E-04
   2.11884E+01  2.05860E+01  2.01874E+01  1.98791E+01  1.93301E+01  1.82747E+01  1.66640E+01  1.47156E+01  1.27629E+01  1.11944E+01
   1.02331E+01  9.84686E+00  9.71403E+00  9.34880E+00  8.32854E+00  6.73421E+00  5.56993E+00  6.34862E+00  9.67562E+00  1.46252E+01
   1.95813E+01  2.37195E+01  2.67751E+01  2.86917E+01  2.98949E+01  3.08797E+01  3.20784E+01  3.37791E+01  3.58283E+01  3.78395E+01
   3.95074E+01  4.06903E+01  4.14158E+01  4.16365E+01  4.14417E+01  4.11966E+01  4.15864E+01  4.30908E+01  4.54329E+01  4.76027E+01
   4.86576E+01  4.86808E+01  4.85488E+01  4.90625E+01  5.02713E+01  5.15455E+01  5.21451E+01  5.18045E+01  5.07407E+01  4.92320E+01
   4.76105E+01  4.62023E+01  4.51659E+01  4.44826E+01  4.40523E+01  4.39521E+01  4.43292E+01  4.53581E+01  4.68521E+01  4.83869E+01
   4.97971E+01  5.09605E+01  5.15650E+01  5.13939E+01  5.05635E+01  4.93831E+01  4.83319E+01  4.76799E+01  4.73697E+01  4.75385E+01
   4.86190E+01  5.07172E+01  5.33302E+01  5.55656E+01  5.69120E+01  5.72746E+01  5.68927E+01  5.60784E+01  5.51113E+01  5.41960E+01
   5.34929E+01  5.30472E+01  5.28952E+01  5.31950E+01  5.39257E+01  5.48973E+01  5.59019E+01  5.67799E+01  5.74596E+01  5.79782E+01
   5.83928E+01  5.86847E+01  5.88093E+01  5.85775E+01  5.78327E+01  5.63131E+01  5.40632E+01  5.13461E+01  4.85466E+01  4.60443E+01
   4.39484E+01  4.18246E+01  3.91770E+01  3.56661E+01  3.10260E+01  2.51211E+01  1.83169E+01  1.17397E+01  6.93335E+00  4.97084E+00
