 
 $NMID
 ID=''
 FMTDAT='(2E13.5)'
 TRAMP=   1.00000E+0
 VOLUME=   1.00000E+0
 $END
  -3.19710E+4   1.50158E+4
   9.81864E+3   3.53355E+4
   3.98422E+4  -7.28564E+3
   6.24661E+3  -3.85726E+4
  -3.73817E+4  -7.73872E+3
  -1.87188E+4   2.82636E+4
   2.37662E+4   1.64043E+4
   2.39275E+4  -1.39793E+4
  -6.51535E+3  -2.00246E+4
  -2.05046E+4   1.32145E+3
  -5.20355E+3   1.88940E+4
   1.29246E+4   8.90338E+3
   8.87069E+3  -9.43403E+3
  -6.87480E+3  -9.34924E+3
  -1.02572E+4   1.61579E+3
  -3.82052E+2   5.99465E+3
   7.21496E+3   2.41486E+3
   4.80441E+3  -3.73869E+3
  -2.20445E+3  -4.74031E+3
  -4.02063E+3   5.84746E+2
  -1.05185E+3   3.91871E+3
   2.98429E+3   4.53555E+2
   3.83060E+3  -1.24796E+3
  -4.33775E+2  -6.66521E+2
  -3.22991E+3  -1.10514E+3
   6.09302E+2   1.29278E+2
   3.58305E+3   2.35632E+3
   2.94783E+2   1.09656E+3
  -2.02694E+3  -2.01693E+3
   6.09298E+2  -1.48641E+3
   8.34288E+2   1.79481E+3
  -7.53978E+2   1.99647E+3
  -7.07797E+2  -5.48504E+2
  -2.80837E+1  -1.39135E+3
  -5.02306E+2  -1.04588E+3
   2.11438E+2  -3.98442E+2
   1.20922E+3   1.15499E+3
   1.02106E+3   1.13451E+3
   1.42123E+0  -3.18699E+2
  -5.97067E+2  -5.43846E+2
  -8.53370E+2   5.12851E+2
  -2.96224E+2   4.73480E+2
   6.76736E+2  -7.53341E+2
   1.15061E+3  -1.22363E+3
   5.08827E+2  -1.80432E+2
   1.02960E+2   1.41040E+3
  -2.83797E+2   1.98930E+3
  -9.03380E+2   3.46252E+2
  -9.14202E+2  -9.85448E+2
  -5.62108E+2  -1.14997E+3
  -1.56052E+2  -2.38018E+2
   6.94875E+2  -3.32840E+2
   7.59727E+2  -1.34421E+2
   3.11680E+2   1.27096E+2
  -1.02987E+2   8.65570E+2
  -1.52244E+1   5.44606E+2
  -7.42241E+2   2.20039E+2
  -9.24688E+2  -5.50857E+2
   3.41619E+2  -1.18988E+3
   7.62245E+2  -2.90073E+2
   8.17756E+2   5.33507E+2
   4.85557E+2   3.71953E+2
   4.23984E+1   7.56895E+2
  -8.33489E+2   9.92183E+2
  -1.22169E+3   1.03054E+2
  -1.04882E+3  -1.15672E+3
  -5.14769E+1  -1.32288E+3
   5.70089E+2  -6.49715E+2
   5.64781E+2   3.02906E+1
   2.78079E+2   3.64631E+2
  -1.75633E+2  -2.43302E+2
   2.87770E+2  -6.85999E+2
   3.75998E+2   3.15143E+2
  -1.31472E+1   1.00274E+3
  -2.45582E+2   2.88013E+2
  -2.52085E+2  -6.50691E+2
   1.65474E+1  -2.56498E+2
  -5.91808E+1   4.37088E+2
  -2.13584E+2   4.25782E+2
  -3.87898E+2  -3.23538E+2
  -3.80565E+2  -6.93442E+2
  -3.32573E+2  -3.64816E+2
  -7.07447E+1  -7.04382E+1
   2.25668E+1  -3.94658E+2
  -4.99053E+1  -5.27397E+2
   4.13389E+2  -3.54696E+2
   2.35016E+2  -3.31979E+2
   1.92988E+2  -6.31280E+1
   2.13529E+1  -1.61791E+2
   6.32887E+0  -1.80292E+2
   3.47203E+2   1.08561E+2
  -1.41273E+1   2.77429E+2
  -6.15684E+2   4.32414E+2
  -8.02363E+2  -1.50853E+2
  -2.60228E+2  -7.12668E+2
   9.77631E+1  -8.30425E+2
   6.44869E+1   5.94163E+0
  -1.98310E+2   4.71438E+1
  -6.82302E+1  -5.07816E+2
   5.21641E+2  -1.55969E+2
   1.96398E+2   4.57485E+2
  -3.28233E+2   5.63229E+2
  -3.73414E+2   1.38321E+1
  -2.02148E+2  -5.11700E+2
   1.60124E+2  -3.56061E+2
   8.11991E+1   5.59286E+2
  -2.11982E+2   6.25940E+2
  -8.60965E+2   1.33508E+2
  -3.43860E+2  -9.80883E+2
   5.10456E+2  -9.03824E+2
   1.12755E+3  -9.54014E+1
   2.25566E+2   6.16901E+2
  -2.61914E+2   4.52834E+2
  -8.43309E+1   1.85602E+2
   1.48227E+2   3.82913E+2
  -1.71397E+2   3.10286E+2
  -8.56279E+2  -1.00729E+2
  -7.39951E+2  -5.99879E+2
   6.99553E+1  -8.41339E+2
   6.41348E+2  -4.04098E+2
   6.18548E+2   1.03225E+2
   4.45486E+2   1.61297E+2
   1.92547E+2   5.74062E+2
  -3.14685E+2   4.50211E+2
  -4.14653E+2   6.11662E+1
  -1.16959E+2  -2.73540E+2
   7.07183E+1  -2.99103E+2
  -2.24968E+1   1.21941E+2
   1.22857E+2   1.59656E+2
   1.66224E+2   2.94770E+2
  -2.47682E+2   3.32979E+2
  -5.72832E+2  -4.08212E+2
  -1.33091E+1  -5.64723E+2
   2.72052E+2   4.27450E+1
  -5.35055E+1  -1.05536E+2
   4.48857E+1  -2.17180E+2
   3.91420E+2  -2.03799E+2
   4.70251E+2   1.85017E+2
  -1.30705E+2   6.71479E+2
  -1.75162E+2   5.90157E+1
  -2.07597E+2  -3.51845E+2
   2.57754E+2  -3.25882E+2
   4.77644E+2   1.73010E+2
   2.26072E+2   3.58348E+2
  -1.93578E+2   2.19441E+2
  -4.39208E+2  -1.73977E+1
  -2.23921E+1  -2.02613E-1
  -7.03922E+1  -2.11877E+2
  -3.12404E+2  -1.73170E+1
   1.09545E+2  -5.30716E+2
   1.99237E+2  -3.19269E+2
   3.24516E+2  -3.35366E+1
   4.82831E+2   3.40307E+2
   7.35572E+0   1.91339E+2
   5.11554E+1   1.05518E+2
  -2.54442E+1  -6.98902E+1
   1.26345E+2   2.92076E+2
  -2.72010E+2   1.88420E+2
  -1.67056E+2   1.05243E+2
   4.12675E+1   2.22634E+1
  -7.58498E+1   4.45277E+1
  -5.04214E+1   2.14122E+2
  -8.96771E+1   1.55857E+2
  -1.09121E+2  -3.75748E+2
   4.62584E+2  -3.13180E+2
   3.66328E+2  -5.75185E+1
   2.13698E+2   7.78394E+1
  -1.88874E+2  -3.68809E+1
   9.72278E+1  -6.70865E+1
   1.19800E+2  -2.36006E+2
   1.18025E+2   2.35779E+2
  -1.18434E+2   1.38470E+2
  -3.36908E+1  -1.70042E+1
  -2.61204E+2  -2.19721E+1
  -1.23100E+2  -8.51280E+1
  -1.24382E+2   1.31010E+2
  -3.49031E+2  -5.70944E+1
  -1.50110E+2  -2.73392E+2
   1.79439E+2  -3.27436E+2
   2.29579E+2   3.61661E+1
   1.04020E+2   4.49679E+2
  -5.54907E+2   2.04281E+2
  -2.83269E+2  -2.51893E+1
  -2.87061E+2  -1.44593E+2
  -2.80322E+2  -2.35317E+2
  -1.41736E+2  -4.74454E+0
   4.22966E+1  -7.98189E+1
   1.22977E+2  -6.51424E+1
   2.10121E+2   2.27631E+2
   4.17018E+1   4.27704E+2
  -1.68202E+2   6.18487E+2
  -5.53862E+2   2.12946E+1
  -1.87684E+2  -3.50703E+2
  -2.20996E+0  -2.63960E+2
   2.34703E+2   8.43798E+1
   1.03678E+2  -2.37610E+2
   1.72587E+2   7.43691E+1
   3.48003E+1   6.26357E+1
  -1.50512E+2   2.27815E+2
  -5.82117E+1   1.42111E+2
  -2.64714E+2  -3.71644E+0
  -1.17875E+2  -3.30604E+2
   2.85223E+2  -2.38584E+2
   2.49678E+2  -1.52439E+0
  -1.57823E+2   1.43948E+2
  -1.97995E+2   1.56782E+2
  -2.20344E+2  -1.08765E+2
  -1.46562E+1   1.52329E+2
  -2.66753E+2   1.99170E+2
  -1.24740E+2  -2.10523E+1
   1.61196E+1  -9.77012E+1
   4.10059E+2  -2.67308E+2
   1.01346E+2   2.90121E+2
  -3.24069E+2   3.97018E+2
  -4.48912E+2  -2.39003E+2
  -2.44181E+2  -2.05313E+2
   1.30525E+2  -2.70276E+2
  -4.60085E+1  -1.44373E+2
   6.35892E+1   7.54203E+1
   1.07277E+2   1.36526E+2
   9.62361E+1  -4.29298E+1
   3.81592E+1   1.38630E+2
  -1.30159E+2   2.58312E+2
  -3.29784E+2   5.90416E+1
  -1.45958E+2  -2.12883E+2
  -1.16415E+2  -2.72234E+2
   6.05970E+1   2.84348E+1
  -2.45557E+2   2.22705E+2
  -6.11440E+1   2.67085E+1
  -5.84521E+1   2.43459E+1
   3.02999E+1  -4.19508E+1
  -1.12939E+2   6.94929E+1
  -1.35583E+2  -3.79144E+1
  -2.00234E+1  -1.27391E+2
  -1.91553E+1  -2.63110E+1
   8.73129E+1   1.34307E+2
  -9.72168E+1  -3.99383E+0
   5.19155E+0   9.73885E+1
   4.00383E+1  -2.65032E+2
  -1.15613E+2   6.33951E+0
   1.41219E+2   9.83927E+1
   1.26572E+2   3.90923E+0
  -8.73346E+1   5.83625E+1
  -2.54009E+2  -3.32785E+2
  -1.00573E+2  -2.48864E+2
  -2.03671E+1   1.85780E+1
  -3.16545E+1   2.46799E+2
   3.53367E+1  -4.69919E+1
   1.65652E+2  -1.75724E+2
  -8.18978E+1   1.45324E+2
   1.40201E+2   3.51747E+2
  -1.87655E+1  -1.50327E+2
  -2.05040E+2  -1.96207E+2
   5.77023E+1  -1.65375E+2
   7.77213E+1  -6.39619E+1
  -2.70448E+1   2.54105E+1
  -1.50143E+2   8.79352E+1
   1.12594E+1  -2.92930E+2
  -3.94896E+1   1.28029E+2
  -4.68208E+2   9.70590E+1
  -2.58527E+2  -1.33747E+2
  -2.75235E+2  -1.00453E+2
  -7.99376E+0  -1.21252E+2
   7.91614E+1   8.82376E+1
   2.84573E+2   2.52061E+2
  -3.26003E+2   3.75041E+2
  -3.87175E+1  -2.68536E+1
  -2.08984E+2  -1.76799E+2
  -8.24550E+0  -1.79491E+2
  -2.75480E+2  -2.09459E+2
  -3.82574E+1   9.45804E+1
   7.09928E+1   1.18618E+2
  -5.43324E+1   1.65484E+1
  -2.63410E+2   1.05358E+2
  -2.89747E+2   4.69014E+1
  -2.10161E+2  -1.32834E+2
  -8.54873E+1  -9.70084E+1
  -6.93090E+0  -7.90364E+1
  -1.06026E+2   5.14898E+1
   3.39393E+1   2.37653E+2
   1.65076E+1   1.91281E+2
  -1.41810E+1  -1.29823E+2
  -2.29978E+1   1.71893E+2
  -7.67671E+1  -2.30797E+1
  -5.37708E+1  -6.31272E+1
  -1.59200E+2   7.43668E+1
   2.10672E+2  -2.02993E+2
   1.83079E+2   7.80349E+1
   9.48885E+1   1.15804E+2
  -2.47306E+2   1.43607E+2
  -7.48806E+1  -5.22182E+1
  -2.70907E+1   1.34873E+2
   1.02128E+2   3.43972E+1
  -1.20649E+1   3.75647E+1
   4.48916E+1  -3.11148E+1
   1.66936E+2   4.50449E+1
  -2.94854E+2   1.00586E+2
   2.87382E+2   1.14783E+2
  -2.23163E+2   4.09087E+1
  -4.57549E+0   1.07997E+2
  -1.54109E+2  -2.87337E+2
  -4.18534E+1   6.36180E+1
   4.43525E+1   2.38466E+2
  -7.51951E+1  -1.15769E+2
  -2.44621E+2   1.01337E+2
  -1.92430E+2  -4.50138E+1
   3.49627E+1   1.63082E+1
   1.11673E+2  -1.40296E+2
   2.12045E+2  -2.39006E+2
   1.66174E+1  -3.14270E+1
   2.53224E+2  -1.56430E+1
   3.89455E+1  -6.70473E+1
   1.78037E+1  -1.25864E+2
   5.64166E+1   7.55662E+1
   2.29338E+2  -1.78930E+2
   8.92014E+1   9.13633E+1
  -4.30521E+1   1.53575E+2
   8.20643E+1  -1.52038E+2
  -4.92618E+1   6.29754E+1
  -1.43511E+2   6.52297E+1
  -1.21683E+2  -7.09939E+1
   5.03258E+0   2.95030E+1
   3.42801E+1   5.89406E+1
   6.67958E+1   3.39468E+1
   3.18924E+2  -2.92352E+1
   3.70420E+1   1.29174E+2
   1.97115E+0   3.29773E+1
  -1.23168E+2  -4.27330E+1
   1.15539E+1   5.90579E+1
  -6.61242E+1  -1.10367E+2
   6.55079E+1   1.75302E+2
   4.66835E+1  -4.90069E+1
   1.17321E+2   1.19851E+2
  -5.00597E+1   7.37978E+1
  -2.34145E+2  -1.14710E+2
  -1.63221E+0   2.06638E+2
   6.95625E+1   8.81018E+1
  -4.77830E+1  -1.23016E+2
   2.36242E+2  -5.50520E+1
   1.52123E+2   3.59541E+1
   1.47203E+2   2.05188E+2
   9.50242E+1   1.04693E+1
  -7.98929E+1   1.94926E+2
  -2.80489E+2  -3.41647E+1
   1.89520E+1  -1.26127E+2
  -3.49528E+1  -3.07140E+1
  -4.52271E+1   3.74413E+1
   2.44560E+2  -1.39802E+2
  -1.44214E+2   1.63064E+2
  -2.02587E+2   1.57352E+1
   9.46612E+1  -1.38676E+2
  -6.74417E+1  -2.03180E+1
   4.69738E+1  -4.66905E+1
   5.93028E+1   4.18408E+1
   7.26165E+1  -1.44658E+2
   1.02886E+1   1.39319E+2
   1.10169E+2   6.96460E+1
   1.79331E+2   1.71706E+2
  -2.67440E+2  -7.94914E+0
   6.06997E+1   3.47008E+1
  -2.70651E+2   7.50055E+1
   6.57039E+1  -4.38502E+2
   6.30477E+1   3.00233E+1
   1.42233E+2   1.35926E+2
  -3.44725E+2   2.15218E+1
  -1.39609E+1   7.85990E+1
   1.17788E+2   7.23586E+1
