 
 $NMID
 ID=''
 FMTDAT='(2E13.5)'
 TRAMP=   1.00000E+0
 VOLUME=   1.00000E+0
 $END
   4.95309E+3  -2.04151E+4
  -1.47851E+4  -1.76325E+4
  -1.24733E+4   1.75425E+4
   1.71193E+4   1.37782E+4
   5.51669E+3  -1.72167E+4
  -1.47332E+4  -4.38149E+3
   4.10485E+3   1.44888E+4
   1.08725E+4  -2.55986E+3
  -7.13151E+3  -6.49750E+3
  -4.59657E+3   6.82970E+3
   4.87240E+3   1.27358E+3
  -9.79160E+2  -4.36662E+3
  -1.62258E+3   1.68682E+3
   1.47222E+3  -1.45628E+3
  -2.65790E+3  -3.76090E+3
  -3.30451E+1   2.87928E+3
   4.04027E+3   2.58784E+3
  -2.64407E+1  -1.70036E+3
  -7.58675E+2  -2.73170E+2
   1.27029E+3   4.92105E+2
  -1.39225E+3  -3.75062E+2
  -6.84755E+2   7.31927E+2
   2.05150E+3   1.21529E+3
   1.64436E+2  -2.89410E+2
  -1.48291E+3  -8.91781E+2
   7.71770E+2  -2.99907E+2
   2.27598E+2   1.26742E+3
  -1.63817E+3   1.32420E+3
  -6.58232E+2  -7.59023E+2
   7.46507E+2  -1.31286E+3
   4.94331E+2   6.22041E+2
  -4.74798E+2   1.17425E+3
  -1.10617E+3  -1.40059E+2
  -7.43194E+2  -7.03421E+2
   8.93987E+2  -6.21223E+2
   1.88996E+3   1.06116E+2
   6.35743E+1   7.52816E+2
  -1.56591E+3   5.01231E+2
   1.41915E+2  -2.95179E+2
   6.99673E+2  -3.68333E+2
  -9.93796E+2   9.24898E+1
  -4.18902E+2  -6.15136E+2
   9.26140E+2  -7.11502E+2
   5.08023E+2   1.94322E+2
   9.71804E+1   3.15399E+2
   9.38294E+1   1.46265E+2
  -2.90264E+2   1.01881E+3
  -1.09717E+3   6.60830E+2
  -8.04074E+2  -4.57051E+2
  -2.88576E+2  -8.45740E+2
   2.63471E+2  -3.42317E+2
   2.32033E+2  -1.79479E+2
  -6.74690E+1  -1.13017E+2
   9.57997E+1   2.38367E+2
   2.08215E+2   2.65371E+2
  -4.75678E+1   2.76084E+2
  -6.97346E+2   2.87666E+2
  -1.51916E+2  -5.31076E+2
   3.46501E+2  -5.95992E+2
   3.04948E+2   1.08286E+2
   1.75025E+2   4.63406E+2
   1.86995E+2   2.32121E+2
   2.08418E+2   5.49081E+2
  -3.25281E+2   6.21677E+2
  -8.38145E+2   3.28956E+2
  -7.40170E+2  -4.35684E+2
   2.76254E+2  -1.03954E+3
   6.03189E+2  -9.81711E+2
   4.49916E+2   8.46135E+1
   3.01568E-1   4.08055E+2
  -1.19357E+2  -4.88089E+1
   4.26297E+2  -5.64544E+2
   8.13279E+2   5.47596E+1
   8.93762E+1   4.43700E+2
  -3.44967E+2   3.12049E+2
  -1.52274E+2   2.06962E+2
   3.35697E+2   8.27824E+1
   6.22608E+1  -1.44071E+2
  -1.26721E+2  -3.19382E+1
  -1.46508E+2  -1.24050E+2
  -3.26463E+2  -5.05996E+1
  -2.06028E+2  -2.24330E+2
  -1.04019E+2  -1.12904E+2
  -3.85154E+1  -3.76717E+0
  -2.55713E+2   1.38399E+2
  -2.45982E+2  -2.14018E+2
   1.32170E+2  -2.04195E+2
   4.78260E+2   1.82773E+2
  -1.22728E+2   9.58572E+1
  -3.75066E+1  -1.89389E+2
   2.29369E+2   1.95958E+2
   4.86085E+2   9.82202E+1
  -1.22221E+2   4.55520E+2
  -6.78957E+2   1.29486E+2
  -2.57906E+2  -1.92468E+2
  -1.76637E+2  -4.11464E+2
  -1.60348E+2  -3.67297E+1
   1.04038E+2   2.10378E+2
  -2.62380E+1  -2.74937E+2
   2.90642E+2  -3.36073E+2
  -1.25644E+1   4.08241E+1
   2.09918E+2   3.28143E+2
  -7.79811E+1   4.29936E+2
  -2.45616E+2  -2.38067E+2
  -1.09658E+2  -4.18903E+2
   2.79878E+1  -4.08070E+2
   2.28854E+2   1.15254E+2
  -1.68573E+2   4.00089E+2
  -2.53713E+2   1.15497E+2
   2.78742E+2  -4.52303E+2
   5.86570E+1  -4.12871E+2
   1.65625E+2   2.40236E+2
  -1.69938E+1   1.52227E+2
   3.23685E+1   5.13717E+0
  -1.35455E+1  -2.99665E+2
   2.07713E+2   6.93577E+1
  -2.51897E+1   1.43537E+2
  -3.29638E+2   1.73082E+2
  -1.25834E+2  -1.57273E+2
  -4.49583E+1   2.60958E+2
   9.01522E+1  -4.51191E+1
   9.34374E+1  -1.74253E+1
   2.02648E+2   7.30922E+0
   8.90257E+1   1.36782E+2
  -3.25344E+2   4.96971E+0
  -4.33947E+1  -1.58105E+2
  -3.05695E+1  -1.43604E+1
  -1.42498E+2   1.05239E+2
   1.25035E+1   5.21151E+1
  -5.73676E+1  -7.18381E+1
  -1.43642E+2   2.44097E+1
  -7.87025E+1  -4.07400E+1
  -6.14926E+1  -2.07892E+2
  -2.12505E+2  -1.78869E+2
   1.19523E+2   9.92967E+1
  -2.11334E+1  -1.63659E+1
  -3.28193E+2  -8.41757E+1
  -1.65588E+1  -3.44671E+2
   2.61511E+2  -1.71072E+2
  -2.14260E+2   5.38021E+1
  -2.31423E+2  -1.32459E+2
  -1.25046E+2   1.98404E+2
   2.13088E+2  -2.33192E+2
  -6.79288E+1   1.67423E+2
   9.39181E+1   2.45955E+2
   1.60515E+2   7.86878E+1
  -3.24716E+2   4.38734E+1
  -6.21163E+1   1.87972E+2
   2.07889E+2  -1.06683E+2
   1.68247E+2   6.67025E+1
  -2.76077E+2   4.17598E+1
   1.68644E+2  -3.87804E+1
   2.31999E+2  -6.68553E+1
   5.98124E+1   8.87087E+1
   6.50010E+1   2.47423E+2
  -1.43269E+2   5.92926E+1
  -1.18749E+2   1.33317E+1
   1.47987E+2   1.77313E+2
  -6.22093E+1   1.33543E+2
  -1.19427E+2  -6.98600E+1
  -2.49343E+2   8.65952E+1
   1.08878E+2  -7.40050E+0
  -7.34763E+0  -4.52445E+1
  -7.15083E+1   1.43231E+2
   5.35696E+1  -2.80878E+2
   1.98195E+2   7.41185E+1
   1.20684E+2   2.04204E+2
   1.27627E+2   2.94098E+1
   1.81147E+2   3.90877E+0
   8.99220E+1  -2.19617E+2
   1.42725E+2   1.81077E+2
   9.68674E+1  -1.26713E+2
   3.14076E+1   1.78703E+2
   4.75496E+0   2.79674E+1
  -6.87172E+1  -8.15910E+1
  -1.55364E+2   1.55246E+2
  -8.02901E+1   2.77489E+2
   4.42677E+1  -8.73997E+1
  -1.13963E+2  -4.58678E+1
  -5.14816E+1   4.34080E+1
  -4.53387E+1  -6.16864E+1
   9.23802E+1   6.47478E+1
  -4.13161E+0   5.64956E+1
   8.09925E+1  -1.87601E+2
  -2.47799E+1  -2.08279E+2
   3.21579E+1   1.48353E+2
  -2.03635E+2  -2.15122E+2
  -1.72524E+2   6.51358E+1
  -9.86150E+0  -6.67022E+1
   2.45034E+1   3.89863E+1
  -2.46492E+2  -5.24749E+1
  -5.25495E+1   5.48076E+1
  -2.35332E+2  -1.40501E+2
   8.62896E+1   1.47005E+2
  -1.66165E+2   1.44966E+2
  -1.30980E+2  -6.76990E+1
  -4.90424E+1  -1.74306E+2
  -1.86390E+2  -8.88380E+1
   2.28420E+2   1.06093E+2
   1.42932E+2  -3.95347E+1
  -6.41228E+1  -4.25637E+1
   1.22635E+2   4.08837E+1
   5.13367E+1   6.32569E+1
   9.46664E+0  -1.42713E+2
  -8.74154E+1   5.13021E+1
   1.77324E+0   2.32650E+2
   1.55477E+1   7.87716E+1
   1.48474E+2   1.90570E+2
  -1.52116E+2   5.53825E+1
  -5.40007E+1  -2.07090E+1
   3.37710E+1   1.33447E+1
  -1.36181E+2  -1.08592E+2
   6.28171E+0   3.58762E+2
   1.96356E+2   2.58631E+2
  -8.40026E+1   1.29952E+2
   1.35840E+1  -3.09038E+2
   1.28904E+2  -1.67164E+2
   8.33296E+1   1.00651E+2
  -7.80053E+1   1.21179E+2
   5.47198E+0   1.41720E+2
   1.75610E+2   8.52977E+1
  -6.31374E+1  -6.06335E+1
  -4.80335E+1  -8.60949E+0
   1.52523E+2  -7.37811E+0
  -1.69372E+2  -6.85288E+0
   1.52700E+1  -1.41032E+2
   2.22431E+2  -5.16473E+1
  -1.49743E+2   1.30849E+2
   2.07289E+1  -3.68933E+1
  -1.91625E+2  -1.76212E+2
  -8.04100E+1  -2.06451E+2
  -2.88249E+1  -2.61142E+2
  -1.28970E+2   2.08905E+2
  -9.23792E+1   4.58563E+0
  -1.42613E+2  -8.57650E+1
   2.34449E+2  -9.30916E+1
  -1.55055E+2  -3.95654E+0
  -3.40195E+1   5.65559E+1
  -9.34381E+1  -2.29069E+2
   1.36978E+2  -3.20427E+2
  -7.76214E+1   1.37440E+2
   2.72741E+1   1.71768E+2
   1.08724E+2  -3.03962E+2
   7.75073E+1   1.18138E+1
  -2.03759E+2  -1.31028E+2
  -2.34788E+1  -1.40138E+1
  -3.08324E+0   1.14019E+2
   2.62107E+2  -1.36829E+2
  -9.97611E+1   8.13475E+1
   1.42320E+0   1.31656E+2
  -1.99225E+2   1.11074E+2
   5.24874E+1  -1.46041E+2
   1.28075E+2   1.18925E+0
  -2.01373E+1   3.03221E+0
   2.20533E+2   2.22829E+1
  -1.59135E+2  -9.58190E+1
   2.20059E+2  -5.37805E+1
  -2.22112E+2  -2.03339E+2
  -1.83990E+2   8.42195E+1
  -7.42493E+1  -1.46457E+2
  -3.10380E+1   5.01817E+1
   5.89334E+1  -1.46341E+2
   5.61205E+1   3.76411E+1
  -1.37469E+2  -9.51806E+0
   6.71200E+1   2.13464E+1
   3.32013E+1  -1.38504E+2
   1.91018E+2   2.85383E+1
  -8.95198E+1  -1.10893E+2
   5.72321E+1  -1.21993E+2
  -8.59421E+0  -9.18169E+1
  -7.08782E+1   1.99146E+1
   1.12102E+2   1.99236E+2
  -6.96023E+1   6.65556E+1
   1.30359E+2  -1.43383E+2
  -8.44525E+1   1.46441E+2
  -3.26671E+0  -1.73015E+2
   1.18843E+2   2.94723E+1
   2.92003E+2  -1.06704E+2
   2.46373E+1   2.18349E+1
  -1.32335E+2   8.28598E+1
   4.10210E+0  -1.49512E+2
   3.40542E+1  -1.07821E+2
   1.25799E+2   5.21784E+1
  -7.05895E+0   4.17233E+0
   1.57537E+2   6.27661E+1
  -5.79574E+1  -1.33512E+2
   2.44259E+2   7.28372E+1
   1.94891E+2  -4.82243E+1
   4.02754E+2   8.87714E+1
   7.94061E+1   1.99836E+2
  -3.11368E+1  -9.72373E+1
  -2.87084E+1   1.01774E+1
  -1.03588E+2  -9.02001E+1
   3.20968E+2  -6.83247E+1
   1.05188E+2   2.24013E+2
  -1.89628E+2   2.06325E+2
   5.35604E+1   1.40582E+2
   2.51902E+2   1.27684E+1
   6.89498E+1   6.60841E+1
  -2.73481E+1   1.44992E+1
  -1.14989E+1   4.27764E+1
   8.00539E+1  -5.73425E+1
   6.71187E+1   6.26383E+1
   4.78625E+1   3.09794E+1
  -1.39319E+2   1.38871E+2
   2.56395E+1  -5.28390E+1
   7.14476E+1  -3.30787E+2
   6.82578E+1  -9.56590E+1
  -1.80949E+2  -2.48586E+1
  -5.46659E+0  -2.75261E+1
   1.75573E+2  -9.55223E+1
   1.60648E+2  -2.01777E+2
  -7.77245E+1   4.83101E+1
   8.35310E+1  -7.60075E+1
   7.83374E+1   2.11398E+2
  -5.25183E+1  -5.59632E+1
   1.80928E+1  -4.50593E+1
  -2.16075E+1   3.12763E+2
  -1.77211E+1  -1.32024E+2
   1.44411E+2   2.41160E+0
  -2.59446E+1  -1.20718E+2
   2.08025E+2  -2.65918E+1
   6.49209E+1   1.10025E+2
  -2.10011E+1  -2.94709E+2
   2.38047E+2  -1.88141E+2
  -1.60234E+1  -1.64867E+2
   1.63072E+2   3.52887E+2
  -3.99735E+1  -2.10969E+2
  -7.07652E+0  -1.15620E+2
   9.45862E+1  -6.83494E+1
   4.56685E+1   8.21986E+1
   1.01050E+2  -2.61858E+2
   3.19288E+1   6.67556E+1
   2.13577E+2  -1.67920E+1
   5.64337E+1   2.10845E+2
  -3.15371E+1  -1.73478E+2
  -1.62115E+2  -1.59805E+1
  -1.50040E+2   1.14517E+2
   1.23758E+2  -2.81811E+2
  -3.18876E+1  -1.05976E+2
   1.14446E+2  -5.26101E+1
   1.47746E+2   6.77566E+0
   1.91998E+2   2.47586E+2
  -8.66009E+1  -1.65972E+2
   3.96168E+1   1.15152E+2
   2.63714E+2  -1.40157E+2
   4.64613E+1  -4.47975E+1
   1.34841E+2   7.54635E+0
  -6.49049E+1  -1.67355E+2
   7.18302E+1  -8.32235E+1
  -1.44074E-1  -1.10762E+2
  -1.10195E+2  -1.16835E+2
  -7.41894E+0   2.06193E+2
   3.90382E+1   4.55690E+1
   7.98119E+1  -1.16475E+2
   1.12149E+2   2.83890E+1
   4.87528E+1   3.97187E+1
  -6.77491E+1  -3.91689E+1
   4.79440E+1  -3.19183E+1
   6.24915E+1  -8.26297E+1
   4.62769E+1  -8.97334E+1
   6.47208E-1   1.14823E+2
  -1.91276E+0  -7.54734E+1
   1.66086E+2  -1.44146E+1
   2.87265E+2  -1.03167E+2
   8.89401E+1   1.63411E+0
  -1.01352E+2  -1.00557E+2
