 LCModel (Version 6.3-1N) Copyright: S.W. Provencher.          Ref.: Magn. Reson. Med. 30:672-679 (1993).                
 Slice_N1@24_13  28-Feb-2025 11:43:21
 27 lines in following concentration table = NCONC+1
    Conc.  %SD /Cr+PCr  Metabolite                                         
 2.78E-04   6% 2.8E-04 Mac                                                 
    8.094  17%   8.000 Cr                                                  
    0.000 999%   0.000 PCr                                                 
    4.977  30%   4.919 Ins                                                 
    7.465  21%   7.378 NAA                                                 
    0.000 999%   0.000 Tau                                                 
    0.000 999%   0.000 PCho                                                
    3.117  13%   3.081 GPC                                                 
   14.660  14%  14.489 Glu                                                 
    3.311  46%   3.273 Gln                                                 
    0.000 999%   0.000 Ala                                                 
   12.989  20%  12.837 Asc                                                 
    2.509  56%   2.480 Asp                                                 
    2.288  35%   2.261 GABA                                                
    1.462  61%   1.445 Glc                                                 
    5.301  18%   5.239 GSH                                                 
   13.264  11%  13.109 Lac                                                 
    2.717  52%   2.686 NAAG                                                
    0.000 999%   0.000 PE                                                  
    3.117  13%   3.081 GPC+PCho                                            
   10.182  11%  10.064 NAA+NAAG                                            
   17.971  14%  17.762 Glu+Gln                                             
    8.094  17%   8.000 Cr+PCr                                              
   10.182  11%  10.064 NAA+NAAG                                            
    8.094  17%   8.000 Cr+PCr                                              
   17.971  14%  17.762 Glu+Gln                                             
   6 lines in following misc. output table
  FWHM = 0.179 ppm    S/N =   3                                            
  Data shift =-0.089 ppm                                                   
  Ph: -82 deg       0.0 deg/ppm                                            
  alphaB,S = 1.5E-01,   1.9E+01                                            
   12 spline knots.   Ns = 9(2)                                            
  (14)11 infls.   (14) 8 extrs.                                            
  480 points on ppm-axis = NY
      4.100000     4.091866     4.083733     4.075600     4.067466     4.059333     4.051199     4.043066     4.034933     4.026799
      4.018666     4.010532     4.002399     3.994265     3.986132     3.977998     3.969864     3.961731     3.953597     3.945463
      3.937330     3.929196     3.921062     3.912929     3.904795     3.896662     3.888528     3.880394     3.872261     3.864127
      3.855993     3.847860     3.839726     3.831592     3.823459     3.815325     3.807191     3.799058     3.790924     3.782790
      3.774657     3.766523     3.758389     3.750256     3.742122     3.733989     3.725855     3.717721     3.709588     3.701454
      3.693320     3.685187     3.677053     3.668919     3.660786     3.652652     3.644518     3.636385     3.628251     3.620117
      3.611984     3.603850     3.595716     3.587583     3.579449     3.571316     3.563182     3.555048     3.546915     3.538781
      3.530647     3.522514     3.514380     3.506246     3.498113     3.489979     3.481845     3.473712     3.465578     3.457444
      3.449311     3.441177     3.433043     3.424910     3.416776     3.408643     3.400509     3.392375     3.384242     3.376108
      3.367974     3.359841     3.351707     3.343573     3.335440     3.327306     3.319172     3.311039     3.302905     3.294771
      3.286638     3.278504     3.270370     3.262237     3.254103     3.245970     3.237836     3.229702     3.221569     3.213435
      3.205301     3.197168     3.189034     3.180900     3.172767     3.164633     3.156499     3.148366     3.140232     3.132098
      3.123965     3.115831     3.107697     3.099564     3.091430     3.083297     3.075163     3.067029     3.058896     3.050762
      3.042628     3.034495     3.026361     3.018227     3.010094     3.001960     2.993826     2.985693     2.977559     2.969425
      2.961292     2.953158     2.945024     2.936891     2.928757     2.920624     2.912490     2.904356     2.896223     2.888089
      2.879955     2.871822     2.863688     2.855554     2.847421     2.839287     2.831153     2.823020     2.814886     2.806752
      2.798619     2.790485     2.782351     2.774218     2.766084     2.757951     2.749817     2.741683     2.733550     2.725416
      2.717282     2.709149     2.701015     2.692881     2.684748     2.676614     2.668480     2.660347     2.652213     2.644079
      2.635946     2.627812     2.619678     2.611545     2.603411     2.595278     2.587144     2.579010     2.570877     2.562743
      2.554609     2.546476     2.538342     2.530208     2.522075     2.513941     2.505807     2.497674     2.489540     2.481406
      2.473273     2.465139     2.457006     2.448872     2.440738     2.432605     2.424471     2.416337     2.408204     2.400070
      2.391936     2.383803     2.375669     2.367535     2.359402     2.351268     2.343134     2.335001     2.326867     2.318733
      2.310600     2.302466     2.294333     2.286199     2.278065     2.269932     2.261798     2.253664     2.245531     2.237397
      2.229263     2.221130     2.212996     2.204862     2.196729     2.188595     2.180461     2.172328     2.164194     2.156060
      2.147927     2.139793     2.131660     2.123526     2.115392     2.107259     2.099125     2.090991     2.082858     2.074724
      2.066590     2.058457     2.050323     2.042189     2.034056     2.025922     2.017788     2.009655     2.001521     1.993387
      1.985254     1.977120     1.968987     1.960853     1.952719     1.944586     1.936452     1.928318     1.920185     1.912051
      1.903917     1.895784     1.887650     1.879516     1.871383     1.863249     1.855115     1.846982     1.838848     1.830714
      1.822581     1.814447     1.806314     1.798180     1.790046     1.781913     1.773779     1.765645     1.757512     1.749378
      1.741244     1.733111     1.724977     1.716843     1.708710     1.700576     1.692442     1.684309     1.676175     1.668041
      1.659908     1.651774     1.643641     1.635507     1.627373     1.619240     1.611106     1.602972     1.594839     1.586705
      1.578571     1.570438     1.562304     1.554170     1.546037     1.537903     1.529769     1.521636     1.513502     1.505368
      1.497235     1.489101     1.480968     1.472834     1.464700     1.456567     1.448433     1.440299     1.432166     1.424032
      1.415898     1.407765     1.399631     1.391497     1.383364     1.375230     1.367096     1.358963     1.350829     1.342695
      1.334562     1.326428     1.318295     1.310161     1.302027     1.293894     1.285760     1.277626     1.269493     1.261359
      1.253225     1.245092     1.236958     1.228824     1.220691     1.212557     1.204423     1.196290     1.188156     1.180022
      1.171889     1.163755     1.155622     1.147488     1.139354     1.131221     1.123087     1.114953     1.106820     1.098686
      1.090552     1.082419     1.074285     1.066151     1.058018     1.049884     1.041750     1.033617     1.025483     1.017349
      1.009216     1.001082     0.992949     0.984815     0.976681     0.968548     0.960414     0.952280     0.944147     0.936013
      0.927879     0.919746     0.911612     0.903478     0.895345     0.887211     0.879077     0.870944     0.862810     0.854676
      0.846543     0.838409     0.830276     0.822142     0.814008     0.805875     0.797741     0.789607     0.781474     0.773340
      0.765206     0.757073     0.748939     0.740805     0.732672     0.724538     0.716404     0.708271     0.700137     0.692003
      0.683870     0.675736     0.667603     0.659469     0.651335     0.643202     0.635068     0.626934     0.618801     0.610667
      0.602533     0.594400     0.586266     0.578132     0.569999     0.561865     0.553731     0.545598     0.537464     0.529330
      0.521197     0.513063     0.504930     0.496796     0.488662     0.480529     0.472395     0.464261     0.456128     0.447994
      0.439861     0.431727     0.423593     0.415460     0.407326     0.399192     0.391059     0.382925     0.374792     0.366658
      0.358524     0.350391     0.342257     0.334124     0.325990     0.317856     0.309723     0.301589     0.293455     0.285322
      0.277188     0.269055     0.260921     0.252787     0.244654     0.236520     0.228386     0.220253     0.212119     0.203986
 NY phased data points follow
  -2.89136E+01 -2.49623E+01 -1.44807E+01 -3.00353E+01 -2.18534E+01 -1.91473E+01 -3.36862E+01 -2.97734E+01 -3.16895E+01 -2.19361E+01
  -2.47814E+01 -4.68187E+01 -3.32520E+01 -3.72961E+01 -4.55549E+01 -3.67838E+01 -3.42994E+01 -4.61866E+01 -5.30291E+01 -4.87120E+01
  -4.70499E+01 -2.42845E+01 -4.57972E+01 -4.68478E+01 -3.60295E+01 -5.97565E+01 -3.88639E+01 -5.77172E+01 -5.69545E+01 -3.89281E+01
  -5.01211E+01 -4.23376E+01 -4.93444E+01 -5.23157E+01 -6.27412E+01 -6.82038E+01 -7.13644E+01 -9.18227E+01 -8.27479E+01 -5.77387E+01
  -7.24306E+01 -9.89871E+01 -9.80248E+01 -1.02286E+02 -9.78200E+01 -9.62300E+01 -1.00328E+02 -8.52720E+01 -7.45655E+01 -7.43106E+01
  -8.37835E+01 -8.03054E+01 -6.21776E+01 -5.94421E+01 -6.65500E+01 -8.33425E+01 -7.46234E+01 -5.13413E+01 -6.98309E+01 -6.60398E+01
  -4.90909E+01 -6.54994E+01 -4.94766E+01 -4.47954E+01 -4.98722E+01 -3.22217E+01 -4.84124E+01 -4.22495E+01 -3.57540E+01 -4.35593E+01
  -2.38979E+01 -2.52410E+01 -2.03922E+01 -3.17872E+01 -3.66902E+01 -2.31742E+01 -5.25471E+01 -4.80105E+01 -1.30566E+01 -2.62071E+01
  -3.22285E+01 -2.35467E+01 -2.96442E+01 -1.02058E+01 -2.79499E+01 -1.79226E+01  2.59339E+00 -3.41359E+01 -1.46664E+01 -1.84756E+01
  -9.46432E-01 -2.37264E+00 -5.81026E+00  4.15962E+01  2.39772E+00  2.46885E+01  2.52763E+01 -1.03296E+00  3.31123E+01  1.62389E+01
   1.72751E+01  3.83823E+00 -1.13039E+01 -1.15329E+00 -1.66610E+01 -4.10486E+01 -2.94871E+01 -1.87440E+01 -4.90867E+01 -5.42150E+01
  -4.77836E+01 -3.71153E+01 -4.38758E+01 -5.72592E+01 -5.67288E+01 -6.20017E+01 -4.71823E+01 -4.92846E+01 -4.50416E+01 -3.73421E+01
  -2.92692E+01 -2.60501E+01 -3.98670E+01 -8.76497E+00 -3.12692E+00 -2.14999E+01 -2.18330E+01 -1.82905E+01  7.77892E+00 -4.99985E+00
  -2.72624E+01 -8.78151E+00 -2.29808E+01 -4.84893E+01 -2.68331E+01 -1.03088E+01 -2.44921E+01 -4.79050E+01 -5.34884E+01 -5.97915E+01
  -6.39081E+01 -6.63893E+01 -8.56004E+01 -7.83174E+01 -7.82906E+01 -5.88163E+01 -5.40727E+01 -8.41088E+01 -7.50107E+01 -7.15983E+01
  -7.54402E+01 -1.01901E+02 -8.24386E+01 -6.35117E+01 -6.63263E+01 -4.72716E+01 -7.92690E+01 -7.20508E+01 -8.06958E+01 -7.61111E+01
  -5.36593E+01 -7.25592E+01 -5.67574E+01 -5.67165E+01 -5.73089E+01 -7.77332E+01 -6.21089E+01 -5.27009E+01 -6.56835E+01 -4.46304E+01
  -6.01028E+01 -4.50038E+01 -6.19770E+01 -6.88185E+01 -6.12919E+01 -7.96988E+01 -5.48811E+01 -4.97210E+01 -4.57447E+01 -6.37392E+01
  -6.57130E+01 -6.35730E+01 -7.43835E+01 -6.09188E+01 -5.71430E+01 -6.27885E+01 -7.27365E+01 -5.34776E+01 -7.71280E+01 -8.61103E+01
  -6.26768E+01 -6.43697E+01 -5.23573E+01 -5.13350E+01 -5.33159E+01 -6.63613E+01 -4.94236E+01 -5.10184E+01 -5.95231E+01 -6.24534E+01
  -6.74144E+01 -5.00802E+01 -6.76848E+01 -4.14801E+01 -4.78387E+01 -6.51356E+01 -4.92560E+01 -5.86562E+01 -4.48657E+01 -5.19896E+01
  -5.71135E+01 -6.04268E+01 -5.93067E+01 -6.13262E+01 -6.17886E+01 -4.95762E+01 -5.71268E+01 -5.52705E+01 -5.15754E+01 -4.84368E+01
  -4.79155E+01 -5.66833E+01 -6.22623E+01 -4.28362E+01 -3.41612E+01 -2.92009E+01 -2.51345E+01 -4.44214E+01 -3.80266E+01 -4.13710E+01
  -5.00698E+01 -4.28261E+01 -4.09813E+01 -5.49302E+01 -6.65294E+01 -6.97843E+01 -7.10548E+01 -7.02321E+01 -7.18119E+01 -5.74240E+01
  -6.67853E+01 -6.40819E+01 -5.54876E+01 -8.14307E+01 -7.78082E+01 -7.53106E+01 -8.13923E+01 -7.82267E+01 -1.01528E+02 -9.16224E+01
  -6.12751E+01 -7.83670E+01 -8.06839E+01 -6.12786E+01 -4.92461E+01 -5.73783E+01 -3.70159E+01 -2.07540E+01 -3.70488E+01 -1.00386E+01
   5.16607E-01  9.44458E+00  1.11178E+01  1.48881E+01  2.68089E+01  6.56782E+00  7.37605E+00  1.45270E+01  2.37492E+01  3.24864E+01
   2.40151E+01 -2.39060E+01  5.88832E+00  4.65860E+01  1.66534E+00  2.36265E+01  1.55282E+01  1.65591E+01  4.15682E+01  2.57279E+01
   4.76752E+01  3.32904E+01  2.27814E+01  2.42339E+01  2.69240E+01  4.50009E+01  1.81871E+01  6.31792E+00  1.49029E+01  2.38918E+01
   1.99736E+01  9.57964E+00  2.04387E+01  2.02260E+01  1.57425E+01  2.18205E-01  6.45051E+00  4.61374E+00 -6.38978E+00  3.59895E+00
  -1.31260E+00  1.45667E+00 -1.99054E+01 -8.22969E-01  1.07777E+01 -1.00503E+01  1.19013E+01 -1.37099E+01 -1.21089E+01  1.02301E+01
  -1.58552E+01 -2.46838E+01 -2.55092E+01 -1.61741E+01  6.78938E+00 -1.46482E+01 -1.64356E+01  9.76602E+00 -8.58364E+00 -1.11483E+01
  -2.50884E+00 -6.69979E+00 -1.95677E+01  1.02421E+00  1.19182E+01 -4.91258E+00  1.23675E+01  9.87509E+00  1.14587E+01  5.89721E-01
  -1.05341E+01  2.51779E+00  7.56519E+00  9.05216E+00  6.09662E+00  5.19973E+00  1.10759E+00 -4.06379E+00 -2.22784E+00  5.33697E-01
  -3.96055E+01 -5.09631E+01 -4.55618E+01 -5.14445E+01 -3.42428E+01 -5.19482E+01 -6.28181E+01 -5.84581E+01 -5.10835E+01 -6.92041E+01
  -7.66134E+01 -5.79403E+01 -7.44921E+01 -8.18372E+01 -5.90120E+01 -4.96582E+01 -7.79121E+01 -7.38593E+01 -5.52675E+01 -5.87036E+01
  -6.81475E+01 -5.96160E+01 -4.85608E+01 -5.30202E+01 -3.18054E+01 -3.52429E+01 -4.73424E+01 -5.40842E+01 -3.17883E+01 -7.39881E+00
  -2.47536E+01 -1.26636E+01 -4.52769E+00  2.23797E-01  1.10889E+01  1.07293E+01  7.37008E+00  4.52301E+00  8.78910E+00  6.14571E+00
   2.83432E+01  5.32589E+01  4.16247E+01  4.73284E+01  4.76065E+01  3.51836E+01  5.26631E+01  4.58758E+01  6.27573E+01  8.04358E+01
   3.93490E+01  4.25383E+01  4.89811E+01  3.53502E+01  3.84471E+01  2.05730E+01  1.68862E+01  1.49427E+01  7.30118E+00  7.40193E+00
  -5.98385E+00 -1.37174E+01 -2.97530E+01 -2.56143E+01 -2.36487E+01 -3.32818E+01 -2.66260E+01 -3.59583E+01 -3.42189E+01 -3.54432E+01
  -3.53166E+01 -4.33242E+01 -3.13797E+01 -3.22787E+01 -6.29894E+01 -4.48678E+01 -4.76727E+01 -3.71899E+01 -3.68050E+01 -5.25996E+01
  -4.32610E+01 -4.02255E+01 -3.36799E+01 -5.70521E+01 -4.64164E+01 -3.77812E+01 -6.07036E+01 -5.66797E+01 -3.76294E+01 -3.30138E+01
  -5.27454E+01 -5.31942E+01 -4.58772E+01 -4.18596E+01 -4.43052E+01 -4.52090E+01 -4.70221E+01 -4.63173E+01 -4.38044E+01 -4.89016E+01
  -3.85224E+01 -3.60669E+01 -3.44146E+01 -4.89973E+01 -5.96799E+01 -5.45140E+01 -5.28333E+01 -4.52668E+01 -6.31673E+01 -4.31217E+01
  -2.41178E+01 -5.69641E+01 -4.86400E+01 -4.14772E+01 -4.95862E+01 -3.53860E+01 -2.96865E+01 -3.23433E+01 -4.24595E+01 -4.61539E+01
  -4.79232E+01 -5.21299E+01 -4.23604E+01 -4.99743E+01 -5.49339E+01 -5.56734E+01 -5.69684E+01 -3.47891E+01 -3.38489E+01 -3.96647E+01
  -4.69897E+01 -5.70320E+01 -6.05247E+01 -7.05019E+01 -4.27745E+01 -3.36159E+01 -3.84500E+01 -2.97304E+01 -5.45296E+01 -4.30903E+01
 NY points of the fit to the data follow
  -2.74712E+01 -2.69783E+01 -3.05863E+01 -2.94369E+01 -3.14723E+01 -3.14143E+01 -3.42533E+01 -3.66709E+01 -3.84041E+01 -4.25577E+01
  -4.16212E+01 -4.47665E+01 -4.30970E+01 -4.58437E+01 -4.74049E+01 -5.05782E+01 -4.77901E+01 -5.22864E+01 -4.96534E+01 -5.39343E+01
  -4.66823E+01 -4.91112E+01 -4.09151E+01 -4.48967E+01 -3.81729E+01 -4.25371E+01 -3.87491E+01 -4.22506E+01 -3.70074E+01 -3.89505E+01
  -3.37531E+01 -3.69790E+01 -3.85876E+01 -4.03003E+01 -4.65330E+01 -5.12176E+01 -6.56165E+01 -6.74157E+01 -7.66954E+01 -7.65148E+01
  -8.43857E+01 -8.12314E+01 -8.56945E+01 -8.24798E+01 -8.95693E+01 -8.48858E+01 -9.03480E+01 -8.45030E+01 -8.75917E+01 -8.29996E+01
  -8.20539E+01 -7.73220E+01 -7.34329E+01 -6.92275E+01 -6.90219E+01 -6.47105E+01 -6.56656E+01 -6.36462E+01 -6.55262E+01 -6.15516E+01
  -5.74266E+01 -5.39021E+01 -4.90041E+01 -4.51526E+01 -4.06595E+01 -3.93493E+01 -3.92199E+01 -3.79068E+01 -3.83250E+01 -3.66289E+01
  -3.58303E+01 -3.40667E+01 -3.24352E+01 -3.21043E+01 -3.16275E+01 -3.04495E+01 -3.07881E+01 -2.88533E+01 -2.75472E+01 -2.42816E+01
  -2.24520E+01 -1.96802E+01 -1.74713E+01 -1.58779E+01 -1.54812E+01 -1.31707E+01 -1.28660E+01 -1.10147E+01 -1.07490E+01 -8.65680E+00
  -4.89613E+00 -6.43576E-01  1.47701E+00  5.44627E+00  4.63682E+00  4.95617E+00  3.60936E+00  3.50442E+00  4.24665E+00  6.40802E+00
   2.97867E+00 -2.94353E-01 -2.29747E+00 -4.36626E+00 -1.08502E+01 -1.86725E+01 -2.41324E+01 -3.19605E+01 -3.46053E+01 -4.08477E+01
  -4.03056E+01 -4.31095E+01 -4.56815E+01 -5.27995E+01 -5.32810E+01 -5.66765E+01 -5.19718E+01 -4.97385E+01 -4.35468E+01 -3.96036E+01
  -3.35533E+01 -2.93376E+01 -2.74601E+01 -2.55702E+01 -2.39534E+01 -2.39985E+01 -2.07768E+01 -1.87614E+01 -1.61211E+01 -1.57777E+01
  -1.63932E+01 -1.99780E+01 -2.17204E+01 -2.62746E+01 -2.68902E+01 -2.83572E+01 -3.15715E+01 -3.73485E+01 -4.25344E+01 -5.15580E+01
  -5.56608E+01 -6.17588E+01 -6.35354E+01 -6.50738E+01 -6.50468E+01 -6.30577E+01 -6.66383E+01 -7.06234E+01 -7.37342E+01 -7.70387E+01
  -7.99541E+01 -8.34771E+01 -8.23225E+01 -8.09440E+01 -8.01315E+01 -7.88820E+01 -7.82002E+01 -7.63777E+01 -7.58581E+01 -7.45816E+01
  -7.42682E+01 -7.28443E+01 -7.20745E+01 -7.06067E+01 -6.87118E+01 -6.75155E+01 -6.61044E+01 -6.50715E+01 -6.32583E+01 -6.17626E+01
  -6.05782E+01 -6.00345E+01 -5.94872E+01 -5.90991E+01 -5.82554E+01 -5.85324E+01 -5.77809E+01 -5.85756E+01 -5.86585E+01 -5.97989E+01
  -6.04590E+01 -6.14574E+01 -6.14080E+01 -6.21728E+01 -6.18101E+01 -6.26400E+01 -6.11990E+01 -6.11644E+01 -6.09365E+01 -5.96553E+01
  -5.82287E+01 -5.64347E+01 -5.51779E+01 -5.52022E+01 -5.32999E+01 -5.29088E+01 -5.23003E+01 -5.30124E+01 -5.24476E+01 -5.41872E+01
  -5.40581E+01 -5.62940E+01 -5.69303E+01 -5.81377E+01 -5.89839E+01 -6.03711E+01 -6.15788E+01 -6.21687E+01 -6.41378E+01 -6.16326E+01
  -6.38730E+01 -5.99750E+01 -6.06281E+01 -5.39392E+01 -5.50444E+01 -4.76462E+01 -4.72816E+01 -4.06821E+01 -4.15209E+01 -3.53390E+01
  -3.75327E+01 -3.02645E+01 -3.30614E+01 -2.87874E+01 -3.11911E+01 -3.16098E+01 -3.63563E+01 -3.96702E+01 -4.65404E+01 -4.93436E+01
  -5.66774E+01 -5.69770E+01 -6.18383E+01 -6.29643E+01 -6.51004E+01 -6.73731E+01 -7.11781E+01 -7.27408E+01 -7.56388E+01 -7.63130E+01
  -8.04278E+01 -8.20191E+01 -8.35488E+01 -8.47783E+01 -8.45284E+01 -8.30943E+01 -8.03595E+01 -7.92089E+01 -7.97634E+01 -7.92443E+01
  -7.02902E+01 -7.13924E+01 -6.24550E+01 -6.26166E+01 -4.84972E+01 -4.71300E+01 -3.36807E+01 -3.23263E+01 -1.76469E+01 -1.91768E+01
  -6.48038E+00 -9.70100E+00  4.24597E+00  2.10245E+00  1.50430E+01  1.35675E+01  2.05337E+01  1.85330E+01  2.37624E+01  1.96501E+01
   2.15601E+01  1.82915E+01  2.65303E+01  2.41542E+01  2.85275E+01  2.70022E+01  3.11762E+01  2.92300E+01  2.77566E+01  2.55909E+01
   2.36708E+01  2.16841E+01  1.93957E+01  1.69837E+01  1.48258E+01  1.20397E+01  1.02296E+01  7.65004E+00  5.96682E+00  4.10631E+00
   2.58587E+00  1.27704E+00 -2.42175E-02 -1.08936E+00 -1.94491E+00 -2.82441E+00 -3.25733E+00 -3.55844E+00 -3.37410E+00 -3.10644E+00
  -2.43517E+00 -1.76914E+00 -7.01852E-01  2.13578E-01  1.41081E+00  2.44517E+00  3.87947E+00  5.10557E+00  6.62848E+00  7.93043E+00
   9.41217E+00  1.03863E+01  1.14843E+01  1.18858E+01  1.24240E+01  1.21099E+01  1.19221E+01  1.08952E+01  1.00489E+01  8.37476E+00
   6.66898E+00  4.06023E+00  1.41762E+00  6.12070E-01 -7.82517E-01 -6.14079E-01  4.53239E-01 -1.43324E+00 -1.25441E+00 -4.06677E+00
  -4.87881E+00 -4.90902E+00 -3.09296E+00 -4.77307E+00 -1.70121E+00 -4.58202E+00 -2.96293E+00 -9.02821E+00 -8.89659E+00 -1.74132E+01
  -2.14891E+01 -2.85120E+01 -3.23439E+01 -3.67290E+01 -3.85730E+01 -4.43189E+01 -4.65254E+01 -5.42521E+01 -6.01171E+01 -6.37643E+01
  -6.83061E+01 -6.66127E+01 -6.60643E+01 -6.24196E+01 -5.87398E+01 -6.00667E+01 -5.88579E+01 -6.16178E+01 -6.40563E+01 -6.43189E+01
  -6.49427E+01 -6.09693E+01 -5.88110E+01 -5.33749E+01 -4.83286E+01 -4.40391E+01 -3.96684E+01 -3.54629E+01 -3.08157E+01 -2.62821E+01
  -2.12168E+01 -1.62998E+01 -1.08069E+01 -5.71744E+00  2.70615E-02  5.28070E+00  1.12022E+01  1.63058E+01  2.18142E+01  2.62869E+01
   3.08689E+01  3.41281E+01  3.72328E+01  3.90719E+01  4.08023E+01  4.13240E+01  4.16803E+01  4.10890E+01  4.00721E+01  3.81222E+01
   3.55901E+01  3.23420E+01  2.85285E+01  2.45668E+01  2.03541E+01  1.64349E+01  1.22433E+01  8.47897E+00  4.22954E+00  1.68047E-01
  -4.43894E+00 -8.78379E+00 -1.33019E+01 -1.73687E+01 -2.13007E+01 -2.44745E+01 -2.74760E+01 -2.99269E+01 -3.23372E+01 -3.42521E+01
  -3.62343E+01 -3.79903E+01 -3.95584E+01 -4.08223E+01 -4.19454E+01 -4.28175E+01 -4.35221E+01 -4.39423E+01 -4.43345E+01 -4.45904E+01
  -4.48249E+01 -4.49374E+01 -4.50503E+01 -4.50989E+01 -4.50857E+01 -4.51478E+01 -4.50717E+01 -4.50943E+01 -4.49979E+01 -4.50539E+01
  -4.49217E+01 -4.48173E+01 -4.47406E+01 -4.46546E+01 -4.46657E+01 -4.45198E+01 -4.45239E+01 -4.44472E+01 -4.44695E+01 -4.43071E+01
  -4.43334E+01 -4.41869E+01 -4.42183E+01 -4.40486E+01 -4.41505E+01 -4.39992E+01 -4.41771E+01 -4.40013E+01 -4.42019E+01 -4.39406E+01
  -4.41467E+01 -4.38211E+01 -4.41216E+01 -4.37880E+01 -4.41580E+01 -4.38910E+01 -4.42829E+01 -4.39996E+01 -4.43407E+01 -4.41582E+01
  -4.44661E+01 -4.43166E+01 -4.46639E+01 -4.45973E+01 -4.49961E+01 -4.50168E+01 -4.53858E+01 -4.54901E+01 -4.58455E+01 -4.59481E+01
  -4.63316E+01 -4.65236E+01 -4.69920E+01 -4.72631E+01 -4.77708E+01 -4.81236E+01 -4.86185E+01 -4.90523E+01 -4.95270E+01 -5.01604E+01
 NY background values follow
     1.124E+01    1.001E+01    8.791E+00    7.570E+00    6.350E+00    5.134E+00    3.921E+00    2.711E+00    1.506E+00    3.059E-01
    -8.892E-01   -2.079E+00   -3.262E+00   -4.438E+00   -5.607E+00   -6.768E+00   -7.922E+00   -9.066E+00   -1.020E+01   -1.133E+01
    -1.244E+01   -1.355E+01   -1.464E+01   -1.572E+01   -1.679E+01   -1.785E+01   -1.890E+01   -1.993E+01   -2.094E+01   -2.194E+01
    -2.293E+01   -2.390E+01   -2.486E+01   -2.580E+01   -2.672E+01   -2.762E+01   -2.851E+01   -2.938E+01   -3.023E+01   -3.106E+01
    -3.187E+01   -3.266E+01   -3.342E+01   -3.417E+01   -3.490E+01   -3.560E+01   -3.628E+01   -3.693E+01   -3.757E+01   -3.817E+01
    -3.876E+01   -3.932E+01   -3.985E+01   -4.035E+01   -4.083E+01   -4.128E+01   -4.171E+01   -4.211E+01   -4.249E+01   -4.284E+01
    -4.317E+01   -4.347E+01   -4.375E+01   -4.401E+01   -4.424E+01   -4.446E+01   -4.465E+01   -4.482E+01   -4.498E+01   -4.511E+01
    -4.522E+01   -4.532E+01   -4.539E+01   -4.545E+01   -4.549E+01   -4.552E+01   -4.553E+01   -4.552E+01   -4.550E+01   -4.546E+01
    -4.541E+01   -4.534E+01   -4.527E+01   -4.517E+01   -4.507E+01   -4.496E+01   -4.483E+01   -4.469E+01   -4.454E+01   -4.439E+01
    -4.422E+01   -4.404E+01   -4.386E+01   -4.367E+01   -4.347E+01   -4.326E+01   -4.305E+01   -4.283E+01   -4.260E+01   -4.237E+01
    -4.214E+01   -4.190E+01   -4.166E+01   -4.142E+01   -4.117E+01   -4.092E+01   -4.067E+01   -4.042E+01   -4.017E+01   -3.991E+01
    -3.966E+01   -3.941E+01   -3.915E+01   -3.890E+01   -3.865E+01   -3.839E+01   -3.814E+01   -3.789E+01   -3.764E+01   -3.739E+01
    -3.714E+01   -3.689E+01   -3.664E+01   -3.639E+01   -3.615E+01   -3.591E+01   -3.567E+01   -3.543E+01   -3.519E+01   -3.496E+01
    -3.473E+01   -3.450E+01   -3.427E+01   -3.405E+01   -3.383E+01   -3.361E+01   -3.340E+01   -3.319E+01   -3.298E+01   -3.278E+01
    -3.258E+01   -3.238E+01   -3.219E+01   -3.201E+01   -3.182E+01   -3.165E+01   -3.148E+01   -3.131E+01   -3.115E+01   -3.099E+01
    -3.084E+01   -3.069E+01   -3.055E+01   -3.041E+01   -3.029E+01   -3.016E+01   -3.005E+01   -2.994E+01   -2.983E+01   -2.973E+01
    -2.964E+01   -2.956E+01   -2.948E+01   -2.941E+01   -2.935E+01   -2.929E+01   -2.924E+01   -2.920E+01   -2.916E+01   -2.912E+01
    -2.910E+01   -2.907E+01   -2.905E+01   -2.904E+01   -2.903E+01   -2.903E+01   -2.903E+01   -2.904E+01   -2.905E+01   -2.906E+01
    -2.908E+01   -2.911E+01   -2.913E+01   -2.916E+01   -2.920E+01   -2.923E+01   -2.927E+01   -2.932E+01   -2.936E+01   -2.941E+01
    -2.946E+01   -2.951E+01   -2.957E+01   -2.963E+01   -2.969E+01   -2.975E+01   -2.981E+01   -2.988E+01   -2.994E+01   -3.001E+01
    -3.008E+01   -3.015E+01   -3.022E+01   -3.029E+01   -3.036E+01   -3.043E+01   -3.050E+01   -3.058E+01   -3.065E+01   -3.072E+01
    -3.079E+01   -3.086E+01   -3.093E+01   -3.100E+01   -3.107E+01   -3.113E+01   -3.120E+01   -3.127E+01   -3.133E+01   -3.140E+01
    -3.147E+01   -3.153E+01   -3.160E+01   -3.167E+01   -3.174E+01   -3.182E+01   -3.189E+01   -3.197E+01   -3.205E+01   -3.213E+01
    -3.221E+01   -3.230E+01   -3.239E+01   -3.249E+01   -3.259E+01   -3.269E+01   -3.280E+01   -3.291E+01   -3.303E+01   -3.315E+01
    -3.328E+01   -3.341E+01   -3.355E+01   -3.369E+01   -3.384E+01   -3.400E+01   -3.417E+01   -3.434E+01   -3.452E+01   -3.470E+01
    -3.489E+01   -3.510E+01   -3.531E+01   -3.552E+01   -3.575E+01   -3.599E+01   -3.623E+01   -3.649E+01   -3.675E+01   -3.702E+01
    -3.731E+01   -3.760E+01   -3.791E+01   -3.822E+01   -3.855E+01   -3.889E+01   -3.924E+01   -3.960E+01   -3.997E+01   -4.036E+01
    -4.075E+01   -4.115E+01   -4.156E+01   -4.198E+01   -4.241E+01   -4.284E+01   -4.328E+01   -4.372E+01   -4.416E+01   -4.462E+01
    -4.507E+01   -4.552E+01   -4.598E+01   -4.644E+01   -4.690E+01   -4.735E+01   -4.781E+01   -4.827E+01   -4.872E+01   -4.917E+01
    -4.961E+01   -5.005E+01   -5.048E+01   -5.091E+01   -5.133E+01   -5.175E+01   -5.215E+01   -5.255E+01   -5.294E+01   -5.331E+01
    -5.368E+01   -5.403E+01   -5.437E+01   -5.470E+01   -5.502E+01   -5.532E+01   -5.560E+01   -5.587E+01   -5.613E+01   -5.636E+01
    -5.658E+01   -5.678E+01   -5.696E+01   -5.712E+01   -5.726E+01   -5.738E+01   -5.747E+01   -5.755E+01   -5.760E+01   -5.762E+01
    -5.762E+01   -5.760E+01   -5.755E+01   -5.748E+01   -5.739E+01   -5.727E+01   -5.713E+01   -5.698E+01   -5.680E+01   -5.660E+01
    -5.638E+01   -5.615E+01   -5.590E+01   -5.563E+01   -5.534E+01   -5.504E+01   -5.472E+01   -5.439E+01   -5.405E+01   -5.369E+01
    -5.332E+01   -5.294E+01   -5.255E+01   -5.214E+01   -5.173E+01   -5.131E+01   -5.088E+01   -5.044E+01   -4.999E+01   -4.954E+01
    -4.908E+01   -4.862E+01   -4.815E+01   -4.767E+01   -4.720E+01   -4.672E+01   -4.624E+01   -4.575E+01   -4.527E+01   -4.479E+01
    -4.430E+01   -4.382E+01   -4.334E+01   -4.286E+01   -4.238E+01   -4.191E+01   -4.144E+01   -4.098E+01   -4.052E+01   -4.007E+01
    -3.963E+01   -3.919E+01   -3.876E+01   -3.834E+01   -3.793E+01   -3.753E+01   -3.714E+01   -3.675E+01   -3.638E+01   -3.601E+01
    -3.565E+01   -3.530E+01   -3.496E+01   -3.462E+01   -3.430E+01   -3.398E+01   -3.367E+01   -3.336E+01   -3.307E+01   -3.278E+01
    -3.250E+01   -3.222E+01   -3.195E+01   -3.169E+01   -3.144E+01   -3.119E+01   -3.095E+01   -3.072E+01   -3.049E+01   -3.027E+01
    -3.005E+01   -2.984E+01   -2.963E+01   -2.944E+01   -2.924E+01   -2.906E+01   -2.887E+01   -2.870E+01   -2.852E+01   -2.836E+01
    -2.819E+01   -2.804E+01   -2.788E+01   -2.774E+01   -2.759E+01   -2.745E+01   -2.732E+01   -2.719E+01   -2.706E+01   -2.694E+01
    -2.682E+01   -2.670E+01   -2.659E+01   -2.648E+01   -2.637E+01   -2.627E+01   -2.617E+01   -2.607E+01   -2.598E+01   -2.589E+01
    -2.580E+01   -2.571E+01   -2.562E+01   -2.554E+01   -2.546E+01   -2.538E+01   -2.531E+01   -2.523E+01   -2.516E+01   -2.509E+01
    -2.502E+01   -2.495E+01   -2.488E+01   -2.481E+01   -2.474E+01   -2.468E+01   -2.461E+01   -2.454E+01   -2.448E+01   -2.441E+01
    -2.435E+01   -2.428E+01   -2.422E+01   -2.415E+01   -2.409E+01   -2.402E+01   -2.395E+01   -2.388E+01   -2.381E+01   -2.374E+01
    -2.367E+01   -2.360E+01   -2.352E+01   -2.345E+01   -2.337E+01   -2.329E+01   -2.321E+01   -2.312E+01   -2.304E+01   -2.295E+01
    -2.286E+01   -2.277E+01   -2.267E+01   -2.257E+01   -2.247E+01   -2.236E+01   -2.226E+01   -2.214E+01   -2.203E+01   -2.191E+01
 Mac      Conc. = 2.78E-04
  -7.27061E+00 -9.43939E+00 -1.13803E+01 -1.35486E+01 -1.53913E+01 -1.75994E+01 -1.94014E+01 -2.13696E+01 -2.31523E+01 -2.50418E+01
  -2.66599E+01 -2.79704E+01 -2.91606E+01 -3.00238E+01 -3.07059E+01 -3.11722E+01 -3.17051E+01 -3.21438E+01 -3.26583E+01 -3.27641E+01
  -3.29539E+01 -3.26457E+01 -3.23937E+01 -3.20547E+01 -3.17838E+01 -3.15983E+01 -3.15197E+01 -3.14322E+01 -3.14034E+01 -3.10310E+01
  -3.08447E+01 -3.03871E+01 -2.99483E+01 -2.94330E+01 -2.91161E+01 -2.89961E+01 -2.89817E+01 -2.89946E+01 -2.91086E+01 -2.91622E+01
  -2.92571E+01 -2.93816E+01 -2.96038E+01 -2.99504E+01 -3.03509E+01 -3.09002E+01 -3.13992E+01 -3.19138E+01 -3.24108E+01 -3.28347E+01
  -3.32713E+01 -3.37125E+01 -3.42133E+01 -3.45452E+01 -3.49307E+01 -3.50848E+01 -3.53726E+01 -3.53949E+01 -3.57282E+01 -3.56778E+01
  -3.59502E+01 -3.58368E+01 -3.61026E+01 -3.59344E+01 -3.60075E+01 -3.57259E+01 -3.58096E+01 -3.54217E+01 -3.54314E+01 -3.48868E+01
  -3.49277E+01 -3.43865E+01 -3.41658E+01 -3.35482E+01 -3.32612E+01 -3.26458E+01 -3.24263E+01 -3.17730E+01 -3.17605E+01 -3.11413E+01
  -3.11972E+01 -3.05134E+01 -3.03383E+01 -2.94800E+01 -2.92398E+01 -2.82889E+01 -2.80651E+01 -2.72532E+01 -2.75084E+01 -2.71397E+01
  -2.78161E+01 -2.79650E+01 -2.89387E+01 -2.93899E+01 -3.05270E+01 -3.13021E+01 -3.28669E+01 -3.40484E+01 -3.58911E+01 -3.75325E+01
  -3.96162E+01 -4.13903E+01 -4.32472E+01 -4.48858E+01 -4.63725E+01 -4.76946E+01 -4.87980E+01 -4.97915E+01 -5.02834E+01 -5.07411E+01
