 
 $NMID
 ID=''
 FMTDAT='(2E13.5)'
 TRAMP=   1.00000E+0
 VOLUME=   1.00000E+0
 $END
  -1.37628E+5   7.35515E+5
  -1.09259E+6   1.73100E+6
  -8.85088E+5   1.82433E+6
  -9.09462E+5   1.65421E+6
  -1.01773E+6   1.66105E+6
  -9.89843E+5   1.67071E+6
  -9.92810E+5   1.62212E+6
  -1.02796E+6   1.61747E+6
  -1.02508E+6   1.57860E+6
  -1.07098E+6   1.53710E+6
  -1.09271E+6   1.53928E+6
  -1.07834E+6   1.49117E+6
  -1.11666E+6   1.44044E+6
  -1.14560E+6   1.43925E+6
  -1.13914E+6   1.40019E+6
  -1.16125E+6   1.35161E+6
  -1.18636E+6   1.34243E+6
  -1.19218E+6   1.31072E+6
  -1.21323E+6   1.26902E+6
  -1.22523E+6   1.25339E+6
  -1.23108E+6   1.22061E+6
  -1.25059E+6   1.18816E+6
  -1.26027E+6   1.16876E+6
  -1.26681E+6   1.13213E+6
  -1.28546E+6   1.09612E+6
  -1.28790E+6   1.08108E+6
  -1.29371E+6   1.04990E+6
  -1.31118E+6   1.01449E+6
  -1.31615E+6   9.87101E+5
  -1.31653E+6   9.59867E+5
  -1.33147E+6   9.30569E+5
  -1.33597E+6   9.04477E+5
  -1.33699E+6   8.73655E+5
  -1.34462E+6   8.48196E+5
  -1.34706E+6   8.25074E+5
  -1.34783E+6   8.00591E+5
  -1.35554E+6   7.79028E+5
  -1.35992E+6   7.54138E+5
  -1.35980E+6   7.24826E+5
  -1.36262E+6   7.01015E+5
  -1.36283E+6   6.76505E+5
  -1.36277E+6   6.49456E+5
  -1.36135E+6   6.26046E+5
  -1.36042E+6   6.03192E+5
  -1.36008E+6   5.76895E+5
  -1.36228E+6   5.53525E+5
  -1.36184E+6   5.28733E+5
  -1.36031E+6   5.00069E+5
  -1.35680E+6   4.75663E+5
  -1.35366E+6   4.54395E+5
  -1.35252E+6   4.30815E+5
  -1.35104E+6   4.07140E+5
  -1.34816E+6   3.86370E+5
  -1.34552E+6   3.64204E+5
  -1.34241E+6   3.39915E+5
  -1.33859E+6   3.16571E+5
  -1.33373E+6   2.93796E+5
  -1.32725E+6   2.70742E+5
  -1.32058E+6   2.49607E+5
  -1.31581E+6   2.29330E+5
  -1.31044E+6   2.07774E+5
  -1.30491E+6   1.86244E+5
  -1.29930E+6   1.64571E+5
  -1.29287E+6   1.43504E+5
  -1.28363E+6   1.22572E+5
  -1.27438E+6   1.02888E+5
  -1.26579E+6   8.35960E+4
  -1.25738E+6   6.55354E+4
  -1.24964E+6   4.67780E+4
  -1.24259E+6   2.68482E+4
  -1.23303E+6   6.55420E+3
  -1.22196E+6  -1.11715E+4
  -1.21328E+6  -2.78402E+4
  -1.20509E+6  -4.62165E+4
  -1.19450E+6  -6.46418E+4
  -1.18237E+6  -8.17289E+4
  -1.17273E+6  -9.80837E+4
  -1.16269E+6  -1.15115E+5
  -1.15148E+6  -1.32303E+5
  -1.13952E+6  -1.48510E+5
  -1.12777E+6  -1.64910E+5
  -1.11596E+6  -1.80359E+5
  -1.10421E+6  -1.95791E+5
  -1.09188E+6  -2.11581E+5
  -1.07867E+6  -2.27468E+5
  -1.06557E+6  -2.41998E+5
  -1.05317E+6  -2.55749E+5
  -1.04073E+6  -2.69437E+5
  -1.02708E+6  -2.83175E+5
  -1.01361E+6  -2.95240E+5
  -1.00050E+6  -3.06465E+5
  -9.88083E+5  -3.18086E+5
  -9.75162E+5  -3.30408E+5
  -9.60795E+5  -3.41520E+5
  -9.45986E+5  -3.51510E+5
  -9.32674E+5  -3.60286E+5
  -9.20146E+5  -3.70244E+5
  -9.06931E+5  -3.80457E+5
  -8.92965E+5  -3.90077E+5
  -8.79453E+5  -3.98209E+5
  -8.66686E+5  -4.07208E+5
  -8.52714E+5  -4.16722E+5
  -8.37710E+5  -4.25384E+5
  -8.22974E+5  -4.32957E+5
  -8.09209E+5  -4.39171E+5
  -7.96521E+5  -4.45764E+5
  -7.83856E+5  -4.52687E+5
  -7.69290E+5  -4.60199E+5
  -7.54579E+5  -4.66080E+5
  -7.41179E+5  -4.70116E+5
  -7.28599E+5  -4.75069E+5
  -7.16138E+5  -4.81889E+5
  -7.02181E+5  -4.88434E+5
  -6.87666E+5  -4.93445E+5
  -6.74275E+5  -4.98787E+5
  -6.60801E+5  -5.04363E+5
  -6.46629E+5  -5.09620E+5
  -6.31807E+5  -5.13724E+5
  -6.17883E+5  -5.16453E+5
  -6.05666E+5  -5.19289E+5
  -5.93210E+5  -5.23030E+5
  -5.80427E+5  -5.26695E+5
  -5.67788E+5  -5.30081E+5
  -5.55056E+5  -5.32884E+5
  -5.41538E+5  -5.36218E+5
  -5.27981E+5  -5.38348E+5
  -5.14907E+5  -5.40004E+5
  -5.02223E+5  -5.42065E+5
  -4.89339E+5  -5.44187E+5
  -4.76404E+5  -5.46770E+5
  -4.63179E+5  -5.49520E+5
  -4.48756E+5  -5.51569E+5
  -4.35379E+5  -5.52800E+5
  -4.22833E+5  -5.53661E+5
  -4.10368E+5  -5.55223E+5
  -3.96851E+5  -5.55891E+5
  -3.84145E+5  -5.56040E+5
  -3.72655E+5  -5.56245E+5
  -3.60475E+5  -5.57254E+5
  -3.47510E+5  -5.57802E+5
  -3.34732E+5  -5.57018E+5
  -3.22819E+5  -5.55623E+5
  -3.11689E+5  -5.54723E+5
  -3.00325E+5  -5.54545E+5
  -2.88151E+5  -5.54457E+5
  -2.76153E+5  -5.53188E+5
  -2.64265E+5  -5.51285E+5
  -2.52587E+5  -5.49788E+5
  -2.41120E+5  -5.47902E+5
  -2.30406E+5  -5.45694E+5
  -2.19561E+5  -5.43088E+5
  -2.09127E+5  -5.40522E+5
  -1.99111E+5  -5.38539E+5
  -1.89262E+5  -5.36532E+5
  -1.78961E+5  -5.33396E+5
  -1.68817E+5  -5.30266E+5
  -1.59524E+5  -5.27093E+5
  -1.50302E+5  -5.24477E+5
  -1.40707E+5  -5.21185E+5
  -1.31276E+5  -5.17736E+5
  -1.22450E+5  -5.14228E+5
  -1.13569E+5  -5.10735E+5
  -1.04437E+5  -5.06668E+5
  -9.55717E+4  -5.02748E+5
  -8.72389E+4  -4.98435E+5
  -7.96639E+4  -4.94576E+5
  -7.16578E+4  -4.91063E+5
  -6.35194E+4  -4.87610E+5
  -5.52104E+4  -4.83235E+5
  -4.79285E+4  -4.79051E+5
  -4.10646E+4  -4.74615E+5
  -3.37122E+4  -4.70694E+5
  -2.65902E+4  -4.66599E+5
  -1.91654E+4  -4.61847E+5
  -1.26961E+4  -4.57416E+5
  -5.79227E+3  -4.53128E+5
   1.40807E+3  -4.48995E+5
   8.44357E+3  -4.44325E+5
   1.52295E+4  -4.39075E+5
   2.10745E+4  -4.34473E+5
   2.73188E+4  -4.30413E+5
   3.35726E+4  -4.26013E+5
   4.02117E+4  -4.21111E+5
   4.60728E+4  -4.16092E+5
   5.19271E+4  -4.11398E+5
   5.71998E+4  -4.06406E+5
   6.24437E+4  -4.01344E+5
   6.77091E+4  -3.96342E+5
   7.23364E+4  -3.91277E+5
   7.68127E+4  -3.86841E+5
   8.23235E+4  -3.82734E+5
   8.78334E+4  -3.77472E+5
   9.32596E+4  -3.71858E+5
   9.75194E+4  -3.66327E+5
   1.02166E+5  -3.61336E+5
   1.06657E+5  -3.56352E+5
   1.11711E+5  -3.51183E+5
   1.15919E+5  -3.45607E+5
   1.20475E+5  -3.40322E+5
   1.24917E+5  -3.35129E+5
   1.29286E+5  -3.29507E+5
   1.33252E+5  -3.23884E+5
   1.36745E+5  -3.17871E+5
   1.39986E+5  -3.12907E+5
   1.43683E+5  -3.07584E+5
   1.47383E+5  -3.02028E+5
   1.50924E+5  -2.96368E+5
   1.53949E+5  -2.90669E+5
   1.56984E+5  -2.85236E+5
   1.60320E+5  -2.79750E+5
   1.63378E+5  -2.73593E+5
   1.65979E+5  -2.67766E+5
   1.68355E+5  -2.62881E+5
   1.71321E+5  -2.57865E+5
   1.74410E+5  -2.51868E+5
   1.76740E+5  -2.45481E+5
   1.78383E+5  -2.39667E+5
   1.80177E+5  -2.34596E+5
   1.81988E+5  -2.29237E+5
   1.83940E+5  -2.23735E+5
   1.85492E+5  -2.18574E+5
   1.86864E+5  -2.13221E+5
   1.88641E+5  -2.08108E+5
   1.90118E+5  -2.02678E+5
   1.91278E+5  -1.97186E+5
   1.92016E+5  -1.91787E+5
   1.92499E+5  -1.86985E+5
   1.93410E+5  -1.82181E+5
   1.94718E+5  -1.77082E+5
   1.95506E+5  -1.71949E+5
   1.96081E+5  -1.66594E+5
   1.96026E+5  -1.61723E+5
   1.96464E+5  -1.57425E+5
   1.97040E+5  -1.52861E+5
   1.97093E+5  -1.47887E+5
   1.96880E+5  -1.43527E+5
   1.97489E+5  -1.39290E+5
   1.97343E+5  -1.35072E+5
   1.97370E+5  -1.30410E+5
   1.96867E+5  -1.26274E+5
   1.96430E+5  -1.22427E+5
   1.96058E+5  -1.18338E+5
   1.96199E+5  -1.14323E+5
   1.95712E+5  -1.10252E+5
   1.95039E+5  -1.06023E+5
   1.94675E+5  -1.02538E+5
   1.94226E+5  -9.87541E+4
   1.93786E+5  -9.50416E+4
   1.93036E+5  -9.09898E+4
   1.91836E+5  -8.75996E+4
   1.91323E+5  -8.45597E+4
   1.91010E+5  -8.13342E+4
   1.90147E+5  -7.71732E+4
   1.89059E+5  -7.38638E+4
   1.87890E+5  -7.08020E+4
   1.87032E+5  -6.77376E+4
   1.86163E+5  -6.43509E+4
   1.85476E+5  -6.08955E+4
   1.84412E+5  -5.78256E+4
   1.83419E+5  -5.48982E+4
   1.82735E+5  -5.15582E+4
   1.81729E+5  -4.81123E+4
   1.80204E+5  -4.49924E+4
   1.78731E+5  -4.20810E+4
   1.77411E+5  -3.95080E+4
   1.76649E+5  -3.68936E+4
   1.75472E+5  -3.37531E+4
   1.74196E+5  -3.08944E+4
   1.72785E+5  -2.81025E+4
   1.71329E+5  -2.57042E+4
   1.69786E+5  -2.32064E+4
   1.68328E+5  -2.04007E+4
   1.66843E+5  -1.82968E+4
   1.65533E+5  -1.60655E+4
   1.64597E+5  -1.36856E+4
   1.62929E+5  -1.06709E+4
   1.61364E+5  -8.09896E+3
   1.59331E+5  -5.68246E+3
   1.57861E+5  -3.81462E+3
   1.56496E+5  -1.58242E+3
   1.54813E+5   6.24588E+2
   1.53330E+5   2.93403E+3
   1.51516E+5   4.73328E+3
   1.50001E+5   6.46831E+3
   1.48085E+5   8.67115E+3
   1.46395E+5   1.07113E+4
   1.44171E+5   1.26512E+4
   1.42582E+5   1.38430E+4
   1.41321E+5   1.52514E+4
   1.39650E+5   1.72043E+4
   1.37691E+5   1.90394E+4
   1.35907E+5   2.05322E+4
   1.34132E+5   2.20495E+4
   1.32156E+5   2.35694E+4
   1.30406E+5   2.47618E+4
   1.28451E+5   2.63404E+4
   1.26726E+5   2.74640E+4
   1.25066E+5   2.88289E+4
   1.23457E+5   3.04813E+4
   1.21324E+5   3.16139E+4
   1.19680E+5   3.27802E+4
   1.17770E+5   3.34765E+4
   1.16379E+5   3.43904E+4
   1.14664E+5   3.56273E+4
   1.12774E+5   3.68641E+4
   1.10845E+5   3.76655E+4
   1.09073E+5   3.86400E+4
   1.07517E+5   3.94933E+4
   1.05368E+5   4.02602E+4
   1.03812E+5   4.09654E+4
   1.02150E+5   4.17784E+4
   1.00513E+5   4.20448E+4
   9.90206E+4   4.32079E+4
   9.70785E+4   4.39995E+4
   9.54040E+4   4.44934E+4
   9.35395E+4   4.48839E+4
   9.19173E+4   4.57613E+4
   8.99850E+4   4.59142E+4
   8.86701E+4   4.66404E+4
   8.69146E+4   4.71254E+4
   8.49995E+4   4.75356E+4
   8.35521E+4   4.79766E+4
   8.18192E+4   4.81512E+4
   8.00979E+4   4.86116E+4
   7.85939E+4   4.87792E+4
   7.71382E+4   4.90701E+4
   7.54763E+4   4.95585E+4
   7.40088E+4   4.99175E+4
   7.20809E+4   5.02373E+4
   7.04454E+4   5.03454E+4
   6.89294E+4   5.04026E+4
   6.76253E+4   5.05733E+4
   6.60369E+4   5.06852E+4
   6.44097E+4   5.07589E+4
   6.31633E+4   5.06701E+4
   6.18073E+4   5.10793E+4
   6.02533E+4   5.13282E+4
   5.85622E+4   5.16068E+4
   5.69262E+4   5.11461E+4
   5.56168E+4   5.09340E+4
   5.43559E+4   5.10082E+4
   5.27788E+4   5.11707E+4
   5.13270E+4   5.09694E+4
   4.96425E+4   5.08386E+4
   4.85259E+4   5.06239E+4
   4.71704E+4   5.07987E+4
   4.58766E+4   5.05371E+4
   4.42550E+4   5.05533E+4
   4.31226E+4   4.99732E+4
   4.22752E+4   4.99517E+4
   4.10201E+4   4.99524E+4
   3.93828E+4   4.97689E+4
   3.81118E+4   4.94179E+4
   3.69069E+4   4.90798E+4
   3.57031E+4   4.91257E+4
   3.45501E+4   4.86740E+4
   3.35360E+4   4.83101E+4
   3.23546E+4   4.79222E+4
   3.12486E+4   4.76510E+4
   3.01282E+4   4.77365E+4
   2.88897E+4   4.74911E+4
   2.79121E+4   4.69513E+4
   2.69023E+4   4.62046E+4
   2.57600E+4   4.59906E+4
   2.50329E+4   4.56196E+4
   2.40862E+4   4.53589E+4
   2.29142E+4   4.50967E+4
