 
 $NMID
 ID=''
 FMTDAT='(2E13.5)'
 TRAMP=   1.00000E+0
 VOLUME=   1.00000E+0
 $END
  -1.28783E+4   2.43053E+4
   2.32756E+4   1.56452E+4
   1.92418E+4  -3.18779E+4
  -2.34669E+4  -2.33082E+4
  -2.43502E+4   2.64418E+4
   1.61940E+4   2.27372E+4
   2.29690E+4  -1.82131E+4
  -6.85957E+3  -2.02756E+4
  -1.76836E+4   8.02487E+3
   7.91134E+2   1.81488E+4
   1.40608E+4   3.33625E+3
   4.52828E+3  -1.13587E+4
  -9.68167E+3  -5.11304E+3
  -7.61053E+3   7.77451E+3
   3.26541E+3   4.71359E+3
   5.86695E+3  -5.09040E+3
   5.45036E+1  -4.10783E+3
  -3.33583E+3   8.66885E+2
  -9.48546E+2   2.11405E+3
   2.92783E+3   9.59200E+2
   1.72475E+3  -6.34001E+2
  -9.36824E+2  -2.28075E+3
   5.08966E+1  -3.48553E+2
   4.45274E+2   1.75701E+3
  -3.98017E+2   6.70492E+1
   1.53495E+3  -1.62445E+3
   2.22244E+3  -4.39185E+2
  -8.98073E+2   1.22131E+3
  -1.86470E+3   3.47160E+2
   9.21812E+2  -7.32265E+2
   1.28382E+3   2.74472E+2
  -6.95393E+2   5.15527E+2
  -1.42578E+3  -2.06939E+2
  -8.87992E+2  -3.83380E+2
  -3.70503E+2  -1.24318E+3
   1.16205E+3  -1.53710E+3
   1.35294E+3   5.05408E+2
   1.77322E+2   1.21509E+3
  -4.51836E+2  -4.57346E+2
   7.24803E+1  -4.11957E+2
  -5.62879E+2   6.70386E+2
  -1.21020E+3   5.19118E+1
   1.01516E+2  -1.36195E+3
   1.19604E+3  -9.10855E+2
   1.03821E+2   3.56427E+2
  -5.20157E+1   1.28913E+3
   2.28907E+2   1.32808E+3
  -7.31180E+2   4.86485E+2
  -1.33951E+3  -3.96511E+2
  -1.01797E+3  -1.04325E+3
  -3.87372E+1  -8.31785E+2
   6.35770E+2  -5.05241E+2
   5.29400E+2  -1.97383E+2
   4.52675E+1  -4.25829E+1
  -1.51275E+1   9.33017E+2
   4.08216E+1   1.03966E+3
  -8.23776E+2   6.87684E+2
  -1.07284E+3  -8.62611E+2
   1.45010E+2  -1.32497E+3
   4.87655E+2   1.61055E+2
   2.66555E+2   9.85468E+2
   5.44226E+2   2.12902E+2
   5.37376E+2   4.48040E+2
  -1.00430E+3   1.39739E+3
  -1.97683E+3   7.66994E+2
  -1.12359E+3  -8.63333E+2
   2.19729E+2  -1.33503E+3
   3.54317E+2  -5.66399E+2
   2.99382E+2   1.15484E+1
   3.47891E+2   2.13206E+2
  -2.37921E+1  -2.70677E+1
  -1.16098E+2  -2.92734E+2
   1.99955E+2   2.18298E+2
   3.09950E+2   9.42730E+2
   8.42078E+0   5.12661E+2
  -4.91873E+2  -1.36459E+2
  -1.33812E+2  -2.09649E+2
   1.75971E+2   6.45686E+2
  -1.15536E+2   8.03879E+2
  -7.47332E+2  -2.82560E+1
  -5.55850E+2  -3.95325E+2
  -2.65256E+2  -1.07775E+2
  -3.91164E+1   6.28213E+1
  -7.33401E+1  -2.31147E+2
  -3.49817E+2  -3.25363E+2
   6.30221E+2  -2.49582E+2
   4.23952E+2  -2.34547E+2
   1.07995E+2   4.33025E+2
   1.95563E+1  -5.57594E+1
   1.32923E+2  -9.98726E+1
   4.54519E+2   3.77974E+1
   6.36410E+1   5.08853E+2
  -4.43773E+2   8.03783E+2
  -7.52685E+2   3.44796E+2
  -3.16583E+2  -4.88124E+2
  -1.19725E+1  -6.89891E+2
   2.47248E+2   9.93272E+0
  -7.14826E+1   1.80366E+2
  -1.17955E+1  -2.85682E+2
   3.67205E+2  -1.67238E+2
   3.47388E+2   4.08854E+2
  -8.93985E+0   7.30594E+2
  -3.17827E+2   2.34659E+2
  -2.55456E+2  -2.97873E+2
   1.09122E+2  -4.08734E+2
   4.31118E+2   2.83928E+2
   1.26704E+1   7.49912E+2
  -7.78484E+2   1.72366E+2
  -4.63985E+2  -7.42858E+2
   3.78991E+2  -8.20682E+2
   1.07861E+3  -1.96044E+2
   4.73580E+2   4.91886E+2
   1.03381E+2   5.58468E+2
   2.54086E+2   3.53144E+2
   1.97286E+2   4.54895E+2
  -1.76655E+2   5.48245E+2
  -6.78609E+2   1.24264E+2
  -9.34981E+2  -2.51907E+2
  -1.79699E+2  -9.59889E+2
   4.52467E+2  -5.53854E+2
   7.11464E+2   9.25182E+1
   5.50664E+2   2.60967E+2
   3.53939E+2   4.21136E+2
  -1.99466E+2   4.51561E+2
  -5.84709E+2   2.23816E+2
  -2.22356E+2  -1.60162E+2
   1.16323E+2  -3.37638E+2
   1.15169E+2  -1.84035E+2
   4.16533E+1  -1.86181E+1
   3.04941E+2   3.39833E+2
  -6.61033E+1   5.40747E+2
  -5.52437E+2  -2.59161E+2
  -2.48247E+2  -3.14581E+2
   1.97606E+2  -8.11566E+1
   7.75470E+1  -6.16712E+1
   2.43993E+0  -2.83108E+2
   3.73737E+2  -1.82213E+2
   6.39636E+2  -5.50774E+1
   9.92013E+1   6.19218E+2
  -2.92975E+2   1.38929E+2
  -4.33149E+2  -7.24729E+1
   9.86744E+1  -5.69709E+2
   5.01359E+2  -2.51718E+2
   3.02799E+2   2.13340E+2
   1.18571E+2   4.24932E+2
  -1.38267E+2   1.99216E+2
   5.00913E+1   1.61779E+2
  -1.99978E+1  -1.14211E+2
  -3.73336E+2   2.45841E+2
  -1.91505E+2  -3.95455E+2
  -5.64006E+1  -4.00226E+2
   3.79400E+2  -1.85224E+2
   5.93202E+2   1.35960E+2
   2.93911E+2   2.93213E+2
   1.64653E+2   1.23059E+2
  -6.04962E+1  -5.23919E+1
   4.06754E+2   2.86456E+2
  -8.85705E-1   5.82023E+2
   1.20271E+2   2.93135E+2
   7.83806E+1  -2.76883E+1
  -1.46355E+2   2.19737E+2
  -2.85027E+1   1.23146E+2
  -5.33498E+1   1.79398E+2
  -9.38048E+1  -1.87159E+2
   2.94983E+2  -2.83573E+2
   2.26884E+2  -3.44083E+2
   3.86939E+2   1.60888E+2
  -2.27792E+2   1.23080E+1
   1.35198E+2  -9.24155E+1
   2.23648E+2  -1.37885E+2
   1.41338E+2   1.68084E+2
  -3.96558E+1   3.83717E+2
  -4.48266E+1   9.44187E+1
  -1.21211E+2   7.85995E+1
   3.82832E+1   6.16554E+1
  -4.44765E+1   2.46320E+2
  -2.87150E+2   6.75583E+1
  -7.91973E+1  -1.61139E+2
   9.80158E+1  -3.12568E+2
   2.56546E+2  -5.70397E-1
   4.44100E+2   3.62255E+2
  -3.40809E+2   3.52744E+2
  -2.03722E+2   2.28701E+2
  -3.44325E+2   2.55250E+1
  -1.03534E+2  -1.91940E+2
  -1.41425E+2  -5.47740E+1
   8.39357E+1  -2.38742E+2
   8.64090E+1  -1.74408E+2
   2.59876E+2   1.74583E+2
   5.34375E+2   3.61248E+2
   8.82530E+1   6.32964E+2
  -2.06380E+2   3.49633E+2
  -1.91700E+2  -1.05018E+2
   3.78806E+1  -1.00233E+2
   2.12868E+2   1.37544E+2
   1.35849E+2  -8.33508E-1
   3.48763E+2  -6.64867E-1
   1.97248E+2   3.13968E+0
   2.90109E+2   2.90052E+2
   3.37340E+1   2.80187E+2
  -6.36348E+1   8.68457E+1
  -1.31882E+2  -1.61599E+2
   1.36699E+2  -5.48835E+2
   3.14958E+2  -2.19196E+2
   3.60225E+0   1.79686E+2
  -7.64603E+1   2.08056E+2
  -2.58257E+2  -3.28295E+1
  -3.59457E+1   2.03550E+1
  -1.25490E+2   3.07070E+2
  -7.11405E+1   1.78985E+2
  -1.01347E+2  -4.12684E+2
   3.10594E+2  -2.71118E+2
   4.58997E+2   1.59446E+2
  -1.31966E+1   6.46111E+2
  -3.61490E+2   1.78062E+2
  -3.83361E+2   1.60465E+1
  -4.35333E+1  -2.30838E+2
   1.56555E+1  -1.41514E+2
   8.95723E+1  -1.10541E+2
   1.30204E+2  -2.28169E+0
   9.43107E+1  -1.61697E+2
   1.42074E+2  -3.60687E+0
   7.49133E+1   3.95180E+2
  -7.36983E+1   6.89467E+1
  -2.13814E+2  -5.11267E+1
  -2.85576E+2  -1.86801E+2
   1.09177E+2  -8.21541E+1
   1.17199E+2   1.80892E+2
   2.16981E+1   1.61802E+2
   4.64058E+1   5.52550E+1
  -2.57897E+1  -1.20355E+2
   6.61875E+1   3.23368E+0
   1.32965E+2  -3.04499E+1
  -2.84505E+1  -6.87326E+1
  -5.60492E-2  -1.10199E+2
   1.24706E+2   2.16641E+2
   6.18952E+1   1.26612E+2
  -5.37117E+1   3.54136E+1
   1.00102E+2  -1.77169E+2
  -5.10422E+1   3.36416E+1
   2.98017E+2   5.13844E+0
   1.87170E+2   6.30760E+1
   3.63492E+1   1.44584E+2
  -1.25850E+2  -4.49161E+1
  -1.53438E+2  -1.31864E+2
   7.07824E+1   9.60141E+1
   1.68480E+1   2.27082E+2
  -2.78660E+1   4.36519E+1
   9.69940E+0  -1.62346E+2
  -7.27683E+1  -9.79121E+1
   2.60957E+2   2.39809E+2
   1.89456E+2   9.30248E+1
  -1.09258E+2  -2.94817E+0
  -9.40248E+1  -1.83570E+2
   2.09712E+2  -2.41080E+2
   2.63999E+2   5.70253E+1
   1.00157E+2   1.52018E+2
   2.90873E+0   1.51749E+0
   8.66899E+1   1.88165E+2
  -1.51267E+2   3.22314E+2
  -1.97989E+2  -4.46513E+1
  -4.03483E+2  -1.53837E+2
  -1.19621E+2  -1.05509E+2
   9.32346E+1  -6.35765E+1
   2.44548E+2   1.27342E+2
   2.86786E+0   5.07765E+2
  -5.54859E+1   1.17792E+2
  -2.84246E+2   9.43913E+1
  -1.51165E+2  -2.12595E+2
  -2.84924E+2  -2.46152E+2
   1.79201E+2   1.40390E+2
   1.51777E+2  -3.72988E+1
   1.96527E+2   1.45033E+2
   1.59180E+1   2.23509E+2
   8.92955E+0   9.07513E+1
  -1.14994E+2   3.33031E+1
  -2.57775E+2  -7.74565E+1
  -6.09345E+1  -2.06710E+2
  -4.51571E+0  -1.00282E+2
   1.24909E+2   1.20975E+2
   2.40701E+2   2.42499E+2
   9.35234E-1  -5.44285E+1
   1.19761E+2   3.06386E+2
   3.32069E+0   2.94413E+1
  -4.19245E+1   9.19514E+1
  -1.62956E+2   8.88711E+1
   1.20555E+2  -1.34575E+2
   4.60699E+2  -1.98251E+2
   2.61788E+2   1.22756E+2
   7.81625E+1   1.57559E+2
  -2.09544E+1   1.38415E+2
  -2.44176E+1   8.92423E+1
   6.98127E+1   4.53314E+1
   1.37825E-1  -4.64411E+1
  -5.00035E+1  -1.71084E+0
   2.51007E+2  -2.53021E+2
  -5.68983E+1  -2.00668E+1
   2.80975E+2  -1.92862E+1
  -7.16190E+1   1.32060E+2
   5.42195E+1   2.22872E+2
   1.21644E+2  -2.25475E+2
   1.43652E+2  -7.79291E+1
   2.44967E+2   3.03918E+2
  -1.20098E+2  -1.22717E+2
  -5.09992E+1   1.60961E+2
   5.02638E+0  -1.86541E+2
   1.02370E+2  -3.44469E+1
   1.03283E+2  -1.66114E+2
   1.64585E+1  -9.72056E+1
   7.77894E+1   9.12495E+1
   2.32615E+2  -1.67255E+1
   3.82896E+2  -5.35945E+1
   1.99202E+2  -6.75121E+0
   1.88608E+2   1.08229E+2
   1.56655E+2  -1.71644E+2
   3.81256E+1   5.03059E+1
   7.60742E+1   6.97438E+1
  -9.50367E+1  -1.87576E+2
   2.39976E+1   1.01452E+2
  -3.73813E+1   3.06509E+1
   2.42727E+0  -3.08329E+1
   2.84994E+2   6.93220E-1
   2.93004E+0   9.66680E+1
   7.34362E+1   4.05585E+1
   3.92268E+2  -1.52947E+1
   1.55639E+2   1.89452E+2
   1.88611E+2   6.07553E+1
   6.52277E+1   5.06668E+1
   2.01802E+1   1.20985E+2
  -3.52357E+1  -1.47098E+2
   5.67581E+0   4.95868E+1
   2.01802E+2  -4.63492E+1
   1.40128E+2   3.31037E+1
  -1.46148E+1  -6.45855E+1
   2.79752E+0   7.39443E+1
   3.77300E+1   2.01617E+2
  -4.56283E+1   1.97874E+2
  -2.36549E+2  -2.02329E+1
   2.57796E+2  -9.79433E+1
   3.05920E+2   1.29823E+2
   3.68881E+2   2.18320E+2
   3.25551E+1   6.24330E+1
  -4.86117E+1   1.59186E+2
  -1.65710E+2   8.53362E+1
   1.86514E+2   3.47205E+1
   1.51064E+2  -6.88906E+1
  -1.19835E+2   1.12762E+2
   3.41202E+2  -1.30159E+2
   9.41887E+1   5.51386E+0
  -9.96063E+1   3.47702E+1
   1.12597E+2  -8.84255E+1
  -1.81529E+2   1.93594E+2
  -5.04927E+1  -3.89323E+1
   8.90460E+1   6.96950E+1
   7.61431E+1  -6.88988E+1
  -2.71629E+1   2.33605E+1
   1.70454E+2   7.57642E+0
   4.13255E+2   1.30373E+2
  -1.04236E+2   1.42510E+2
   5.22710E+1   1.15916E+2
  -2.09172E+2   7.18230E+1
  -2.26829E+1  -5.26342E+2
   1.98616E+2  -2.44633E+1
   2.72308E+2   1.85793E+2
  -5.50194E+1   1.31870E+2
   2.54856E+1   1.48355E+2
   5.87573E+1  -1.26884E+1
