 LCModel (Version 6.3-1N) Copyright: S.W. Provencher.          Ref.: Magn. Reson. Med. 30:672-679 (1993).                
 Slice_N1@19_20  28-Feb-2025 11:42:40
 27 lines in following concentration table = NCONC+1
    Conc.  %SD /Cr+PCr  Metabolite                                         
 3.19E-04   3% 3.2E-04 Mac                                                 
    3.882  18%   3.845 Cr                                                  
    4.194  17%   4.155 PCr                                                 
    8.712   9%   8.630 Ins                                                 
   10.654   6%  10.553 NAA                                                 
    6.696  11%   6.633 Tau                                                 
    0.344 183%   0.341 PCho                                                
    1.376  43%   1.363 GPC                                                 
    9.324  10%   9.236 Glu                                                 
    4.755  15%   4.710 Gln                                                 
    1.639  35%   1.623 Ala                                                 
    3.910  26%   3.873 Asc                                                 
    2.428  38%   2.405 Asp                                                 
    0.851  57%   0.843 GABA                                                
    0.589 117%   0.583 Glc                                                 
    1.250  35%   1.239 GSH                                                 
    3.320  18%   3.289 Lac                                                 
    1.814  26%   1.797 NAAG                                                
    0.966  97%   0.957 PE                                                  
    1.720  14%   1.704 GPC+PCho                                            
   12.468   6%  12.350 NAA+NAAG                                            
   14.079   8%  13.946 Glu+Gln                                             
    8.076   8%   8.000 Cr+PCr                                              
   12.468   6%  12.350 NAA+NAAG                                            
    8.076   8%   8.000 Cr+PCr                                              
   14.079   8%  13.946 Glu+Gln                                             
   6 lines in following misc. output table
  FWHM = 0.016 ppm    S/N =   6                                            
  Data shift = 0.024 ppm                                                   
  Ph: -76 deg       0.0 deg/ppm                                            
  alphaB,S = 1.1E+00,   4.0E-01                                            
   19 spline knots.   Ns = 5(1)                                            
   2 inflections.     1 extrema                                            
  480 points on ppm-axis = NY
      4.100000     4.091866     4.083733     4.075600     4.067466     4.059333     4.051199     4.043066     4.034933     4.026799
      4.018666     4.010532     4.002399     3.994265     3.986132     3.977998     3.969864     3.961731     3.953597     3.945463
      3.937330     3.929196     3.921062     3.912929     3.904795     3.896662     3.888528     3.880394     3.872261     3.864127
      3.855993     3.847860     3.839726     3.831592     3.823459     3.815325     3.807191     3.799058     3.790924     3.782790
      3.774657     3.766523     3.758389     3.750256     3.742122     3.733989     3.725855     3.717721     3.709588     3.701454
      3.693320     3.685187     3.677053     3.668919     3.660786     3.652652     3.644518     3.636385     3.628251     3.620117
      3.611984     3.603850     3.595716     3.587583     3.579449     3.571316     3.563182     3.555048     3.546915     3.538781
      3.530647     3.522514     3.514380     3.506246     3.498113     3.489979     3.481845     3.473712     3.465578     3.457444
      3.449311     3.441177     3.433043     3.424910     3.416776     3.408643     3.400509     3.392375     3.384242     3.376108
      3.367974     3.359841     3.351707     3.343573     3.335440     3.327306     3.319172     3.311039     3.302905     3.294771
      3.286638     3.278504     3.270370     3.262237     3.254103     3.245970     3.237836     3.229702     3.221569     3.213435
      3.205301     3.197168     3.189034     3.180900     3.172767     3.164633     3.156499     3.148366     3.140232     3.132098
      3.123965     3.115831     3.107697     3.099564     3.091430     3.083297     3.075163     3.067029     3.058896     3.050762
      3.042628     3.034495     3.026361     3.018227     3.010094     3.001960     2.993826     2.985693     2.977559     2.969425
      2.961292     2.953158     2.945024     2.936891     2.928757     2.920624     2.912490     2.904356     2.896223     2.888089
      2.879955     2.871822     2.863688     2.855554     2.847421     2.839287     2.831153     2.823020     2.814886     2.806752
      2.798619     2.790485     2.782351     2.774218     2.766084     2.757951     2.749817     2.741683     2.733550     2.725416
      2.717282     2.709149     2.701015     2.692881     2.684748     2.676614     2.668480     2.660347     2.652213     2.644079
      2.635946     2.627812     2.619678     2.611545     2.603411     2.595278     2.587144     2.579010     2.570877     2.562743
      2.554609     2.546476     2.538342     2.530208     2.522075     2.513941     2.505807     2.497674     2.489540     2.481406
      2.473273     2.465139     2.457006     2.448872     2.440738     2.432605     2.424471     2.416337     2.408204     2.400070
      2.391936     2.383803     2.375669     2.367535     2.359402     2.351268     2.343134     2.335001     2.326867     2.318733
      2.310600     2.302466     2.294333     2.286199     2.278065     2.269932     2.261798     2.253664     2.245531     2.237397
      2.229263     2.221130     2.212996     2.204862     2.196729     2.188595     2.180461     2.172328     2.164194     2.156060
      2.147927     2.139793     2.131660     2.123526     2.115392     2.107259     2.099125     2.090991     2.082858     2.074724
      2.066590     2.058457     2.050323     2.042189     2.034056     2.025922     2.017788     2.009655     2.001521     1.993387
      1.985254     1.977120     1.968987     1.960853     1.952719     1.944586     1.936452     1.928318     1.920185     1.912051
      1.903917     1.895784     1.887650     1.879516     1.871383     1.863249     1.855115     1.846982     1.838848     1.830714
      1.822581     1.814447     1.806314     1.798180     1.790046     1.781913     1.773779     1.765645     1.757512     1.749378
      1.741244     1.733111     1.724977     1.716843     1.708710     1.700576     1.692442     1.684309     1.676175     1.668041
      1.659908     1.651774     1.643641     1.635507     1.627373     1.619240     1.611106     1.602972     1.594839     1.586705
      1.578571     1.570438     1.562304     1.554170     1.546037     1.537903     1.529769     1.521636     1.513502     1.505368
      1.497235     1.489101     1.480968     1.472834     1.464700     1.456567     1.448433     1.440299     1.432166     1.424032
      1.415898     1.407765     1.399631     1.391497     1.383364     1.375230     1.367096     1.358963     1.350829     1.342695
      1.334562     1.326428     1.318295     1.310161     1.302027     1.293894     1.285760     1.277626     1.269493     1.261359
      1.253225     1.245092     1.236958     1.228824     1.220691     1.212557     1.204423     1.196290     1.188156     1.180022
      1.171889     1.163755     1.155622     1.147488     1.139354     1.131221     1.123087     1.114953     1.106820     1.098686
      1.090552     1.082419     1.074285     1.066151     1.058018     1.049884     1.041750     1.033617     1.025483     1.017349
      1.009216     1.001082     0.992949     0.984815     0.976681     0.968548     0.960414     0.952280     0.944147     0.936013
      0.927879     0.919746     0.911612     0.903478     0.895345     0.887211     0.879077     0.870944     0.862810     0.854676
      0.846543     0.838409     0.830276     0.822142     0.814008     0.805875     0.797741     0.789607     0.781474     0.773340
      0.765206     0.757073     0.748939     0.740805     0.732672     0.724538     0.716404     0.708271     0.700137     0.692003
      0.683870     0.675736     0.667603     0.659469     0.651335     0.643202     0.635068     0.626934     0.618801     0.610667
      0.602533     0.594400     0.586266     0.578132     0.569999     0.561865     0.553731     0.545598     0.537464     0.529330
      0.521197     0.513063     0.504930     0.496796     0.488662     0.480529     0.472395     0.464261     0.456128     0.447994
      0.439861     0.431727     0.423593     0.415460     0.407326     0.399192     0.391059     0.382925     0.374792     0.366658
      0.358524     0.350391     0.342257     0.334124     0.325990     0.317856     0.309723     0.301589     0.293455     0.285322
      0.277188     0.269055     0.260921     0.252787     0.244654     0.236520     0.228386     0.220253     0.212119     0.203986
 NY phased data points follow
  -2.65044E+01 -1.64048E+01 -8.87707E+00 -2.44369E+01 -2.14515E+01 -1.49628E+01 -1.04405E+01 -4.08338E+00 -9.40672E+00 -3.13766E+01
  -3.97788E+01 -2.70440E+01 -3.17261E+01 -4.11226E+01 -4.09526E+01 -4.97475E+01 -4.63355E+01 -5.12413E+01 -7.40622E+01 -8.45971E+01
  -8.89532E+01 -5.72107E+01 -3.20875E+01 -3.41641E+01  1.49764E+01  4.51095E+01  2.23640E+01  2.58236E+01  3.31126E+01  2.39132E+01
   2.96003E+01  3.00148E+01  1.62843E+01  2.04259E+01  1.47378E+01  9.07024E+00  2.54000E+01  2.08052E+00 -2.11737E+01 -2.93396E+01
  -5.97181E+01 -5.31259E+01 -3.58421E+01 -2.73155E+01 -1.13414E+01  3.88679E+00  2.73140E+01  3.71101E+01  5.58616E+01  6.35444E+01
   4.66294E+01  4.00490E+01  4.08915E+01  3.12111E+01  1.72986E+01  9.40024E+00 -1.14096E+01  6.73196E+00 -8.55500E+00 -4.35367E+01
  -1.27904E+00 -3.56164E+00 -2.39528E+00  3.33398E+01  4.25318E+01  5.31440E+01  5.06445E+01  4.91638E+01  1.40065E+01 -5.56303E+01
  -4.47927E+01  1.11786E+01 -1.45770E+01 -1.96808E+01  4.79997E+01  5.47642E+01  4.72360E+01  6.20931E+01  6.05812E+01  6.36254E+01
   5.73807E+01  5.77330E+01  4.38062E+01  1.09769E+01 -1.15662E+01 -1.68600E+01  3.05072E+00  1.58857E+01  4.95718E+01  7.09796E+01
   5.56042E+01  6.34824E+01  7.58731E+01  7.39204E+01  7.81581E+01  8.57334E+01  8.57179E+01  9.58538E+01  8.12578E+01  5.62487E+01
   5.27885E+01  5.59849E+01  3.35934E+01  5.39531E-01  6.20924E+00 -1.27782E+01 -2.18741E+01 -1.82090E+01 -2.43524E+01 -6.42452E+01
  -1.47666E+02 -1.52021E+02 -1.19253E+02 -8.24555E+01 -4.75719E+01 -3.54059E+01 -2.44578E+01 -1.60448E+01 -9.22560E+00 -6.09841E+00
   1.08052E+01  1.57419E+01  1.65409E+01  1.81017E+01  2.05124E+01  3.56952E+01  5.35297E+01  6.49877E+01  7.07791E+01  9.99901E+01
   1.52448E+02  1.57614E+02  4.71950E+01 -8.05647E+01 -1.09853E+02 -8.56655E+01 -8.40932E+01 -6.82435E+01 -6.23895E+01 -7.30304E+01
  -4.95670E+01 -6.46680E+01 -6.84760E+01 -4.69476E+01 -5.03029E+01 -6.01556E+01 -5.69653E+01 -3.93756E+01 -4.03518E+01 -3.54619E+01
  -3.85173E+01 -4.64177E+01 -2.93956E+01 -1.47399E+01 -2.80529E+01 -3.24023E+01 -1.98066E+01 -2.12604E+01 -2.39051E+01 -2.11621E+01
  -1.11593E+01 -9.77490E+00 -1.07338E+01 -1.70334E+01 -1.31757E+01 -2.07749E+01 -3.24044E+01 -4.17307E+00 -5.91897E+00 -6.15038E+00
   6.94932E+00  1.07954E+00  2.28198E+01  3.23858E+01  7.14744E+00  8.31600E+00  1.22916E+01  2.29685E+01  3.21774E+01 -3.40532E+00
  -1.65437E+01 -3.35491E+01 -3.59756E+01 -3.25481E+01 -6.20203E+01 -4.38386E+01 -3.86321E+01 -4.34423E+01 -2.04779E+01 -2.17134E+01
  -2.57917E+01 -1.53591E+01 -1.97697E+01 -1.65239E+01  2.55992E+01  2.08384E+01 -1.80990E+01 -3.95004E+00 -7.90077E-01 -9.75995E+00
  -1.16088E+00  2.22410E+00  2.02839E+01  2.95777E+01  1.89749E+01  2.85088E+00 -1.07588E+00 -3.90850E+00 -1.71173E+01 -2.48927E+01
  -2.84673E+01 -1.43782E+01 -9.25080E+00 -1.52018E+00  1.58034E+01  3.61619E+01  5.64624E+01  6.10066E+01  6.74249E+01  4.48777E+01
   2.70882E+01  2.76515E+01  1.32368E+01  1.33500E+01  1.96449E+01  1.61735E+01  6.42521E+00  7.42560E+00  9.35616E+00 -2.37604E+00
   5.52731E-01 -1.01755E+01 -1.62298E+01 -8.91301E+00 -3.57426E+01 -3.46519E+01 -4.35741E+01 -5.88500E+01 -5.03680E+01 -7.07432E+01
  -5.51652E+01 -4.75791E+01 -4.93816E+01 -2.10525E+01 -2.10803E+01 -8.76606E+00 -1.52690E-01 -2.09902E+01 -1.82300E+01 -2.23502E+01
  -2.62913E+01 -2.33311E+01 -3.84860E+01 -4.09327E+01 -3.39626E+01 -4.83345E+01 -1.30720E+02 -4.81970E+01  1.92927E+02  2.31359E+02
   1.85249E+02  1.73189E+02  1.46764E+02  1.27186E+02  1.16167E+02  1.13063E+02  1.07562E+02  9.63347E+01  8.43600E+01  8.76324E+01
   7.08187E+01  7.15445E+01  7.70463E+01  8.19371E+01  8.69339E+01  6.62504E+01  8.10229E+01  8.24030E+01  7.28263E+01  8.08782E+01
   9.09887E+01  8.05360E+01  6.03360E+01  6.91875E+01  6.21801E+01  6.62882E+01  6.99708E+01  5.52202E+01  6.18061E+01  5.69367E+01
   6.36021E+01  6.66635E+01  5.39479E+01  5.86440E+01  4.73359E+01  4.80812E+01  4.58714E+01  4.85810E+01  5.13909E+01  4.23865E+01
   5.85017E+01  5.88075E+01  8.19905E+01  8.49220E+01  8.50544E+01  1.10963E+02  1.09239E+02  1.19528E+02  1.22965E+02  1.17902E+02
   1.12096E+02  1.36834E+02  1.40079E+02  1.17580E+02  1.15630E+02  1.09137E+02  1.12672E+02  1.05473E+02  1.07149E+02  1.07691E+02
   9.46934E+01  8.08435E+01  8.07877E+01  6.81268E+01  6.38270E+01  7.71690E+01  4.96425E+01  4.29866E+01  3.94585E+01  2.57559E+01
   2.63873E+01  1.91424E+01 -4.49093E+00 -1.14480E+00  3.90859E+00 -5.53834E+00  4.91829E+00 -1.00611E+01 -3.75875E+00  1.02970E-01
   2.06551E+00  3.59022E+00  1.59751E+00 -1.84275E+00 -1.46986E+01  1.06479E+01  4.60978E-01  1.31169E+01  1.97751E+01  4.53870E+00
   1.78919E+01  1.30130E+01  1.74517E+01  1.62467E+01  1.43376E+01  4.75981E+00  7.35783E+00 -1.01518E+01 -1.41343E+01  1.54010E+00
  -1.64127E+01 -2.27907E+00 -1.82561E+00 -1.72647E+00  8.58468E+00  1.84177E+01  2.60744E+01  1.82765E+01  1.62588E+01  1.74404E+01
   3.51939E+01  3.25751E+01  3.33454E+01  4.39588E+01  3.91970E+01  5.04185E+01  5.80476E+01  5.94898E+01  6.17965E+01  5.75125E+01
   7.91594E+01  8.67929E+01  7.80432E+01  1.06886E+02  9.53815E+01  8.75315E+01  1.14943E+02  1.15125E+02  1.27167E+02  1.26468E+02
   1.19804E+02  1.11353E+02  8.42029E+01  8.15945E+01  6.97925E+01  4.62381E+01  5.68631E+01  6.78415E+01  4.57554E+01  2.67520E+01
   1.81752E+01  3.97268E+00  2.88358E+00 -7.93124E+00 -2.20993E+01 -3.23010E+01 -3.44972E+01 -1.52521E+01 -1.72316E+01 -2.10271E+01
  -3.70007E+01 -4.09862E+01 -1.85882E+01 -2.21656E+01 -1.98137E+01 -2.32023E+01 -2.43609E+01 -1.28210E+01 -8.34416E+00 -1.68695E+01
  -2.72307E+01 -2.17581E+01 -2.12397E+01 -1.77289E+01 -6.16193E+00 -9.07313E+00 -2.54749E+01 -2.06726E+01 -1.72373E+01 -1.79777E+01
  -2.11809E+01 -2.83776E+01 -1.72459E+01 -1.72516E+01 -1.63358E+01 -2.18308E+01 -1.70872E+01 -1.57687E+01 -1.57745E+01 -7.33372E+00
  -2.85817E+01 -2.02911E+01 -9.83941E+00 -1.08766E+01 -2.08603E+01 -2.49616E+01 -1.23588E+01 -2.93254E+01 -1.83823E+01 -8.50948E+00
  -2.38514E+01 -2.68303E+01 -1.93274E+01 -2.06000E+01 -2.96199E+01 -1.70341E+01 -1.54669E+01 -9.44811E+00 -6.46043E+00 -2.04244E+01
  -1.51585E+01 -2.38314E+01 -3.45409E+01 -1.92955E+01 -1.15019E+01 -2.44427E+01 -2.15348E+01 -9.04605E+00 -2.73079E+01 -2.65359E+01
  -7.62623E+00 -1.61919E+01 -2.01968E+01 -1.20638E+01 -1.65813E+01 -2.89506E+01 -1.85828E+01 -7.13322E-02  1.97280E+00 -1.25802E+01
 NY points of the fit to the data follow
  -2.50675E+01 -2.85126E+01 -3.37133E+01 -4.63130E+01 -5.09324E+01 -2.56305E+01  7.10341E+00  1.07900E+01 -5.22412E+00 -1.89761E+01
  -2.90699E+01 -3.53737E+01 -3.65330E+01 -3.29449E+01 -3.21241E+01 -3.50625E+01 -3.65427E+01 -4.49439E+01 -5.37707E+01 -6.71822E+01
  -8.62737E+01 -6.04858E+01 -2.34117E+01 -2.63860E+01  8.79561E+00  4.31810E+01  3.34950E+01  3.46093E+01  4.03833E+01  3.95204E+01
   3.84154E+01  3.60624E+01  3.41113E+01  3.18757E+01  2.70706E+01  1.95100E+01  1.29428E+01  6.43444E+00 -4.10263E+00 -2.41063E+01
  -5.13940E+01 -6.06611E+01 -4.19830E+01 -2.45451E+01 -1.13426E+01  9.24030E+00  3.14215E+01  4.08033E+01  4.46958E+01  4.95776E+01
   4.62703E+01  4.13424E+01  3.63871E+01  2.39394E+01  9.67827E+00 -1.93598E+00 -4.63717E+00  3.53741E+00 -1.46447E+01 -3.48888E+01
  -6.47506E+00  6.56302E+00 -2.04923E+00  2.40885E+01  4.61160E+01  4.81572E+01  5.04586E+01  4.26038E+01  8.11980E+00 -3.77071E+01
  -3.69310E+01 -7.40848E+00 -8.50686E+00 -4.32347E-01  3.21873E+01  4.95292E+01  5.42663E+01  5.77067E+01  5.74323E+01  5.74925E+01
   5.53389E+01  4.40162E+01  2.93976E+01  8.45678E+00 -1.20000E+01 -9.38492E+00 -1.69949E+00  1.56647E+01  3.75782E+01  4.67703E+01
   5.29535E+01  5.83302E+01  6.20612E+01  6.56819E+01  6.93130E+01  7.41552E+01  7.77765E+01  8.04142E+01  7.76653E+01  6.70106E+01
   6.57528E+01  7.22344E+01  5.50026E+01  3.58757E+01  2.39820E+01 -7.72266E+00 -2.95170E+01 -1.26031E+01 -7.79777E+00 -5.76771E+01
  -1.39303E+02 -1.44736E+02 -9.69656E+01 -7.12410E+01 -4.92591E+01 -3.25982E+01 -2.51659E+01 -1.82948E+01 -1.10496E+01 -3.98068E+00
   2.59097E+00  9.75521E+00  1.76866E+01  2.64986E+01  3.70805E+01  5.01803E+01  6.50170E+01  7.38734E+01  8.64575E+01  1.05493E+02
   1.34764E+02  1.49331E+02  5.04394E+01 -9.05649E+01 -1.07081E+02 -8.36391E+01 -8.05336E+01 -6.53086E+01 -5.60827E+01 -5.73311E+01
  -5.84137E+01 -5.79375E+01 -5.87416E+01 -5.81644E+01 -5.72710E+01 -5.79229E+01 -5.52991E+01 -5.14956E+01 -4.81468E+01 -4.42804E+01
  -4.09334E+01 -3.76026E+01 -3.55057E+01 -3.42016E+01 -3.13969E+01 -2.69470E+01 -2.36080E+01 -2.37904E+01 -2.49412E+01 -2.39290E+01
  -2.02118E+01 -1.54663E+01 -1.51059E+01 -2.02253E+01 -2.33336E+01 -2.16998E+01 -1.72743E+01 -1.32814E+01 -1.46885E+01 -1.83313E+01
  -1.42325E+01  4.29814E+00  2.61704E+01  2.56817E+01  4.21141E+00 -4.18921E+00  1.16610E+01  2.66098E+01  2.08935E+01 -1.48229E+00
  -1.87001E+01 -2.21154E+01 -2.61444E+01 -2.92430E+01 -2.95143E+01 -3.00675E+01 -2.93718E+01 -2.83684E+01 -2.65591E+01 -2.37660E+01
  -2.25399E+01 -1.86523E+01 -1.72692E+01 -1.77398E+01 -3.62004E-01  8.20847E+00 -6.19620E+00 -8.64243E-01  9.63594E+00  8.56832E+00
   6.50336E+00  1.25198E+00  1.21163E+01  2.31064E+01  1.70745E+01  9.70855E+00  3.68845E+00 -1.33937E+00 -1.15720E+01 -2.32736E+01
  -2.54670E+01 -2.84033E+01 -2.45499E+01 -9.80039E+00  4.55651E-01  3.11327E+01  6.34519E+01  5.76040E+01  6.07862E+01  5.30742E+01
   2.76506E+01  2.24775E+01  2.21055E+01  2.41201E+01  3.04387E+01  3.10153E+01  2.99174E+01  2.51822E+01  1.47175E+01  3.59024E+00
  -8.20872E+00 -2.12015E+01 -3.37781E+01 -4.31930E+01 -5.24533E+01 -6.28907E+01 -6.53901E+01 -6.61354E+01 -6.89534E+01 -6.17034E+01
  -5.59116E+01 -5.27433E+01 -3.94733E+01 -2.85219E+01 -1.86625E+01 -6.74272E+00 -7.63473E+00 -1.00690E+01 -1.73735E+01 -2.40005E+01
  -2.87332E+01 -4.53834E+01 -4.60456E+01 -4.52969E+01 -3.20982E+01 -5.17619E+01 -1.39057E+02 -5.00351E+01  1.74315E+02  2.06482E+02
   1.72674E+02  1.66189E+02  1.36321E+02  1.18218E+02  1.12488E+02  1.09231E+02  1.05176E+02  1.00616E+02  9.63757E+01  9.27561E+01
   9.08681E+01  9.05492E+01  9.07313E+01  9.25015E+01  9.31922E+01  9.39659E+01  9.37974E+01  9.18867E+01  9.14197E+01  9.02537E+01
   8.84073E+01  8.60474E+01  8.31577E+01  8.08810E+01  7.92576E+01  7.66203E+01  7.35954E+01  7.13881E+01  6.85543E+01  6.53288E+01
   6.17125E+01  5.71670E+01  5.32247E+01  4.92034E+01  4.47885E+01  4.23811E+01  4.19367E+01  4.33037E+01  4.63259E+01  4.98081E+01
   5.26288E+01  5.55813E+01  5.92377E+01  6.25914E+01  6.54947E+01  6.80927E+01  7.03396E+01  7.22992E+01  7.48819E+01  7.85154E+01
   8.16174E+01  8.38515E+01  8.57348E+01  8.71424E+01  8.92978E+01  9.09258E+01  9.10918E+01  9.11237E+01  9.04014E+01  8.86043E+01
   8.59752E+01  8.42035E+01  7.50568E+01  5.65617E+01  4.53441E+01  3.57991E+01  2.57943E+01  2.92302E+01  2.52943E+01  1.56336E+01
   9.34412E+00  2.39242E+00 -2.89833E+00 -4.83359E+00 -3.10461E+00  2.05969E+00  8.80242E+00  1.74346E+01  2.55621E+01  3.46084E+01
   4.06471E+01  2.42241E+01  2.82957E+00 -4.74041E+00 -1.81558E+01 -1.15896E+01  7.79937E+00  1.37040E+01  1.78684E+01  2.09303E+01
   2.06934E+01  1.90581E+01  1.63637E+01  1.28916E+01  7.51346E+00  1.64989E+00 -1.44261E+00 -2.20872E+00 -2.07853E+00  3.69942E-01
   3.66721E+00  7.33338E+00  1.19081E+01  1.60953E+01  2.06953E+01  2.50810E+01  2.83598E+01  3.18558E+01  3.47617E+01  3.79666E+01
   4.19460E+01  4.53263E+01  4.86668E+01  5.23545E+01  5.61096E+01  6.08603E+01  6.69052E+01  7.24768E+01  7.80506E+01  8.62175E+01
   9.43894E+01  1.01290E+02  1.09129E+02  1.18123E+02  1.26090E+02  1.32578E+02  1.37257E+02  1.37639E+02  1.32676E+02  1.21870E+02
   1.06739E+02  9.21514E+01  8.02241E+01  7.06349E+01  6.25954E+01  5.65219E+01  5.03086E+01  4.11244E+01  3.04749E+01  2.02013E+01
   9.67569E+00  4.61543E-01 -5.37703E+00 -9.51999E+00 -1.28516E+01 -1.53080E+01 -1.62829E+01 -1.69849E+01 -1.78318E+01 -1.89102E+01
  -2.01499E+01 -2.10645E+01 -2.12644E+01 -2.08937E+01 -2.09270E+01 -2.13452E+01 -2.10505E+01 -2.04301E+01 -2.08533E+01 -2.18646E+01
  -2.12819E+01 -1.99614E+01 -2.03216E+01 -2.09931E+01 -2.05906E+01 -2.00906E+01 -2.01735E+01 -2.07151E+01 -2.07465E+01 -1.99270E+01
  -1.92745E+01 -1.91893E+01 -1.92821E+01 -1.96164E+01 -1.98511E+01 -1.98822E+01 -1.95700E+01 -1.89633E+01 -1.87030E+01 -1.82184E+01
  -1.81425E+01 -1.82438E+01 -1.79637E+01 -1.76716E+01 -1.80736E+01 -1.85272E+01 -1.84524E+01 -1.83679E+01 -1.78364E+01 -1.75990E+01
  -1.74400E+01 -1.71751E+01 -1.76660E+01 -1.76374E+01 -1.69588E+01 -1.67504E+01 -1.64353E+01 -1.61297E+01 -1.61576E+01 -1.60920E+01
  -1.58248E+01 -1.55900E+01 -1.55104E+01 -1.59987E+01 -1.60161E+01 -1.57739E+01 -1.58794E+01 -1.55479E+01 -1.46654E+01 -1.38485E+01
  -1.35682E+01 -1.40150E+01 -1.45637E+01 -1.49791E+01 -1.46015E+01 -1.43047E+01 -1.43360E+01 -1.38598E+01 -1.32221E+01 -1.35336E+01
 NY background values follow
     8.393E+00    8.456E+00    8.519E+00    8.582E+00    8.645E+00    8.708E+00    8.770E+00    8.833E+00    8.896E+00    8.959E+00
     9.022E+00    9.085E+00    9.148E+00    9.211E+00    9.274E+00    9.337E+00    9.400E+00    9.463E+00    9.526E+00    9.589E+00
     9.652E+00    9.715E+00    9.778E+00    9.841E+00    9.904E+00    9.967E+00    1.003E+01    1.009E+01    1.016E+01    1.022E+01
     1.028E+01    1.035E+01    1.041E+01    1.047E+01    1.054E+01    1.060E+01    1.066E+01    1.073E+01    1.079E+01    1.085E+01
     1.092E+01    1.098E+01    1.104E+01    1.110E+01    1.117E+01    1.123E+01    1.129E+01    1.136E+01    1.142E+01    1.148E+01
     1.154E+01    1.161E+01    1.167E+01    1.173E+01    1.179E+01    1.186E+01    1.192E+01    1.198E+01    1.204E+01    1.210E+01
     1.216E+01    1.222E+01    1.229E+01    1.235E+01    1.241E+01    1.247E+01    1.253E+01    1.259E+01    1.265E+01    1.271E+01
     1.277E+01    1.283E+01    1.289E+01    1.295E+01    1.301E+01    1.307E+01    1.312E+01    1.318E+01    1.324E+01    1.330E+01
     1.336E+01    1.341E+01    1.347E+01    1.353E+01    1.359E+01    1.364E+01    1.370E+01    1.376E+01    1.381E+01    1.387E+01
     1.392E+01    1.398E+01    1.403E+01    1.409E+01    1.414E+01    1.420E+01    1.425E+01    1.431E+01    1.436E+01    1.441E+01
     1.447E+01    1.452E+01    1.457E+01    1.462E+01    1.468E+01    1.473E+01    1.478E+01    1.483E+01    1.488E+01    1.493E+01
     1.498E+01    1.503E+01    1.508E+01    1.513E+01    1.518E+01    1.523E+01    1.528E+01    1.533E+01    1.538E+01    1.542E+01
     1.547E+01    1.552E+01    1.557E+01    1.561E+01    1.566E+01    1.571E+01    1.575E+01    1.580E+01    1.584E+01    1.589E+01
     1.593E+01    1.597E+01    1.602E+01    1.606E+01    1.610E+01    1.614E+01    1.619E+01    1.623E+01    1.627E+01    1.631E+01
     1.635E+01    1.639E+01    1.643E+01    1.647E+01    1.651E+01    1.654E+01    1.658E+01    1.662E+01    1.665E+01    1.669E+01
     1.672E+01    1.676E+01    1.679E+01    1.683E+01    1.686E+01    1.689E+01    1.692E+01    1.696E+01    1.699E+01    1.702E+01
     1.705E+01    1.708E+01    1.710E+01    1.713E+01    1.716E+01    1.719E+01    1.721E+01    1.724E+01    1.726E+01    1.729E+01
     1.731E+01    1.734E+01    1.736E+01    1.738E+01    1.740E+01    1.742E+01    1.744E+01    1.746E+01    1.748E+01    1.750E+01
     1.752E+01    1.753E+01    1.755E+01    1.757E+01    1.758E+01    1.760E+01    1.761E+01    1.762E+01    1.763E+01    1.765E+01
     1.766E+01    1.767E+01    1.768E+01    1.768E+01    1.769E+01    1.770E+01    1.771E+01    1.771E+01    1.772E+01    1.772E+01
     1.773E+01    1.773E+01    1.773E+01    1.773E+01    1.773E+01    1.773E+01    1.773E+01    1.773E+01    1.773E+01    1.772E+01
     1.772E+01    1.772E+01    1.771E+01    1.770E+01    1.770E+01    1.769E+01    1.768E+01    1.767E+01    1.766E+01    1.765E+01
     1.764E+01    1.762E+01    1.761E+01    1.760E+01    1.758E+01    1.756E+01    1.755E+01    1.753E+01    1.751E+01    1.749E+01
     1.747E+01    1.745E+01    1.742E+01    1.740E+01    1.738E+01    1.735E+01    1.732E+01    1.730E+01    1.727E+01    1.724E+01
     1.721E+01    1.718E+01    1.715E+01    1.711E+01    1.708E+01    1.705E+01    1.701E+01    1.697E+01    1.694E+01    1.690E+01
     1.686E+01    1.682E+01    1.677E+01    1.673E+01    1.669E+01    1.664E+01    1.660E+01    1.655E+01    1.651E+01    1.646E+01
     1.641E+01    1.636E+01    1.631E+01    1.626E+01    1.620E+01    1.615E+01    1.610E+01    1.604E+01    1.598E+01    1.593E+01
     1.587E+01    1.581E+01    1.575E+01    1.569E+01    1.563E+01    1.556E+01    1.550E+01    1.543E+01    1.537E+01    1.530E+01
     1.523E+01    1.516E+01    1.509E+01    1.502E+01    1.495E+01    1.488E+01    1.480E+01    1.473E+01    1.465E+01    1.458E+01
     1.450E+01    1.442E+01    1.434E+01    1.426E+01    1.417E+01    1.409E+01    1.401E+01    1.392E+01    1.383E+01    1.375E+01
     1.366E+01    1.357E+01    1.348E+01    1.339E+01    1.329E+01    1.320E+01    1.310E+01    1.301E+01    1.291E+01    1.281E+01
     1.271E+01    1.261E+01    1.251E+01    1.241E+01    1.230E+01    1.220E+01    1.209E+01    1.199E+01    1.188E+01    1.177E+01
     1.166E+01    1.155E+01    1.144E+01    1.133E+01    1.122E+01    1.110E+01    1.099E+01    1.087E+01    1.076E+01    1.064E+01
     1.052E+01    1.040E+01    1.028E+01    1.016E+01    1.004E+01    9.919E+00    9.796E+00    9.673E+00    9.548E+00    9.423E+00
     9.297E+00    9.171E+00    9.044E+00    8.916E+00    8.788E+00    8.659E+00    8.529E+00    8.399E+00    8.269E+00    8.138E+00
     8.006E+00    7.874E+00    7.742E+00    7.609E+00    7.475E+00    7.341E+00    7.207E+00    7.073E+00    6.938E+00    6.803E+00
     6.667E+00    6.532E+00    6.396E+00    6.259E+00    6.123E+00    5.986E+00    5.849E+00    5.711E+00    5.574E+00    5.436E+00
     5.298E+00    5.159E+00    5.021E+00    4.882E+00    4.743E+00    4.604E+00    4.465E+00    4.325E+00    4.186E+00    4.046E+00
     3.906E+00    3.766E+00    3.625E+00    3.485E+00    3.344E+00    3.203E+00    3.063E+00    2.922E+00    2.780E+00    2.639E+00
     2.498E+00    2.357E+00    2.215E+00    2.074E+00    1.932E+00    1.790E+00    1.648E+00    1.506E+00    1.364E+00    1.222E+00
     1.080E+00    9.378E-01    7.954E-01    6.530E-01    5.104E-01    3.678E-01    2.251E-01    8.226E-02   -6.063E-02   -2.036E-01
    -3.467E-01   -4.898E-01   -6.330E-01   -7.763E-01   -9.197E-01   -1.063E+00   -1.207E+00   -1.350E+00   -1.494E+00   -1.638E+00
    -1.782E+00   -1.926E+00   -2.070E+00   -2.214E+00   -2.358E+00   -2.502E+00   -2.647E+00   -2.791E+00   -2.936E+00   -3.080E+00
    -3.225E+00   -3.369E+00   -3.514E+00   -3.659E+00   -3.803E+00   -3.948E+00   -4.093E+00   -4.238E+00   -4.383E+00   -4.528E+00
    -4.673E+00   -4.818E+00   -4.963E+00   -5.108E+00   -5.254E+00   -5.399E+00   -5.544E+00   -5.689E+00   -5.835E+00   -5.980E+00
    -6.125E+00   -6.271E+00   -6.416E+00   -6.561E+00   -6.707E+00   -6.852E+00   -6.997E+00   -7.143E+00   -7.288E+00   -7.434E+00
    -7.579E+00   -7.725E+00   -7.870E+00   -8.015E+00   -8.161E+00   -8.306E+00   -8.452E+00   -8.597E+00   -8.743E+00   -8.888E+00
    -9.034E+00   -9.179E+00   -9.325E+00   -9.470E+00   -9.616E+00   -9.761E+00   -9.906E+00   -1.005E+01   -1.020E+01   -1.034E+01
 Mac      Conc. = 3.19E-04
  -1.44096E+01 -1.53684E+01 -1.55035E+01 -1.55945E+01 -1.58027E+01 -1.64861E+01 -1.76252E+01 -1.95539E+01 -2.19023E+01 -2.39839E+01
  -2.54741E+01 -2.57848E+01 -2.55787E+01 -2.50878E+01 -2.43574E+01 -2.57349E+01 -2.88134E+01 -3.11226E+01 -2.81902E+01 -1.98143E+01
  -1.41634E+01 -1.11045E+01 -5.88282E+00 -2.39248E+00 -1.85822E+00 -1.30108E+00 -6.27617E-02  1.66467E+00  3.49703E+00  6.21030E+00
   8.59721E+00  9.69593E+00  1.05369E+01  1.18076E+01  1.22931E+01  1.12912E+01  1.03157E+01  1.08329E+01  1.40769E+01  1.84659E+01
   2.07343E+01  1.97929E+01  1.84277E+01  1.87919E+01  2.01693E+01  2.23793E+01  2.37496E+01  2.33669E+01  2.25922E+01  2.13205E+01
   1.94042E+01  1.72830E+01  1.65554E+01  1.61926E+01  1.53611E+01  1.53368E+01  1.53093E+01  1.59742E+01  1.83244E+01  2.02751E+01
   2.08055E+01  2.24616E+01  2.46829E+01  2.47408E+01  2.37790E+01  2.25423E+01  2.08990E+01  2.06850E+01  2.09413E+01  2.04081E+01
   1.99167E+01  2.17192E+01  2.59098E+01  2.91958E+01  3.05456E+01  3.16731E+01  3.16905E+01  3.05198E+01  2.96046E+01  2.81594E+01
   2.74787E+01  2.74301E+01  2.67608E+01  2.66867E+01  2.77539E+01  2.91151E+01  3.01623E+01  3.10878E+01  3.19966E+01  3.28343E+01
   3.29081E+01  3.34265E+01  3.37511E+01  3.33616E+01  3.33063E+01  3.25660E+01  3.01428E+01  2.71721E+01  2.39059E+01  2.04291E+01
   1.81916E+01  1.67487E+01  1.40746E+01  1.03770E+01  6.94038E+00  2.29388E+00 -4.38412E+00 -1.29044E+01 -2.06323E+01 -2.35302E+01
