 
 $NMID
 ID=''
 FMTDAT='(2E13.5)'
 TRAMP=   1.00000E+0
 VOLUME=   1.00000E+0
 $END
   1.00756E+3   2.23475E+4
   1.82917E+4   6.71939E+3
   3.95053E+3  -1.82994E+4
  -8.59201E+3   2.37448E+3
   8.80351E+3   1.25485E+4
   1.72697E+3  -8.26681E+3
  -1.20695E+4  -2.17320E+3
   5.02846E+3   7.14280E+3
   6.71798E+3  -6.00178E+3
  -6.80544E+3  -5.66957E+2
   1.57498E+3   7.99545E+3
   3.69436E+3  -5.00981E+3
  -5.39924E+3  -2.81403E+3
   1.04543E+3   6.42899E+3
   8.15237E+2  -3.30416E+3
  -5.47107E+3  -4.52405E+3
   2.73904E+3   2.80537E+3
   3.83412E+3  -8.19955E+2
  -4.41392E+3  -1.05215E+3
   1.43421E+3   2.57235E+3
   3.63359E+3  -8.79945E+2
  -3.79165E+3  -7.85103E+2
   1.02894E+3   1.40142E+3
   3.40239E+3  -8.89819E+2
  -3.08531E+3   6.92048E+2
  -9.57889E+2   6.35380E+2
   3.81848E+3  -2.82655E+3
  -1.03057E+2   1.60607E+3
  -1.68551E+3   3.79420E+3
  -3.45491E+2  -1.77056E+3
   3.22131E+2  -1.50349E+3
   1.52918E+3   2.55888E+3
  -2.18163E+2   1.14009E+3
  -3.51317E+3   1.91718E+2
  -1.49615E+3  -8.75617E+2
   1.58958E+3  -2.77674E+3
   1.77908E+3  -4.36235E+2
   8.48421E+2   1.70096E+3
   2.62636E+2  -7.50646E+2
   3.43770E+2  -9.76525E+1
   2.55706E+2   1.87028E+3
  -6.16525E+2  -1.15119E+2
  -5.28691E+2  -1.60468E+3
   6.94019E+2  -7.33612E+2
   6.94251E+2  -5.36577E+2
   4.04860E+2  -3.58668E+2
   1.53936E+3   9.14296E+2
   2.14358E+2   1.62038E+3
  -2.29787E+3   8.50667E+2
  -1.26002E+3  -4.62011E+2
   2.69175E+2  -1.06247E+3
  -4.11782E+2  -7.72392E+2
  -3.04083E+2  -7.38536E+2
   7.84944E+2  -7.60269E+2
   8.10046E+2  -2.43841E+2
   1.36424E+2   5.72447E+2
  -4.13063E+2   9.29481E+2
  -1.04134E+3  -2.07110E+2
  -5.14416E+2  -1.14974E+3
   1.11749E+2  -9.32979E+2
   3.43814E+2  -4.33238E+2
   5.38480E+2   1.58708E+1
   1.00457E+3   3.82161E+2
   1.99570E+2   1.32632E+3
  -1.24523E+3   1.42865E+3
  -1.52805E+3   4.18008E+2
  -1.31446E+3  -7.96296E+2
  -8.87308E+2  -1.31188E+3
   2.62990E+2  -7.68735E+2
   3.35277E+2   1.74884E+1
  -7.07142E+2   1.41801E+2
  -5.83287E+2  -4.08953E+2
   5.58907E+2  -7.07457E+2
   4.64667E+2   2.40759E+2
   6.86888E+1   6.37283E+2
  -2.34778E+2   1.34011E+2
  -1.48277E+2   1.83825E+2
   5.18686E+2   4.84521E+2
  -1.21751E+2   4.35868E+2
  -3.97003E+2   6.00559E+2
  -6.94692E+2   2.77319E+2
  -4.20944E+2  -1.40842E+2
  -2.06737E+2  -1.48566E+2
  -1.24912E+2   3.32487E+1
  -3.10642E+2  -6.98786E+1
  -4.33170E+2  -5.23149E+2
   3.71438E+2  -6.36480E+2
   4.26610E+2   1.51119E+2
  -7.53502E+1   6.52693E+1
  -1.51383E+1  -5.28673E+1
   6.19895E+2  -2.86274E+2
   6.56220E+2   3.72662E+2
  -3.87442E+0   9.80699E+2
  -5.59517E+2   1.14315E+3
  -6.95984E+2   2.09706E+1
  -6.65559E+2  -5.99165E+2
   2.30129E+1  -2.33423E+2
  -6.46120E+1   1.56438E+2
  -4.86642E+2   1.42455E+1
  -1.03187E+2  -3.28817E+2
   5.03020E+2  -2.94331E+2
   4.37636E+2   4.92418E+2
  -5.63410E+2   7.53001E+2
  -8.82992E+2  -1.27060E+2
  -2.67019E+2  -7.84903E+2
   6.13167E+2  -1.45495E+2
   2.07321E+2   6.27253E+2
  -8.42255E+2   5.31639E+2
  -9.66481E+2  -3.56515E+2
  -3.82219E+1  -7.95543E+2
   4.86837E+2  -5.38689E+2
   3.17394E+2   2.27342E+2
   1.26886E+2   2.34504E+2
  -8.58159E+1   5.62469E+1
  -1.44243E+2   3.16388E+2
  -4.13053E+1   6.04396E+2
  -5.42275E+2   8.14160E+2
  -9.31023E+2   2.81497E+2
  -6.56607E+2  -6.01407E+2
   4.29732E+1  -8.09783E+2
   6.02304E+2  -2.06448E+2
   3.69358E+2  -5.35513E+1
   2.56713E+2   2.72797E+2
   1.81170E+2   3.32934E+2
  -3.85801E+2   5.72475E+2
  -5.97163E+2   1.53506E+2
  -5.48970E+2  -1.27173E+2
   1.39915E+2  -1.75933E+2
   4.55989E+2   1.31872E+2
   2.77238E+2   1.55195E+2
   6.43510E+1   6.90369E+2
  -4.08607E+2   2.95000E+2
  -5.33984E+2  -2.81435E+2
   4.65940E+1   3.18406E+0
   4.25622E+1   2.29067E+2
  -1.74174E+2   2.14854E+2
   1.09688E+2  -1.38754E+2
   7.10888E+2  -3.14479E+2
   2.46858E+2   4.43657E+2
   5.91758E+1   7.58295E+2
  -6.52325E+2   2.70715E+2
  -1.06000E+2  -4.70663E+2
   2.08766E+2  -3.45844E+2
   4.82022E+2   4.51751E+2
   3.36098E+2   7.16741E+2
   6.06942E+1   5.65436E+2
  -1.75814E+2   2.40524E+2
   5.31688E+1   2.79485E+2
  -2.90445E+2   2.39479E+2
  -2.55184E+2  -5.78757E+1
  -2.50597E+2  -3.10641E+2
   1.50229E+2  -2.39161E+2
   4.08174E+2  -2.82873E+2
   9.33074E+1   9.89300E+1
   6.92195E+1   3.57115E+2
   1.23118E+2   8.87257E+1
   2.11672E+2   6.58677E+1
   2.22161E+2   1.95453E+2
   6.29840E+1   2.48523E+2
  -3.41918E+1   1.73697E+2
  -1.08041E+2   2.37839E+2
  -5.01378E+1   3.20147E+2
  -2.02289E+2   1.28208E+2
  -1.60376E+2   1.38213E+2
  -3.70057E+2  -1.98551E+2
   2.89735E+2  -3.12660E+2
   7.25376E+2   1.33901E+2
   1.15347E+2   3.94596E+2
  -1.86196E+2  -2.34386E+1
  -7.59232E+0  -8.02912E+1
   3.76458E+2  -4.80681E+1
   1.56035E+2   1.11571E+2
   6.09366E+1   2.22914E+2
   1.50421E+2  -2.80375E+2
  -4.44380E+1   1.43139E+2
   1.19237E+2  -1.57364E+2
   2.93709E+2   2.38710E+2
  -1.81490E+2  -6.69957E+0
  -8.56464E+1  -8.45216E+1
   2.41316E+2  -4.36820E+2
   5.20445E+2   9.66364E+1
   1.55961E+2   2.20088E+2
  -5.97478E+1   1.17011E+2
  -1.26873E+2   1.96646E+2
  -3.21731E+2  -1.48359E+2
   4.14095E+1  -1.48545E+2
  -3.48070E+1  -9.78470E+1
  -3.05165E+2  -1.16712E+2
   2.03741E+2  -6.00238E+2
   5.92159E+2  -6.36751E+1
   2.15880E+2   4.91376E+2
  -1.48154E+2   4.65107E+2
  -4.80997E+2   9.96478E+1
  -7.90401E+1  -1.04065E+2
   7.56168E+1  -7.73126E+1
  -6.74122E+1   1.46981E+2
   1.38503E+2  -1.15420E+2
   3.14753E+2   1.76424E+2
   1.73041E+2   1.27520E+2
   1.05356E+1   1.46665E+2
  -1.59349E+2   2.00900E+2
  -1.31872E+2  -1.07263E+2
  -1.68517E+2  -1.87964E+2
   6.98974E+1  -2.77889E+2
   1.02792E+2  -8.25924E+1
  -9.65410E+1  -7.71158E+1
  -2.26835E+2   4.52423E+1
   6.35098E+1  -8.68272E+1
   1.66359E+2   5.82661E+1
  -7.46340E+1   1.43003E-1
  -8.31328E+1  -8.57710E+1
  -7.25145E+1  -2.99069E+2
   2.31934E+2  -1.03753E+2
   2.03610E+2   5.28663E+2
  -3.76541E+1   4.85509E+2
  -2.38057E+2   2.06922E+2
  -1.88831E+2  -2.64289E+2
   1.71629E+2   4.28494E+1
   8.99424E+1   2.30768E+2
  -1.26081E+2   6.94384E+1
  -2.05617E+2  -1.05198E+2
   1.85122E+2   7.52534E+1
  -7.73106E+1   3.52214E+2
  -1.06088E+2   3.13380E+2
  -8.27277E+1   3.86975E+2
  -1.02437E+2  -1.54056E+2
  -3.68876E+1  -1.00597E+2
   1.12407E+1   2.36839E+2
  -8.61115E+1   2.22528E+2
  -1.69692E+1   1.43460E+2
   1.85044E+1  -1.55497E+2
   2.28090E+2   2.99814E+1
   1.09992E+2   2.52001E+1
  -1.44495E+2  -4.58423E+1
  -3.44809E+2  -9.77591E+1
   1.76889E+2  -2.25845E+2
   2.49223E+2   1.15945E+2
   2.26924E+1   1.58460E+2
  -2.42974E+0  -4.23345E+1
  -3.63980E+1   1.17720E+2
   3.17262E+2  -2.07457E+1
   3.07529E+2   7.69675E+1
   1.48427E+2   2.24001E+2
   1.23964E+2   2.13627E+2
  -4.27381E+1  -8.70587E+1
   3.40868E+1   1.04100E+2
   5.34765E+1   2.66009E+2
  -1.34552E+2   1.20397E+2
   1.79552E+2  -1.95755E+2
   3.32735E+2   1.06171E+2
   1.77526E+2  -1.50814E+2
  -4.05094E+1   1.42632E+2
  -1.07556E+2  -1.34917E+2
   3.82797E+1  -5.52445E+1
   2.97881E+2  -2.61749E+2
   1.79855E+2  -6.86981E+1
   1.00170E+2   4.53798E+1
  -5.18618E+1   2.00185E+1
   1.31174E+2   3.83949E+1
   1.58525E+2   9.66898E+1
   1.22828E+1  -7.68625E+1
  -9.30620E+1  -8.45027E+1
  -4.14441E+2  -3.69248E+2
   3.35493E+2   4.50979E+1
   3.93849E+2  -1.15200E+2
  -3.57339E+1   3.72822E+1
  -1.43977E+2  -2.97155E+1
  -3.98630E+1   5.18482E+1
   1.34038E+2   1.10361E+2
  -3.59250E+1  -9.98308E+1
  -3.84717E+1  -4.13130E+1
   2.28786E+2  -1.17521E+2
   1.93354E+2   6.45126E+1
   3.82205E+1  -5.20162E+1
   9.20782E+1  -1.72298E+2
  -3.21415E+2   2.02104E+2
  -9.19268E+1  -2.53838E+1
   1.27499E+2  -2.94115E+2
   1.70731E+2  -1.64527E+2
   5.45796E+1  -4.05071E+1
  -6.38260E+1  -5.60288E+1
  -1.32894E+2  -1.40094E+2
  -2.94533E+1  -8.87333E+1
  -1.30234E+2   1.59065E+2
  -2.66680E+2   6.02750E+1
   1.15541E+2  -8.59218E+1
  -1.27479E+2  -1.80692E+2
  -4.92243E+1   7.26956E+0
   2.35023E+2   1.42530E+2
   1.30716E+2   4.31817E+2
  -4.04608E+0  -1.65436E+1
  -8.72134E+1   1.41192E+2
   8.40129E+1  -2.99460E+1
  -9.79618E+1   8.06802E+1
   5.17277E+1   3.63492E+1
  -6.03558E+1  -1.05233E+2
   3.16413E+2  -1.64063E+1
  -2.22724E+0   1.63065E+2
   1.74171E+2  -9.62553E+1
  -1.46470E+2  -5.87095E+1
  -8.85958E+1  -2.50942E+2
  -1.46565E+1  -5.34538E+1
   1.15202E+2   3.05645E+2
  -1.44655E+2   1.21872E+2
  -9.15683E+1  -1.54619E+2
   1.16631E+1  -7.72639E+1
  -1.81457E+2  -7.84503E+1
   1.35737E+2  -2.07132E+2
  -1.12868E+2   1.57838E+2
   8.06520E+1   4.01097E+1
   2.45194E+2   7.31443E+1
   2.85432E+1   2.56999E+1
  -2.62392E+2   1.66072E+2
  -6.33314E+1  -1.65508E+2
  -1.18476E+1   7.82962E+1
  -1.19190E+1   4.37309E+1
   1.10132E+2   2.61079E+0
   2.25899E+1  -7.56511E+1
   2.55256E+1   2.51095E+1
   2.25056E+2   1.42614E+2
   3.68993E+1   1.81775E+2
  -7.04111E+1  -1.23591E+2
  -1.41582E+2   2.18757E+1
  -4.43541E+1   1.25158E+1
  -2.57607E+1  -2.83275E+0
   4.04922E+0   2.63941E+1
  -7.44403E+1  -1.12816E+2
   5.89477E+1   2.05603E+0
  -4.82585E+0  -1.84892E+2
  -1.49993E+1  -2.55648E+2
   1.89669E+2   1.67864E+2
  -7.70108E+1  -1.38127E+2
   1.62865E+2  -7.88225E+0
   1.41166E+2  -6.58929E+1
   9.58247E+1   1.49647E+2
   1.34121E+2   1.27492E+2
  -1.32650E+2   1.72950E+2
   5.06925E+1  -2.93935E+2
  -2.23512E+2  -6.99842E+1
  -3.71705E+1  -2.55544E+2
   1.59255E+2   1.64399E+2
  -9.52205E-1  -1.87131E+2
  -2.11647E+1  -3.35688E+1
  -9.96749E+1  -5.76223E+1
   1.79162E+2  -3.03163E+2
   8.21759E+1  -1.16415E+2
   2.47258E+1  -1.13832E+2
   6.19220E+0   1.07146E+2
  -8.61589E+1  -8.29650E+1
   2.15438E+1   3.95255E+2
  -9.27339E+1   1.99578E+2
  -1.63134E+2   3.07701E+0
  -6.29320E+1  -1.10149E+2
   5.12212E+1  -9.94616E+1
  -2.03552E+2  -1.15292E+2
   6.95635E+1  -1.86210E+2
  -1.01818E+2   1.42428E+2
   2.55957E+2  -1.47972E+2
  -1.50987E+2  -1.20223E+1
  -9.69190E+1   9.59100E+1
  -2.52767E+2   4.31110E+1
  -1.08069E+2  -1.90890E+2
  -6.13469E+1  -1.79781E+2
   8.80813E+1  -9.08526E+1
  -4.41792E+1  -2.55234E+1
  -1.30130E+2  -1.26603E+2
   1.20918E+2  -1.06218E+1
