 LCModel (Version 6.3-1N) Copyright: S.W. Provencher.          Ref.: Magn. Reson. Med. 30:672-679 (1993).                
 Slice_N1@14_14  28-Feb-2025 11:38:13
 27 lines in following concentration table = NCONC+1
    Conc.  %SD /Cr+PCr  Metabolite                                         
 2.74E-04   4% 2.5E-04 Mac                                                 
    1.635 109%   1.463 Cr                                                  
    7.307  24%   6.537 PCr                                                 
    9.163  10%   8.197 Ins                                                 
    9.200   9%   8.230 NAA                                                 
    5.776  16%   5.167 Tau                                                 
    0.000 999%   0.000 PCho                                                
    2.435  10%   2.179 GPC                                                 
    7.431  14%   6.648 Glu                                                 
    3.915  21%   3.503 Gln                                                 
    6.622  12%   5.924 Ala                                                 
    2.506  50%   2.242 Asc                                                 
    2.109  56%   1.886 Asp                                                 
    0.655  92%   0.586 GABA                                                
    1.353  62%   1.210 Glc                                                 
    1.605  32%   1.436 GSH                                                 
    0.000 999%   0.000 Lac                                                 
    2.552  26%   2.283 NAAG                                                
    0.000 999%   0.000 PE                                                  
    2.435  10%   2.179 GPC+PCho                                            
   11.752   7%  10.513 NAA+NAAG                                            
   11.347  11%  10.151 Glu+Gln                                             
    8.943   8%   8.000 Cr+PCr                                              
   11.752   7%  10.513 NAA+NAAG                                            
    8.943   8%   8.000 Cr+PCr                                              
   11.347  11%  10.151 Glu+Gln                                             
   6 lines in following misc. output table
  FWHM = 0.033 ppm    S/N =   3                                            
  Data shift = 0.033 ppm                                                   
  Ph:-154 deg       0.0 deg/ppm                                            
  alphaB,S = 1.4E-01,   2.1E+01                                            
   19 spline knots.   Ns = 5(1)                                            
  ( 3) 2 infls.   ( 1) 1 extrs.                                            
  480 points on ppm-axis = NY
      4.100000     4.091866     4.083733     4.075600     4.067466     4.059333     4.051199     4.043066     4.034933     4.026799
      4.018666     4.010532     4.002399     3.994265     3.986132     3.977998     3.969864     3.961731     3.953597     3.945463
      3.937330     3.929196     3.921062     3.912929     3.904795     3.896662     3.888528     3.880394     3.872261     3.864127
      3.855993     3.847860     3.839726     3.831592     3.823459     3.815325     3.807191     3.799058     3.790924     3.782790
      3.774657     3.766523     3.758389     3.750256     3.742122     3.733989     3.725855     3.717721     3.709588     3.701454
      3.693320     3.685187     3.677053     3.668919     3.660786     3.652652     3.644518     3.636385     3.628251     3.620117
      3.611984     3.603850     3.595716     3.587583     3.579449     3.571316     3.563182     3.555048     3.546915     3.538781
      3.530647     3.522514     3.514380     3.506246     3.498113     3.489979     3.481845     3.473712     3.465578     3.457444
      3.449311     3.441177     3.433043     3.424910     3.416776     3.408643     3.400509     3.392375     3.384242     3.376108
      3.367974     3.359841     3.351707     3.343573     3.335440     3.327306     3.319172     3.311039     3.302905     3.294771
      3.286638     3.278504     3.270370     3.262237     3.254103     3.245970     3.237836     3.229702     3.221569     3.213435
      3.205301     3.197168     3.189034     3.180900     3.172767     3.164633     3.156499     3.148366     3.140232     3.132098
      3.123965     3.115831     3.107697     3.099564     3.091430     3.083297     3.075163     3.067029     3.058896     3.050762
      3.042628     3.034495     3.026361     3.018227     3.010094     3.001960     2.993826     2.985693     2.977559     2.969425
      2.961292     2.953158     2.945024     2.936891     2.928757     2.920624     2.912490     2.904356     2.896223     2.888089
      2.879955     2.871822     2.863688     2.855554     2.847421     2.839287     2.831153     2.823020     2.814886     2.806752
      2.798619     2.790485     2.782351     2.774218     2.766084     2.757951     2.749817     2.741683     2.733550     2.725416
      2.717282     2.709149     2.701015     2.692881     2.684748     2.676614     2.668480     2.660347     2.652213     2.644079
      2.635946     2.627812     2.619678     2.611545     2.603411     2.595278     2.587144     2.579010     2.570877     2.562743
      2.554609     2.546476     2.538342     2.530208     2.522075     2.513941     2.505807     2.497674     2.489540     2.481406
      2.473273     2.465139     2.457006     2.448872     2.440738     2.432605     2.424471     2.416337     2.408204     2.400070
      2.391936     2.383803     2.375669     2.367535     2.359402     2.351268     2.343134     2.335001     2.326867     2.318733
      2.310600     2.302466     2.294333     2.286199     2.278065     2.269932     2.261798     2.253664     2.245531     2.237397
      2.229263     2.221130     2.212996     2.204862     2.196729     2.188595     2.180461     2.172328     2.164194     2.156060
      2.147927     2.139793     2.131660     2.123526     2.115392     2.107259     2.099125     2.090991     2.082858     2.074724
      2.066590     2.058457     2.050323     2.042189     2.034056     2.025922     2.017788     2.009655     2.001521     1.993387
      1.985254     1.977120     1.968987     1.960853     1.952719     1.944586     1.936452     1.928318     1.920185     1.912051
      1.903917     1.895784     1.887650     1.879516     1.871383     1.863249     1.855115     1.846982     1.838848     1.830714
      1.822581     1.814447     1.806314     1.798180     1.790046     1.781913     1.773779     1.765645     1.757512     1.749378
      1.741244     1.733111     1.724977     1.716843     1.708710     1.700576     1.692442     1.684309     1.676175     1.668041
      1.659908     1.651774     1.643641     1.635507     1.627373     1.619240     1.611106     1.602972     1.594839     1.586705
      1.578571     1.570438     1.562304     1.554170     1.546037     1.537903     1.529769     1.521636     1.513502     1.505368
      1.497235     1.489101     1.480968     1.472834     1.464700     1.456567     1.448433     1.440299     1.432166     1.424032
      1.415898     1.407765     1.399631     1.391497     1.383364     1.375230     1.367096     1.358963     1.350829     1.342695
      1.334562     1.326428     1.318295     1.310161     1.302027     1.293894     1.285760     1.277626     1.269493     1.261359
      1.253225     1.245092     1.236958     1.228824     1.220691     1.212557     1.204423     1.196290     1.188156     1.180022
      1.171889     1.163755     1.155622     1.147488     1.139354     1.131221     1.123087     1.114953     1.106820     1.098686
      1.090552     1.082419     1.074285     1.066151     1.058018     1.049884     1.041750     1.033617     1.025483     1.017349
      1.009216     1.001082     0.992949     0.984815     0.976681     0.968548     0.960414     0.952280     0.944147     0.936013
      0.927879     0.919746     0.911612     0.903478     0.895345     0.887211     0.879077     0.870944     0.862810     0.854676
      0.846543     0.838409     0.830276     0.822142     0.814008     0.805875     0.797741     0.789607     0.781474     0.773340
      0.765206     0.757073     0.748939     0.740805     0.732672     0.724538     0.716404     0.708271     0.700137     0.692003
      0.683870     0.675736     0.667603     0.659469     0.651335     0.643202     0.635068     0.626934     0.618801     0.610667
      0.602533     0.594400     0.586266     0.578132     0.569999     0.561865     0.553731     0.545598     0.537464     0.529330
      0.521197     0.513063     0.504930     0.496796     0.488662     0.480529     0.472395     0.464261     0.456128     0.447994
      0.439861     0.431727     0.423593     0.415460     0.407326     0.399192     0.391059     0.382925     0.374792     0.366658
      0.358524     0.350391     0.342257     0.334124     0.325990     0.317856     0.309723     0.301589     0.293455     0.285322
      0.277188     0.269055     0.260921     0.252787     0.244654     0.236520     0.228386     0.220253     0.212119     0.203986
 NY phased data points follow
  -9.52702E+01 -1.03019E+02 -1.08149E+02 -1.02971E+02 -8.04791E+01 -8.33879E+01 -1.01552E+02 -8.35835E+01 -7.77773E+01 -9.74788E+01
  -1.00187E+02 -9.96785E+01 -1.04437E+02 -1.15044E+02 -1.27384E+02 -1.20883E+02 -1.23150E+02 -1.35362E+02 -1.49009E+02 -1.60629E+02
  -1.40495E+02 -1.20700E+02 -1.03633E+02 -8.81724E+01 -8.07535E+01 -6.42371E+01 -6.18048E+01 -5.47843E+01 -5.24601E+01 -6.33773E+01
  -5.51522E+01 -6.09214E+01 -6.32490E+01 -5.58945E+01 -6.81794E+01 -5.38094E+01 -4.17353E+01 -5.87414E+01 -7.89025E+01 -9.67118E+01
  -9.94021E+01 -1.00347E+02 -9.81222E+01 -9.54782E+01 -8.36011E+01 -6.49318E+01 -5.74155E+01 -4.30686E+01 -2.96156E+01 -3.48128E+01
  -3.75388E+01 -2.84699E+01 -3.97556E+01 -4.97540E+01 -5.53887E+01 -6.34761E+01 -6.55157E+01 -8.48881E+01 -7.96504E+01 -6.72811E+01
  -8.39389E+01 -7.52115E+01 -4.68185E+01 -3.57811E+01 -4.04359E+01 -3.19635E+01 -2.99809E+01 -6.92763E+01 -7.90313E+01 -7.19674E+01
  -8.18712E+01 -7.91974E+01 -8.18967E+01 -5.71382E+01 -3.12944E+01 -3.00604E+01 -2.22050E+01 -2.40985E+01 -2.33384E+01 -1.07904E+01
  -1.73910E+01 -2.75496E+01 -4.39300E+01 -6.84617E+01 -4.44945E+01 -4.01168E+01 -3.92895E+01 -2.63010E+01 -3.62959E+01 -1.42761E+01
  -1.25658E+01 -3.45022E-01  1.04189E+01  4.37249E+00  2.14653E+01  2.03989E+01  2.18303E+01  1.77158E+01  1.90274E+01  1.76185E+01
   1.73842E+00  2.88694E-01 -3.32942E+00 -1.48261E+01 -4.21320E+01 -5.46143E+01 -3.22660E+01 -5.25099E+01 -1.06441E+02 -1.47916E+02
  -1.74987E+02 -1.54301E+02 -1.37819E+02 -1.27198E+02 -1.01403E+02 -9.13182E+01 -8.45521E+01 -6.78060E+01 -5.38362E+01 -5.63544E+01
  -4.36762E+01 -5.19672E+01 -5.59438E+01 -2.87782E+01 -1.46956E+01 -6.30977E+00 -1.91237E+00  6.99818E+00  2.52931E+01  7.28870E+01
   6.97728E+01  8.47895E+00 -4.92184E+01 -9.14483E+01 -9.17776E+01 -1.10682E+02 -1.24014E+02 -1.10358E+02 -9.48530E+01 -9.64038E+01
  -1.04631E+02 -9.80600E+01 -1.16751E+02 -1.10835E+02 -1.05243E+02 -1.10524E+02 -9.71583E+01 -1.01800E+02 -9.33149E+01 -9.55761E+01
  -9.84744E+01 -8.65916E+01 -9.10708E+01 -8.82776E+01 -8.73306E+01 -7.97033E+01 -7.18644E+01 -7.57638E+01 -6.91540E+01 -7.33735E+01
  -7.35469E+01 -6.47242E+01 -7.52175E+01 -6.08246E+01 -5.76460E+01 -8.37802E+01 -7.16495E+01 -6.46116E+01 -6.00417E+01 -6.58758E+01
  -6.01416E+01 -2.51792E+01 -4.77451E+01 -6.22199E+01 -4.86244E+01 -3.91561E+01 -3.76837E+01 -4.46700E+01 -5.63939E+01 -6.88719E+01
  -5.99067E+01 -7.86150E+01 -8.20549E+01 -7.55348E+01 -8.37246E+01 -8.23724E+01 -8.86419E+01 -7.56630E+01 -7.53757E+01 -8.47706E+01
  -8.96028E+01 -8.96922E+01 -6.11837E+01 -4.55265E+01 -5.65759E+01 -6.08605E+01 -6.31652E+01 -5.62375E+01 -5.13921E+01 -5.51104E+01
  -4.80130E+01 -5.00269E+01 -4.21125E+01 -3.95884E+01 -4.24067E+01 -5.49483E+01 -5.82749E+01 -4.41139E+01 -6.97234E+01 -8.02526E+01
  -8.55921E+01 -7.46591E+01 -5.74219E+01 -5.57293E+01 -2.95218E+01 -1.83348E+01 -1.05699E+00 -3.81988E+00 -1.53490E+01 -1.73828E+01
  -4.35630E+01 -4.74174E+01 -5.82731E+01 -5.30336E+01 -4.81713E+01 -7.94912E+01 -5.32411E+01 -5.41168E+01 -6.46475E+01 -4.56196E+01
  -6.72380E+01 -5.87763E+01 -6.72942E+01 -7.47980E+01 -8.68861E+01 -1.06860E+02 -8.51890E+01 -9.31666E+01 -9.15113E+01 -9.13072E+01
  -8.41841E+01 -7.44793E+01 -7.97472E+01 -6.14674E+01 -5.61286E+01 -5.41072E+01 -4.85335E+01 -5.44875E+01 -4.81582E+01 -4.54603E+01
  -7.38598E+01 -7.69990E+01 -7.28237E+01 -5.71732E+01 -9.12401E+01 -1.42328E+02 -5.31834E+01  6.59750E+00  2.77822E+01  5.91861E+01
   6.60938E+01  8.60275E+01  7.29958E+01  6.76697E+01  6.56924E+01  5.43283E+01  5.29683E+01  3.88301E+01  2.80060E+01  4.37112E+01
   5.19440E+01  3.13567E+01  2.02813E+01  2.18940E+01  2.72922E+01  3.70975E+01  2.93985E+01  2.00924E+01  3.60420E+01  3.24285E+01
   3.14646E+01  4.78249E+01  3.51175E+01  2.51385E+01  3.33945E+01  1.85633E+01  8.74220E+00  2.38474E+01  1.26517E+01  2.74872E+01
   3.09149E+01  4.43514E+00  2.61732E+01  1.83976E+01 -1.13274E-01  6.84792E+00  2.19061E+00  7.50578E+00  7.26891E+00  9.62101E+00
   2.10212E+01  6.18797E+00  7.86571E-01  2.44900E+00 -2.01862E+00  8.48752E+00  4.58705E+00  6.89285E+00  1.23660E+01  9.21439E+00
   1.93493E+01  1.86528E+01  7.59523E+00  2.35093E+00 -1.11997E+01 -1.13979E+01 -7.15097E+00 -2.41360E+01 -1.68180E+01 -2.27751E+01
  -3.61701E+01 -2.22493E+01 -3.41779E+01 -6.08041E+01 -7.43788E+01 -7.83452E+01 -1.00571E+02 -1.11301E+02 -1.05923E+02 -1.27452E+02
  -1.33761E+02 -1.32553E+02 -1.33312E+02 -1.20523E+02 -1.22006E+02 -1.02962E+02 -7.90946E+01 -6.79255E+01 -4.60800E+01 -4.39210E+01
  -1.64987E+01  7.23464E+00 -9.49268E+00 -1.90386E+01 -2.17097E+01 -1.03190E+01 -2.30543E+01 -4.15669E+01 -4.09482E+01 -4.71948E+01
  -3.64811E+01 -4.00207E+01 -5.55127E+01 -3.75643E+01 -3.79335E+01 -5.82731E+01 -4.93835E+01 -4.86678E+01 -5.30798E+01 -4.57338E+01
  -5.47237E+01 -5.62593E+01 -4.49422E+01 -4.78942E+01 -4.67233E+01 -3.27782E+01 -2.99408E+01 -2.61288E+01 -2.22912E+01 -2.95382E+01
  -2.11011E+01 -2.36308E+01 -1.97991E+01  6.52014E+00  1.49604E+00  4.68310E+00  1.04395E+01  1.52360E+01  2.23881E+01  2.06521E+01
   4.00390E+01  4.64687E+01  6.01562E+01  7.08264E+01  7.72543E+01  8.10663E+01  7.64293E+01  9.16077E+01  8.90907E+01  8.81729E+01
   7.18624E+01  5.52665E+01  5.41565E+01  3.70233E+01  2.54584E+01  1.52317E+01  1.31602E+01  1.69620E+01  1.68612E+01 -3.71511E+00
  -2.24856E+01 -2.48287E+01 -3.33184E+01 -2.92678E+01 -2.19439E+01 -3.26409E+01 -3.46861E+01 -3.89315E+01 -4.63477E+01 -3.43282E+01
  -4.58702E+01 -4.49156E+01 -3.51714E+01 -4.25799E+01 -2.84604E+01 -2.87734E+01 -4.18494E+01 -3.97819E+01 -3.86555E+01 -4.43417E+01
  -4.00930E+01 -3.90942E+01 -4.05560E+01 -4.07819E+01 -4.03562E+01 -2.86758E+01 -2.82737E+01 -3.22477E+01 -4.07585E+01 -5.36545E+01
  -4.79275E+01 -4.79905E+01 -4.47373E+01 -3.11090E+01 -4.12947E+01 -2.59508E+01 -2.91615E+01 -4.97309E+01 -3.96163E+01 -3.66782E+01
  -2.33988E+01 -4.62198E+01 -4.34178E+01 -2.67176E+01 -4.16939E+01 -4.08672E+01 -3.38526E+01 -2.10791E+01 -3.26369E+01 -2.43873E+01
  -3.50110E+01 -4.26403E+01 -3.74021E+01 -4.56354E+01 -3.34446E+01 -3.17517E+01 -2.12643E+01 -3.34896E+01 -2.15802E+01 -1.51052E+01
  -2.56736E+01 -2.15913E+01 -2.79204E+01 -2.03648E+01 -4.60863E+01 -4.51122E+01 -3.37248E+01 -3.31023E+01 -2.88027E+01 -3.74476E+01
  -2.21961E+01 -3.05190E+01 -3.64805E+01 -3.68717E+01 -4.01598E+01 -1.54253E+01 -3.12242E+01 -3.28756E+01 -1.06863E+01 -3.70807E+01
 NY points of the fit to the data follow
  -1.06292E+02 -1.13497E+02 -1.19921E+02 -1.18722E+02 -1.08771E+02 -9.72823E+01 -9.08681E+01 -8.96842E+01 -9.08241E+01 -9.29006E+01
  -9.57595E+01 -9.92204E+01 -1.03040E+02 -1.07258E+02 -1.11272E+02 -1.14939E+02 -1.19213E+02 -1.31236E+02 -1.48863E+02 -1.55600E+02
  -1.42881E+02 -1.20889E+02 -1.01042E+02 -8.54211E+01 -7.16594E+01 -5.94536E+01 -4.98722E+01 -4.40110E+01 -4.06113E+01 -3.89107E+01
  -3.84744E+01 -3.91302E+01 -4.12438E+01 -4.46619E+01 -4.87876E+01 -5.34490E+01 -6.06097E+01 -7.25488E+01 -8.97027E+01 -1.06282E+02
  -1.13577E+02 -1.09496E+02 -9.89980E+01 -8.62221E+01 -7.24731E+01 -5.89735E+01 -4.79271E+01 -4.03326E+01 -3.58217E+01 -3.37882E+01
  -3.52126E+01 -4.06641E+01 -4.94924E+01 -5.90780E+01 -6.37980E+01 -6.51039E+01 -7.11481E+01 -7.97405E+01 -8.26567E+01 -8.03734E+01
  -7.67173E+01 -7.00902E+01 -5.89906E+01 -4.64454E+01 -3.56680E+01 -3.01863E+01 -3.60265E+01 -5.17415E+01 -6.57780E+01 -7.17440E+01
  -7.35791E+01 -7.31955E+01 -6.72077E+01 -5.54123E+01 -4.25462E+01 -3.24209E+01 -2.50272E+01 -1.86708E+01 -1.51661E+01 -1.53334E+01
  -1.99519E+01 -2.83995E+01 -3.85288E+01 -4.69637E+01 -5.11041E+01 -4.97092E+01 -4.42001E+01 -3.67238E+01 -2.90216E+01 -2.14006E+01
  -1.44480E+01 -8.11849E+00 -2.82387E+00  1.61422E+00  5.74292E+00  1.00301E+01  1.27063E+01  1.31863E+01  1.35506E+01  1.37390E+01
   9.89726E+00  2.80446E+00 -7.24410E+00 -2.03743E+01 -3.44301E+01 -3.77372E+01 -3.86072E+01 -6.06242E+01 -1.03615E+02 -1.38702E+02
  -1.49876E+02 -1.45311E+02 -1.37518E+02 -1.27889E+02 -1.15276E+02 -1.00546E+02 -8.80347E+01 -7.79233E+01 -6.90973E+01 -6.08266E+01
  -5.26133E+01 -4.40826E+01 -3.49655E+01 -2.49587E+01 -1.44723E+01 -4.98775E+00  2.89717E+00  1.06790E+01  3.19135E+01  5.70130E+01
   5.14070E+01  6.11828E+00 -4.65532E+01 -8.07037E+01 -9.86682E+01 -1.11430E+02 -1.20174E+02 -1.22385E+02 -1.18382E+02 -1.14280E+02
  -1.11835E+02 -1.10335E+02 -1.09049E+02 -1.07743E+02 -1.06300E+02 -1.04384E+02 -1.01871E+02 -9.91457E+01 -9.66730E+01 -9.45038E+01
  -9.24072E+01 -9.02233E+01 -8.79330E+01 -8.53013E+01 -8.24011E+01 -7.99218E+01 -7.84869E+01 -7.79077E+01 -7.69893E+01 -7.48258E+01
  -7.23280E+01 -7.11618E+01 -7.13674E+01 -7.14808E+01 -7.07861E+01 -7.00282E+01 -6.99894E+01 -7.03825E+01 -6.94696E+01 -6.47521E+01
  -5.62234E+01 -4.86640E+01 -4.66244E+01 -4.84964E+01 -4.88085E+01 -4.50830E+01 -4.14001E+01 -4.26950E+01 -4.86501E+01 -5.55916E+01
  -6.16340E+01 -6.68949E+01 -7.13621E+01 -7.44466E+01 -7.59551E+01 -7.64286E+01 -7.65172E+01 -7.63044E+01 -7.52598E+01 -7.34787E+01
  -7.25574E+01 -7.11943E+01 -6.65576E+01 -6.04207E+01 -5.63843E+01 -5.40922E+01 -5.07110E+01 -4.63873E+01 -4.42917E+01 -4.49749E+01
  -4.53190E+01 -4.33275E+01 -4.12636E+01 -4.12326E+01 -4.27315E+01 -4.50707E+01 -4.84932E+01 -5.28852E+01 -5.79751E+01 -6.33947E+01
  -6.67256E+01 -6.72614E+01 -6.38799E+01 -5.53080E+01 -4.37571E+01 -3.27007E+01 -2.37536E+01 -1.83426E+01 -1.70056E+01 -1.82811E+01
  -1.99421E+01 -2.11404E+01 -2.18114E+01 -2.30954E+01 -2.55791E+01 -2.94215E+01 -3.50440E+01 -4.23918E+01 -5.09235E+01 -6.05808E+01
  -7.06519E+01 -8.01132E+01 -8.88303E+01 -9.60236E+01 -1.00515E+02 -1.02738E+02 -1.02692E+02 -1.00613E+02 -9.79497E+01 -9.47263E+01
  -9.03988E+01 -8.47154E+01 -7.80376E+01 -7.14600E+01 -6.61358E+01 -6.31084E+01 -6.21785E+01 -6.25742E+01 -6.40385E+01 -6.79534E+01
  -7.56777E+01 -8.06945E+01 -7.58071E+01 -7.66131E+01 -9.33637E+01 -9.87859E+01 -6.68332E+01 -1.49389E+01  2.50807E+01  4.54555E+01
   5.63605E+01  6.39588E+01  6.64987E+01  6.25944E+01  5.63579E+01  5.06698E+01  4.55519E+01  4.10765E+01  3.73220E+01  3.42279E+01
   3.19432E+01  3.04235E+01  2.94165E+01  2.87477E+01  2.83976E+01  2.82388E+01  2.79938E+01  2.73949E+01  2.63411E+01  2.50033E+01
   2.34968E+01  2.16860E+01  1.96117E+01  1.73581E+01  1.50204E+01  1.25441E+01  9.75203E+00  6.61058E+00  3.20947E+00 -4.07248E-01
  -4.17080E+00 -7.74189E+00 -1.06715E+01 -1.26021E+01 -1.33728E+01 -1.31234E+01 -1.21537E+01 -1.06252E+01 -8.61564E+00 -6.26649E+00
  -3.80789E+00 -1.39946E+00  8.75405E-01  3.01385E+00  5.18783E+00  7.53589E+00  1.00377E+01  1.25124E+01  1.47968E+01  1.69418E+01
   1.91113E+01  2.11967E+01  2.30268E+01  2.46392E+01  2.60643E+01  2.71334E+01  2.79429E+01  2.86695E+01  2.90939E+01  3.06378E+01
   2.67692E+01  1.16688E+01 -1.26193E+01 -4.07908E+01 -6.78849E+01 -8.73904E+01 -9.67000E+01 -9.90878E+01 -9.89632E+01 -9.75135E+01
  -9.52037E+01 -9.14374E+01 -8.71035E+01 -8.25068E+01 -7.76522E+01 -7.29058E+01 -6.86368E+01 -6.49033E+01 -6.13475E+01 -5.76660E+01
  -5.37002E+01 -4.94771E+01 -4.53605E+01 -4.18552E+01 -3.91479E+01 -3.70831E+01 -3.56521E+01 -3.50386E+01 -3.53402E+01 -3.65563E+01
  -3.87833E+01 -4.18437E+01 -4.51115E+01 -4.79477E+01 -4.99596E+01 -5.09509E+01 -5.08571E+01 -4.96688E+01 -4.75580E+01 -4.47191E+01
  -4.13600E+01 -3.77033E+01 -3.39734E+01 -3.03342E+01 -2.68430E+01 -2.34137E+01 -1.99751E+01 -1.65455E+01 -1.31545E+01 -9.75967E+00
  -6.33391E+00 -2.62096E+00  1.52677E+00  5.97699E+00  1.07420E+01  1.61020E+01  2.20732E+01  2.84068E+01  3.50852E+01  4.22623E+01
   4.98320E+01  5.74328E+01  6.44392E+01  7.01099E+01  7.34824E+01  7.36400E+01  7.02535E+01  6.40628E+01  5.63426E+01  4.81263E+01
   4.00873E+01  3.27091E+01  2.59541E+01  1.92655E+01  1.22072E+01  4.68433E+00 -3.17903E+00 -1.10489E+01 -1.83562E+01 -2.47089E+01
  -3.00083E+01 -3.42705E+01 -3.74691E+01 -3.97097E+01 -4.12498E+01 -4.24101E+01 -4.33507E+01 -4.41159E+01 -4.45996E+01 -4.47766E+01
  -4.47729E+01 -4.47265E+01 -4.45528E+01 -4.41892E+01 -4.38602E+01 -4.36994E+01 -4.34544E+01 -4.29693E+01 -4.24620E+01 -4.21324E+01
  -4.18432E+01 -4.14390E+01 -4.10163E+01 -4.07465E+01 -4.05336E+01 -4.01673E+01 -3.96453E+01 -3.91270E+01 -3.87346E+01 -3.84481E+01
  -3.82389E+01 -3.80317E+01 -3.77728E+01 -3.74346E+01 -3.70241E+01 -3.65649E+01 -3.61245E+01 -3.57377E+01 -3.53518E+01 -3.49763E+01
  -3.47097E+01 -3.45673E+01 -3.44736E+01 -3.42994E+01 -3.40383E+01 -3.37390E+01 -3.34091E+01 -3.31073E+01 -3.28801E+01 -3.26708E+01
  -3.23848E+01 -3.20395E+01 -3.16659E+01 -3.13024E+01 -3.09619E+01 -3.06482E+01 -3.03272E+01 -2.99896E+01 -2.97028E+01 -2.95359E+01
  -2.94137E+01 -2.92789E+01 -2.91108E+01 -2.88912E+01 -2.85149E+01 -2.80056E+01 -2.74834E+01 -2.71226E+01 -2.69736E+01 -2.69217E+01
  -2.68056E+01 -2.66475E+01 -2.64884E+01 -2.62724E+01 -2.59747E+01 -2.57542E+01 -2.55975E+01 -2.54143E+01 -2.50872E+01 -2.45603E+01
 NY background values follow
    -7.137E+01   -7.113E+01   -7.090E+01   -7.066E+01   -7.042E+01   -7.018E+01   -6.995E+01   -6.971E+01   -6.947E+01   -6.923E+01
    -6.898E+01   -6.874E+01   -6.850E+01   -6.825E+01   -6.801E+01   -6.776E+01   -6.751E+01   -6.726E+01   -6.701E+01   -6.676E+01
    -6.650E+01   -6.625E+01   -6.599E+01   -6.573E+01   -6.547E+01   -6.520E+01   -6.494E+01   -6.467E+01   -6.440E+01   -6.413E+01
    -6.385E+01   -6.357E+01   -6.329E+01   -6.301E+01   -6.273E+01   -6.244E+01   -6.215E+01   -6.186E+01   -6.157E+01   -6.128E+01
    -6.098E+01   -6.068E+01   -6.039E+01   -6.009E+01   -5.979E+01   -5.948E+01   -5.918E+01   -5.888E+01   -5.858E+01   -5.827E+01
    -5.797E+01   -5.766E+01   -5.736E+01   -5.705E+01   -5.675E+01   -5.644E+01   -5.614E+01   -5.583E+01   -5.553E+01   -5.522E+01
    -5.492E+01   -5.462E+01   -5.432E+01   -5.401E+01   -5.371E+01   -5.342E+01   -5.312E+01   -5.282E+01   -5.253E+01   -5.223E+01
    -5.194E+01   -5.165E+01   -5.136E+01   -5.107E+01   -5.079E+01   -5.050E+01   -5.022E+01   -4.994E+01   -4.966E+01   -4.938E+01
    -4.911E+01   -4.884E+01   -4.857E+01   -4.830E+01   -4.804E+01   -4.777E+01   -4.751E+01   -4.726E+01   -4.700E+01   -4.675E+01
    -4.650E+01   -4.626E+01   -4.602E+01   -4.578E+01   -4.554E+01   -4.531E+01   -4.508E+01   -4.485E+01   -4.463E+01   -4.441E+01
    -4.419E+01   -4.398E+01   -4.377E+01   -4.356E+01   -4.336E+01   -4.316E+01   -4.296E+01   -4.277E+01   -4.258E+01   -4.239E+01
    -4.221E+01   -4.203E+01   -4.185E+01   -4.168E+01   -4.151E+01   -4.135E+01   -4.119E+01   -4.103E+01   -4.088E+01   -4.073E+01
    -4.058E+01   -4.044E+01   -4.030E+01   -4.017E+01   -4.004E+01   -3.991E+01   -3.979E+01   -3.967E+01   -3.955E+01   -3.944E+01
    -3.933E+01   -3.923E+01   -3.913E+01   -3.903E+01   -3.894E+01   -3.884E+01   -3.876E+01   -3.867E+01   -3.859E+01   -3.851E+01
    -3.844E+01   -3.837E+01   -3.830E+01   -3.824E+01   -3.818E+01   -3.812E+01   -3.806E+01   -3.801E+01   -3.796E+01   -3.792E+01
    -3.787E+01   -3.784E+01   -3.780E+01   -3.776E+01   -3.773E+01   -3.770E+01   -3.768E+01   -3.765E+01   -3.763E+01   -3.761E+01
    -3.759E+01   -3.757E+01   -3.755E+01   -3.754E+01   -3.752E+01   -3.751E+01   -3.750E+01   -3.748E+01   -3.747E+01   -3.746E+01
    -3.745E+01   -3.744E+01   -3.743E+01   -3.742E+01   -3.740E+01   -3.739E+01   -3.738E+01   -3.736E+01   -3.735E+01   -3.733E+01
    -3.731E+01   -3.729E+01   -3.727E+01   -3.725E+01   -3.723E+01   -3.720E+01   -3.718E+01   -3.715E+01   -3.712E+01   -3.709E+01
    -3.705E+01   -3.702E+01   -3.698E+01   -3.695E+01   -3.691E+01   -3.687E+01   -3.682E+01   -3.678E+01   -3.673E+01   -3.668E+01
    -3.663E+01   -3.658E+01   -3.653E+01   -3.647E+01   -3.641E+01   -3.635E+01   -3.629E+01   -3.623E+01   -3.616E+01   -3.609E+01
    -3.603E+01   -3.595E+01   -3.588E+01   -3.581E+01   -3.573E+01   -3.565E+01   -3.558E+01   -3.550E+01   -3.542E+01   -3.534E+01
    -3.526E+01   -3.519E+01   -3.511E+01   -3.504E+01   -3.496E+01   -3.489E+01   -3.482E+01   -3.476E+01   -3.469E+01   -3.463E+01
    -3.457E+01   -3.451E+01   -3.446E+01   -3.441E+01   -3.437E+01   -3.433E+01   -3.429E+01   -3.426E+01   -3.423E+01   -3.421E+01
    -3.420E+01   -3.419E+01   -3.419E+01   -3.419E+01   -3.420E+01   -3.421E+01   -3.423E+01   -3.426E+01   -3.430E+01   -3.434E+01
    -3.438E+01   -3.444E+01   -3.450E+01   -3.457E+01   -3.464E+01   -3.472E+01   -3.481E+01   -3.491E+01   -3.502E+01   -3.513E+01
    -3.525E+01   -3.538E+01   -3.551E+01   -3.566E+01   -3.581E+01   -3.597E+01   -3.614E+01   -3.632E+01   -3.650E+01   -3.670E+01
    -3.690E+01   -3.711E+01   -3.733E+01   -3.756E+01   -3.780E+01   -3.804E+01   -3.829E+01   -3.854E+01   -3.881E+01   -3.907E+01
    -3.935E+01   -3.962E+01   -3.991E+01   -4.019E+01   -4.048E+01   -4.078E+01   -4.107E+01   -4.137E+01   -4.167E+01   -4.197E+01
    -4.228E+01   -4.258E+01   -4.289E+01   -4.320E+01   -4.350E+01   -4.381E+01   -4.411E+01   -4.442E+01   -4.472E+01   -4.502E+01
    -4.532E+01   -4.562E+01   -4.591E+01   -4.620E+01   -4.648E+01   -4.676E+01   -4.704E+01   -4.731E+01   -4.757E+01   -4.783E+01
    -4.808E+01   -4.832E+01   -4.856E+01   -4.879E+01   -4.901E+01   -4.922E+01   -4.942E+01   -4.961E+01   -4.979E+01   -4.996E+01
    -5.012E+01   -5.026E+01   -5.040E+01   -5.052E+01   -5.063E+01   -5.073E+01   -5.081E+01   -5.087E+01   -5.093E+01   -5.096E+01
    -5.098E+01   -5.099E+01   -5.098E+01   -5.096E+01   -5.092E+01   -5.086E+01   -5.079E+01   -5.071E+01   -5.061E+01   -5.050E+01
    -5.038E+01   -5.024E+01   -5.009E+01   -4.993E+01   -4.976E+01   -4.957E+01   -4.938E+01   -4.917E+01   -4.895E+01   -4.872E+01
    -4.848E+01   -4.823E+01   -4.797E+01   -4.769E+01   -4.741E+01   -4.712E+01   -4.683E+01   -4.652E+01   -4.620E+01   -4.588E+01
    -4.555E+01   -4.521E+01   -4.486E+01   -4.451E+01   -4.415E+01   -4.379E+01   -4.342E+01   -4.304E+01   -4.267E+01   -4.228E+01
    -4.190E+01   -4.151E+01   -4.111E+01   -4.072E+01   -4.032E+01   -3.992E+01   -3.952E+01   -3.912E+01   -3.872E+01   -3.832E+01
    -3.792E+01   -3.752E+01   -3.713E+01   -3.673E+01   -3.634E+01   -3.595E+01   -3.556E+01   -3.518E+01   -3.480E+01   -3.442E+01
    -3.405E+01   -3.369E+01   -3.333E+01   -3.297E+01   -3.262E+01   -3.228E+01   -3.194E+01   -3.160E+01   -3.128E+01   -3.095E+01
    -3.064E+01   -3.033E+01   -3.002E+01   -2.972E+01   -2.943E+01   -2.914E+01   -2.886E+01   -2.859E+01   -2.832E+01   -2.806E+01
    -2.780E+01   -2.755E+01   -2.731E+01   -2.708E+01   -2.685E+01   -2.663E+01   -2.641E+01   -2.620E+01   -2.600E+01   -2.581E+01
    -2.563E+01   -2.545E+01   -2.528E+01   -2.511E+01   -2.495E+01   -2.480E+01   -2.466E+01   -2.452E+01   -2.438E+01   -2.426E+01
    -2.413E+01   -2.402E+01   -2.391E+01   -2.380E+01   -2.370E+01   -2.360E+01   -2.351E+01   -2.342E+01   -2.334E+01   -2.325E+01
    -2.318E+01   -2.310E+01   -2.303E+01   -2.297E+01   -2.290E+01   -2.284E+01   -2.278E+01   -2.273E+01   -2.267E+01   -2.262E+01
    -2.257E+01   -2.252E+01   -2.247E+01   -2.243E+01   -2.239E+01   -2.234E+01   -2.230E+01   -2.226E+01   -2.223E+01   -2.219E+01
    -2.215E+01   -2.212E+01   -2.208E+01   -2.205E+01   -2.202E+01   -2.199E+01   -2.196E+01   -2.193E+01   -2.190E+01   -2.187E+01
    -2.184E+01   -2.182E+01   -2.179E+01   -2.176E+01   -2.174E+01   -2.171E+01   -2.168E+01   -2.166E+01   -2.163E+01   -2.160E+01
 Mac      Conc. = 2.74E-04
  -9.13000E+01 -9.14500E+01 -9.17793E+01 -9.24007E+01 -9.33404E+01 -9.45492E+01 -9.57619E+01 -9.67427E+01 -9.73774E+01 -9.76857E+01
  -9.78083E+01 -9.80693E+01 -9.88879E+01 -1.00078E+02 -1.00389E+02 -9.89508E+01 -9.62805E+01 -9.31648E+01 -8.97574E+01 -8.61894E+01
  -8.30068E+01 -8.05106E+01 -7.85206E+01 -7.67086E+01 -7.48866E+01 -7.29726E+01 -7.09855E+01 -6.91003E+01 -6.74132E+01 -6.58997E+01
  -6.46515E+01 -6.38505E+01 -6.34955E+01 -6.31525E+01 -6.22105E+01 -6.04778E+01 -5.85208E+01 -5.70552E+01 -5.61714E+01 -5.54779E+01
  -5.45410E+01 -5.33113E+01 -5.20498E+01 -5.10659E+01 -5.04358E+01 -5.01627E+01 -5.03481E+01 -5.09197E+01 -5.16294E+01 -5.23088E+01
  -5.28848E+01 -5.33432E+01 -5.36557E+01 -5.36248E+01 -5.30253E+01 -5.20217E+01 -5.08951E+01 -4.95858E+01 -4.81093E+01 -4.67308E+01
  -4.57967E+01 -4.54290E+01 -4.54972E+01 -4.56785E+01 -4.58166E+01 -4.60089E+01 -4.62222E+01 -4.59640E+01 -4.48102E+01 -4.29903E+01
  -4.10240E+01 -3.92509E+01 -3.78097E+01 -3.67907E+01 -3.62885E+01 -3.62550E+01 -3.64529E+01 -3.66927E+01 -3.69670E+01 -3.71674E+01
  -3.70905E+01 -3.66368E+01 -3.59347E+01 -3.51021E+01 -3.41886E+01 -3.32572E+01 -3.23881E+01 -3.15725E+01 -3.08577E+01 -3.02631E+01
  -2.97987E+01 -2.95948E+01 -2.98719E+01 -3.07196E+01 -3.21211E+01 -3.39201E+01 -3.57777E+01 -3.74964E+01 -3.92316E+01 -4.11777E+01
  -4.34348E+01 -4.61118E+01 -4.95840E+01 -5.41832E+01 -5.94895E+01 -6.44611E+01 -6.81333E+01 -7.01667E+01 -7.06455E+01 -6.98103E+01
