 
 $NMID
 ID=''
 FMTDAT='(2E13.5)'
 TRAMP=   1.00000E+0
 VOLUME=   1.00000E+0
 $END
   5.89830E+5   5.01004E+5
   1.05342E+6   1.81957E+6
   1.20627E+6   1.63001E+6
   1.00736E+6   1.60056E+6
   1.03289E+6   1.72691E+6
   1.10769E+6   1.63491E+6
   1.02273E+6   1.59167E+6
   1.01007E+6   1.67214E+6
   1.02715E+6   1.63935E+6
   9.50690E+5   1.62446E+6
   9.26034E+5   1.67086E+6
   9.19485E+5   1.64914E+6
   8.61363E+5   1.64197E+6
   8.33239E+5   1.67285E+6
   8.07060E+5   1.65806E+6
   7.54851E+5   1.65325E+6
   7.35379E+5   1.67494E+6
   7.16069E+5   1.66318E+6
   6.77471E+5   1.65827E+6
   6.70550E+5   1.66478E+6
   6.51141E+5   1.65172E+6
   6.14323E+5   1.64971E+6
   5.98049E+5   1.65526E+6
   5.76165E+5   1.64553E+6
   5.38101E+5   1.64386E+6
   5.22408E+5   1.64246E+6
   4.95691E+5   1.63634E+6
   4.55349E+5   1.63919E+6
   4.27198E+5   1.63653E+6
   4.05041E+5   1.62521E+6
   3.76785E+5   1.62614E+6
   3.57238E+5   1.62278E+6
   3.34609E+5   1.61088E+6
   3.13033E+5   1.60663E+6
   3.00649E+5   1.59992E+6
   2.87824E+5   1.58957E+6
   2.70794E+5   1.58809E+6
   2.54196E+5   1.58280E+6
   2.33715E+5   1.57056E+6
   2.12998E+5   1.56589E+6
   1.93260E+5   1.55907E+6
   1.70679E+5   1.54733E+6
   1.50230E+5   1.53870E+6
   1.32088E+5   1.53255E+6
   1.08984E+5   1.52221E+6
   8.64933E+4   1.51528E+6
   6.70793E+4   1.50792E+6
   4.61036E+4   1.49699E+6
   2.68288E+4   1.48445E+6
   1.18647E+4   1.47454E+6
  -3.74826E+3   1.46466E+6
  -2.14898E+4   1.45509E+6
  -3.71728E+4   1.44541E+6
  -5.30545E+4   1.43503E+6
  -7.11035E+4   1.42392E+6
  -8.98554E+4   1.41328E+6
  -1.08580E+5   1.40107E+6
  -1.26317E+5   1.38747E+6
  -1.42752E+5   1.37481E+6
  -1.58834E+5   1.36350E+6
  -1.76829E+5   1.35189E+6
  -1.94224E+5   1.33981E+6
  -2.09838E+5   1.32803E+6
  -2.26369E+5   1.31439E+6
  -2.42497E+5   1.29983E+6
  -2.55967E+5   1.28525E+6
  -2.69449E+5   1.27113E+6
  -2.83670E+5   1.25755E+6
  -2.98285E+5   1.24558E+6
  -3.13783E+5   1.23230E+6
  -3.29558E+5   1.21740E+6
  -3.43483E+5   1.20253E+6
  -3.56488E+5   1.18904E+6
  -3.71834E+5   1.17567E+6
  -3.85981E+5   1.16078E+6
  -3.98984E+5   1.14510E+6
  -4.11633E+5   1.13128E+6
  -4.24618E+5   1.11769E+6
  -4.37161E+5   1.10257E+6
  -4.49385E+5   1.08682E+6
  -4.60963E+5   1.07199E+6
  -4.72148E+5   1.05635E+6
  -4.83661E+5   1.04185E+6
  -4.95595E+5   1.02664E+6
  -5.07462E+5   1.01020E+6
  -5.18522E+5   9.94363E+5
  -5.29029E+5   9.79756E+5
  -5.39929E+5   9.64974E+5
  -5.50114E+5   9.48963E+5
  -5.58869E+5   9.33816E+5
  -5.66478E+5   9.18964E+5
  -5.74592E+5   9.04707E+5
  -5.83148E+5   8.90189E+5
  -5.89769E+5   8.75046E+5
  -5.95696E+5   8.59593E+5
  -6.00947E+5   8.45653E+5
  -6.06248E+5   8.32166E+5
  -6.12644E+5   8.18092E+5
  -6.18377E+5   8.03806E+5
  -6.22630E+5   7.89541E+5
  -6.27805E+5   7.75771E+5
  -6.33941E+5   7.61378E+5
  -6.38742E+5   7.45769E+5
  -6.42018E+5   7.30251E+5
  -6.45243E+5   7.16341E+5
  -6.48465E+5   7.03723E+5
  -6.52236E+5   6.90217E+5
  -6.56080E+5   6.75333E+5
  -6.57874E+5   6.60645E+5
  -6.58320E+5   6.47332E+5
  -6.60090E+5   6.34660E+5
  -6.63151E+5   6.21536E+5
  -6.65788E+5   6.07185E+5
  -6.67290E+5   5.93056E+5
  -6.68952E+5   5.79297E+5
  -6.71035E+5   5.65273E+5
  -6.72624E+5   5.50789E+5
  -6.73182E+5   5.36083E+5
  -6.72576E+5   5.22138E+5
  -6.72075E+5   5.09712E+5
  -6.72968E+5   4.97196E+5
  -6.73436E+5   4.84297E+5
  -6.73686E+5   4.71221E+5
  -6.73711E+5   4.58339E+5
  -6.73817E+5   4.44881E+5
  -6.72673E+5   4.31201E+5
  -6.71849E+5   4.18001E+5
  -6.71179E+5   4.05093E+5
  -6.70708E+5   3.92311E+5
  -6.70518E+5   3.79306E+5
  -6.70516E+5   3.65336E+5
  -6.69745E+5   3.50559E+5
  -6.68121E+5   3.37401E+5
  -6.66612E+5   3.24698E+5
  -6.65462E+5   3.11931E+5
  -6.64105E+5   2.98934E+5
  -6.62073E+5   2.86670E+5
  -6.60273E+5   2.75311E+5
  -6.58699E+5   2.63316E+5
  -6.56825E+5   2.50813E+5
  -6.54007E+5   2.38475E+5
  -6.50959E+5   2.26894E+5
  -6.47885E+5   2.16542E+5
  -6.45491E+5   2.05566E+5
  -6.43443E+5   1.93890E+5
  -6.40463E+5   1.82618E+5
  -6.36648E+5   1.71461E+5
  -6.33166E+5   1.60380E+5
  -6.29474E+5   1.50123E+5
  -6.25833E+5   1.39780E+5
  -6.21572E+5   1.29329E+5
  -6.17391E+5   1.20397E+5
  -6.13709E+5   1.11944E+5
  -6.10021E+5   1.02754E+5
  -6.05581E+5   9.34911E+4
  -6.00868E+5   8.49939E+4
  -5.96289E+5   7.71226E+4
  -5.91927E+5   6.92589E+4
  -5.87305E+5   6.10686E+4
  -5.82389E+5   5.34770E+4
  -5.77248E+5   4.60068E+4
  -5.72354E+5   3.86009E+4
  -5.67029E+5   3.08449E+4
  -5.61508E+5   2.36497E+4
  -5.55669E+5   1.69864E+4
  -5.50403E+5   1.07023E+4
  -5.45255E+5   4.32059E+3
  -5.40130E+5  -2.21672E+3
  -5.34572E+5  -8.55215E+3
  -5.28684E+5  -1.43510E+4
  -5.22879E+5  -1.98923E+4
  -5.17408E+5  -2.52833E+4
  -5.12116E+5  -3.09812E+4
  -5.06024E+5  -3.66476E+4
  -4.99732E+5  -4.20691E+4
  -4.94274E+5  -4.72247E+4
  -4.88611E+5  -5.28605E+4
  -4.82567E+5  -5.86986E+4
  -4.76111E+5  -6.35010E+4
  -4.69590E+5  -6.82205E+4
  -4.64057E+5  -7.28893E+4
  -4.58640E+5  -7.79975E+4
  -4.52284E+5  -8.30093E+4
  -4.46140E+5  -8.76973E+4
  -4.39665E+5  -9.19732E+4
  -4.33650E+5  -9.63619E+4
  -4.27520E+5  -1.00206E+5
  -4.21163E+5  -1.03892E+5
  -4.15099E+5  -1.07726E+5
  -4.09459E+5  -1.11235E+5
  -4.03944E+5  -1.15471E+5
  -3.97906E+5  -1.20115E+5
  -3.91409E+5  -1.24199E+5
  -3.84832E+5  -1.27668E+5
  -3.78541E+5  -1.31320E+5
  -3.72658E+5  -1.34949E+5
  -3.66716E+5  -1.38760E+5
  -3.60291E+5  -1.42238E+5
  -3.54393E+5  -1.45508E+5
  -3.48539E+5  -1.49505E+5
  -3.42286E+5  -1.53080E+5
  -3.35562E+5  -1.56106E+5
  -3.29191E+5  -1.58604E+5
  -3.23592E+5  -1.61692E+5
  -3.17665E+5  -1.64347E+5
  -3.11895E+5  -1.67202E+5
  -3.05657E+5  -1.70047E+5
  -2.99877E+5  -1.72864E+5
  -2.93878E+5  -1.75535E+5
  -2.87989E+5  -1.77905E+5
  -2.81885E+5  -1.80174E+5
  -2.76089E+5  -1.82072E+5
  -2.70517E+5  -1.83990E+5
  -2.65108E+5  -1.86065E+5
  -2.59654E+5  -1.88679E+5
  -2.53505E+5  -1.90623E+5
  -2.47878E+5  -1.91749E+5
  -2.42147E+5  -1.92808E+5
  -2.36936E+5  -1.94380E+5
  -2.31620E+5  -1.95701E+5
  -2.26394E+5  -1.96785E+5
  -2.21258E+5  -1.97520E+5
  -2.16070E+5  -1.98387E+5
  -2.11062E+5  -1.99590E+5
  -2.05667E+5  -2.00426E+5
  -2.00583E+5  -2.00892E+5
  -1.95477E+5  -2.00957E+5
  -1.91303E+5  -2.01485E+5
  -1.86262E+5  -2.02196E+5
  -1.81539E+5  -2.02452E+5
  -1.76415E+5  -2.02446E+5
  -1.71925E+5  -2.02339E+5
  -1.67717E+5  -2.02547E+5
  -1.63259E+5  -2.02282E+5
  -1.59012E+5  -2.02066E+5
  -1.54696E+5  -2.01528E+5
  -1.50916E+5  -2.00939E+5
  -1.46479E+5  -2.00760E+5
  -1.42484E+5  -2.00529E+5
  -1.38307E+5  -1.99494E+5
  -1.34336E+5  -1.98530E+5
  -1.30730E+5  -1.98174E+5
  -1.26731E+5  -1.97451E+5
  -1.22828E+5  -1.97202E+5
  -1.18641E+5  -1.95835E+5
  -1.15264E+5  -1.94953E+5
  -1.11784E+5  -1.94249E+5
  -1.07812E+5  -1.93318E+5
  -1.04279E+5  -1.92244E+5
  -1.00676E+5  -1.90937E+5
  -9.75036E+4  -1.90102E+5
  -9.41792E+4  -1.89409E+5
  -9.05610E+4  -1.88176E+5
  -8.71603E+4  -1.86994E+5
  -8.38187E+4  -1.85579E+5
  -8.08235E+4  -1.84163E+5
  -7.75071E+4  -1.83042E+5
  -7.43349E+4  -1.82135E+5
  -7.08599E+4  -1.81024E+5
  -6.77856E+4  -1.79794E+5
  -6.45960E+4  -1.78715E+5
  -6.11133E+4  -1.77499E+5
  -5.76988E+4  -1.76004E+5
  -5.45638E+4  -1.74075E+5
  -5.20999E+4  -1.72807E+5
  -4.92831E+4  -1.71879E+5
  -4.59485E+4  -1.70443E+5
  -4.30252E+4  -1.68968E+5
  -4.02694E+4  -1.67407E+5
  -3.75606E+4  -1.65909E+5
  -3.49203E+4  -1.64338E+5
  -3.22104E+4  -1.62960E+5
  -2.96930E+4  -1.61407E+5
  -2.70259E+4  -1.60027E+5
  -2.44032E+4  -1.58835E+5
  -2.15794E+4  -1.57336E+5
  -1.89227E+4  -1.55724E+5
  -1.66036E+4  -1.54073E+5
  -1.45099E+4  -1.52361E+5
  -1.21270E+4  -1.50964E+5
  -9.74795E+3  -1.49267E+5
  -7.77769E+3  -1.47746E+5
  -5.69410E+3  -1.46288E+5
  -3.56347E+3  -1.44606E+5
  -1.36380E+3  -1.43203E+5
   6.48205E+2  -1.40818E+5
   2.35679E+3  -1.38994E+5
   4.31620E+3  -1.37351E+5
   5.82660E+3  -1.35775E+5
   7.68095E+3  -1.34212E+5
   9.26239E+3  -1.32714E+5
   1.12493E+4  -1.30982E+5
   1.27644E+4  -1.29005E+5
   1.40606E+4  -1.27434E+5
   1.55370E+4  -1.25677E+5
   1.70912E+4  -1.23862E+5
   1.83893E+4  -1.22308E+5
   1.96379E+4  -1.20692E+5
   2.11287E+4  -1.19077E+5
   2.27666E+4  -1.17118E+5
   2.40032E+4  -1.15766E+5
   2.51756E+4  -1.13679E+5
   2.60114E+4  -1.12254E+5
   2.75042E+4  -1.10436E+5
   2.86144E+4  -1.08764E+5
   2.97443E+4  -1.06972E+5
   3.08245E+4  -1.05038E+5
   3.14651E+4  -1.03556E+5
   3.26604E+4  -1.02106E+5
   3.35711E+4  -9.99550E+4
   3.45655E+4  -9.84222E+4
   3.52627E+4  -9.67588E+4
   3.60375E+4  -9.54958E+4
   3.70438E+4  -9.37567E+4
   3.81165E+4  -9.19001E+4
   3.86102E+4  -9.00787E+4
   3.92276E+4  -8.87170E+4
   4.00101E+4  -8.71088E+4
   4.08715E+4  -8.51973E+4
   4.12153E+4  -8.38903E+4
   4.20052E+4  -8.23743E+4
   4.26801E+4  -8.04763E+4
   4.32562E+4  -7.93466E+4
   4.36338E+4  -7.74151E+4
   4.40285E+4  -7.60242E+4
   4.45154E+4  -7.46887E+4
   4.53867E+4  -7.31077E+4
   4.57926E+4  -7.16281E+4
   4.64515E+4  -7.01488E+4
   4.68102E+4  -6.84113E+4
   4.70230E+4  -6.69468E+4
   4.72154E+4  -6.55573E+4
   4.75476E+4  -6.40931E+4
   4.78371E+4  -6.27680E+4
   4.82402E+4  -6.12366E+4
   4.84995E+4  -6.00617E+4
   4.89811E+4  -5.84106E+4
   4.92212E+4  -5.72071E+4
   4.95656E+4  -5.56615E+4
   4.98105E+4  -5.43373E+4
   4.97166E+4  -5.31400E+4
   5.01346E+4  -5.19073E+4
   5.04140E+4  -5.04664E+4
   5.02595E+4  -4.91071E+4
   5.06097E+4  -4.81861E+4
   5.03933E+4  -4.67423E+4
   5.06440E+4  -4.54942E+4
   5.05113E+4  -4.42124E+4
   5.07422E+4  -4.31985E+4
   5.04080E+4  -4.20389E+4
   5.06579E+4  -4.10317E+4
   5.08930E+4  -3.96597E+4
   5.09642E+4  -3.86321E+4
   5.07212E+4  -3.74387E+4
   5.03312E+4  -3.67329E+4
   5.04431E+4  -3.52662E+4
   5.03634E+4  -3.42796E+4
   5.03354E+4  -3.33615E+4
   5.00185E+4  -3.23614E+4
   5.01954E+4  -3.13493E+4
   5.00675E+4  -3.02374E+4
   4.98072E+4  -2.91093E+4
   4.94729E+4  -2.82758E+4
   4.91774E+4  -2.75235E+4
   4.89988E+4  -2.66154E+4
   4.89541E+4  -2.55543E+4
   4.88230E+4  -2.45404E+4
