 
 $NMID
 ID=''
 FMTDAT='(2E13.5)'
 TRAMP=   1.00000E+0
 VOLUME=   1.00000E+0
 $END
   2.13289E+4   3.12102E+3
   2.95054E+4  -1.52190E+4
  -9.31646E+3  -3.19633E+4
  -3.03600E+4   1.18455E+4
   7.30302E+3   3.26683E+4
   2.67435E+4  -7.57721E+3
  -4.34305E+3  -2.32730E+4
  -1.68793E+4   6.32605E+3
   5.87436E+3   1.76389E+4
   1.11990E+4  -1.06758E+3
  -6.85084E+3  -1.12763E+4
  -1.09329E+4  -6.06701E+2
   7.65795E+2   9.89799E+3
   4.87846E+3   3.35598E+3
  -1.60908E+3  -8.09736E+3
  -2.35541E+3  -3.74957E+3
   2.67576E+3   5.68205E+3
   1.07115E+3   2.58230E+3
  -2.01044E+3  -3.21256E+3
   3.85148E+2  -1.32385E+3
   1.73113E+3   3.64045E+2
  -2.03900E+2  -9.44606E+2
  -5.49272E+2   3.61829E+2
  -4.11407E+1   6.26173E+2
   1.92831E+2  -1.03905E+3
   1.10269E+3  -3.64280E+2
  -3.64041E+1   1.98933E+3
  -1.40561E+3   1.21183E+3
   9.37434E+1  -1.30975E+3
   2.64928E+2  -2.46407E+2
  -1.44738E+3   9.04283E+2
  -9.22038E+2   1.16803E+1
   1.69797E+2  -8.91841E+2
  -8.08384E+2  -1.18593E+3
   1.89616E+2  -2.47247E+3
   2.73460E+3  -1.11827E+3
   1.30568E+3   1.97382E+3
  -1.72699E+3   1.23174E+3
  -5.23652E+2  -9.96902E+2
   9.82679E+2  -7.79191E+2
  -1.05492E+3   2.40579E+2
  -1.80159E+3  -1.06955E+3
   1.39893E+3  -1.41167E+3
   2.02672E+3  -6.74247E+1
  -1.60633E+2   1.26278E+3
  -6.38253E+2   1.37243E+3
  -3.22236E+2   7.12386E+2
  -1.51159E+3  -5.00646E+2
  -1.56365E+3  -1.58979E+3
   1.72769E+2  -1.27565E+3
   1.47006E+3  -5.08308E+2
   1.12568E+3  -7.65501E+2
   3.86120E+1  -1.49887E+2
   1.50695E+2   6.30092E+2
   7.07768E+2   6.63762E+2
  -3.71211E+2   1.18319E+2
  -1.58077E+3  -3.99685E+2
  -2.14599E+2  -1.11400E+3
   1.76018E+3  -5.81168E+2
   9.52135E+2   8.90016E+2
  -6.29809E+2   9.00923E+2
   1.44474E+2   2.63315E+2
   2.70209E+2   1.07649E+3
  -1.48425E+3   6.93495E+2
  -2.03997E+3  -9.66873E+2
  -3.81327E+1  -1.98119E+3
   1.71153E+3  -1.08243E+3
   1.12378E+3  -1.20598E+2
   4.17177E+2   1.38599E+2
   3.06883E+2   5.16556E+2
   2.77494E+2   2.37386E+2
   3.29512E+2  -6.61847E+2
   3.13283E+2   2.95191E+0
   1.94259E+2   7.88406E+2
  -2.75768E+2   4.44728E+2
  -1.74095E+2  -3.61400E+2
  -1.31737E+2  -2.54345E+2
   2.06581E+2   6.72942E+2
  -3.74004E+2   3.15953E+2
  -4.71103E+2  -4.36360E+2
  -3.60709E+2  -7.80376E+2
   6.34229E+2  -3.55098E+2
   5.12851E+2  -4.65231E+1
   2.35239E+1  -2.43835E+2
  -2.76692E+0  -6.30682E+2
   8.65462E+2  -2.47236E+2
   8.33248E+2   2.34164E+2
   1.35443E+2   3.02895E+2
  -1.15733E+2  -1.44373E+2
   3.57084E+2   4.09178E+1
   6.34968E+2   4.86184E+2
  -1.05676E+2   8.56354E+2
  -8.45043E+2   2.73774E+2
  -8.12671E+2  -3.31665E+2
  -1.29856E+2  -6.05404E+2
   7.72052E+2  -8.13693E+2
   8.46018E+2  -4.62496E+1
   1.85526E+2   1.72168E+2
  -1.96133E+2  -2.67451E+1
   5.28367E+2  -1.44028E+2
   4.65068E+2   5.33562E+2
  -4.16035E+2   8.33703E+2
  -6.42759E+2  -1.98009E+2
  -6.66164E+1  -9.09545E+2
   6.22534E+2  -2.92247E+2
   4.31663E+2   5.53220E+2
  -4.02332E+2   5.04986E+2
  -7.33234E+2  -5.95193E+2
   2.43270E+2  -7.52057E+2
   1.19227E+3   3.16288E+1
   7.58236E+2   5.58070E+2
  -4.48069E+1   6.54710E+2
  -1.74122E+2   5.80700E+2
  -2.29202E+2   5.82646E+2
  -3.27518E+2   2.69690E+2
  -6.82570E+2  -1.27612E+2
  -7.49764E+2  -4.39985E+2
  -1.58544E+2  -8.55587E+2
   4.26883E+2  -8.22002E+2
   8.63408E+2  -4.84221E+2
   6.52451E+2   3.91236E+2
   3.30064E+2   6.12605E+2
  -9.24609E+1   3.73901E+2
  -4.47109E+2   2.30439E+2
  -5.59259E+2   3.40400E+2
  -1.08806E+2  -1.13694E+2
  -9.65837E+1  -2.04367E+2
   3.74269E+2  -2.32633E+2
   4.17982E+2   1.88692E+2
  -2.15584E+2   7.75525E+2
  -5.18342E+2  -4.22779E+1
  -1.59464E+2  -3.57124E+2
   3.38394E+2  -3.56067E+2
   5.76960E+1   1.69900E+2
  -1.84252E+1  -2.48101E+2
   3.62157E+2  -1.28819E+2
   3.80163E+2   1.32823E+2
   2.32664E+2   6.28899E+2
  -4.17107E+2   2.79910E+2
  -1.53741E+2  -2.26637E+2
  -4.14585E+2  -4.25766E+2
   1.26638E+2  -2.59189E+2
   5.72469E+2   2.24381E+2
   2.57607E+2   7.76956E+2
  -4.35743E+2   5.43212E+2
  -8.06896E+2  -8.71182E+1
  -9.90065E+1  -3.50038E+2
  -4.44181E+1  -1.41812E+2
  -3.47754E+2  -8.22413E+1
  -3.82643E+2  -2.94031E+2
   2.50937E+2  -4.07231E+2
   5.55956E+2   8.36786E+1
   3.91038E+1   6.14119E+2
  -6.49333E+2   7.53686E+2
  -3.36209E+2   2.22787E+2
   2.13996E+2  -2.58413E+2
   7.84296E+1   4.64416E+2
  -3.18761E+2   5.18719E+2
  -1.71586E+2   1.55731E+2
   1.43659E+2  -4.24256E+1
  -1.29976E+2   1.93367E+2
  -5.99997E+2   2.11187E+1
  -3.01515E+2  -1.82630E+2
   2.14462E+2  -1.04172E+2
   2.51854E+1  -1.75380E+2
   3.31562E+2   6.87509E+1
   2.52194E+2   3.27378E+2
  -2.12512E+2   1.25750E+2
  -4.35775E+2  -2.48493E+2
   1.75758E+2  -1.87341E+2
   2.78681E+2   4.81019E+1
  -1.09462E+2   2.96499E+2
  -2.61060E+2   1.87554E+2
  -8.85996E+1   1.19517E+2
   3.30947E+2  -1.67057E+2
   1.01048E+2   3.73601E+2
  -2.57223E+2   4.36598E+2
  -2.76410E+2  -8.27845E+1
  -4.45285E+1  -2.98490E+2
   3.30313E+2   2.18575E+2
   1.06932E+2   4.14954E+2
  -3.07643E+2   1.69768E+2
  -3.85662E+2   7.81609E+1
  -3.28025E+1  -1.97683E+2
  -9.72192E+1  -4.13803E+2
   5.47142E+1  -3.43438E+2
   3.69279E+1  -5.43499E+1
   1.02711E+2  -1.75634E+2
   6.19031E+2   2.04789E+2
  -1.90660E+1   6.20048E+2
  -4.28421E+2   4.39740E+2
  -6.20831E+2  -6.93756E+1
  -2.92141E+2  -5.66016E+2
   1.97595E+2  -3.07914E+2
   2.08872E+2  -2.38889E+2
   1.74724E+2   1.39958E+2
  -2.32954E+2   1.48132E+2
   2.34931E+1   1.09274E+2
  -1.46733E+2   1.19455E+2
  -4.03787E+2   9.04154E+1
  -4.28440E+2  -2.80976E+2
   1.39790E+2  -4.75152E+2
   4.91245E+2  -6.79016E+1
   1.27364E+2   2.56928E+2
  -6.27762E+0   2.94722E+2
  -2.02746E+2  -4.27161E+0
  -2.43075E+2  -1.47514E+2
   6.15853E+1  -6.24827E+1
  -1.16586E+2   1.74998E+2
  -2.31368E+2   1.36677E+2
  -7.36691E+1  -6.95893E+1
   2.64024E+2  -6.24850E+1
   6.03940E+1   4.38624E+2
  -3.14792E+2   6.54293E+2
  -6.29351E+2   6.19946E+1
  -1.78195E+2  -2.69538E+2
  -9.10247E+1  -3.73800E+2
   1.06396E+1  -7.94707E+1
   3.75122E+2   5.31424E+1
   5.32144E+0   1.85663E+2
   9.10339E+1  -1.50601E+2
   1.35634E+2   2.94499E+2
  -4.89974E+1   3.37790E+2
  -4.45777E+2   1.14964E-1
  -1.81614E+2  -1.95733E+2
   4.93802E+0  -3.83130E+1
   6.71162E+1   7.48780E+1
  -3.10333E+1   3.20658E+2
  -1.99011E+2   2.12554E+2
  -2.22196E+2  -2.87754E+1
  -1.39990E+1  -9.46204E+1
   1.59785E+2   1.64890E+2
  -1.79648E+2  -5.63437E+1
  -2.18395E+2   1.14396E+2
  -3.98652E+1   2.38095E+1
  -7.51426E+1  -8.93952E+0
   9.94742E+1   4.11142E+1
  -1.59089E+2  -1.12274E+2
  -6.77533E+1  -1.54477E+2
  -1.34427E+0  -9.20418E+1
   1.15566E+2   2.18253E+2
   3.85163E+1   3.89237E+2
  -2.17519E+2  -4.49649E+1
  -6.19901E+1  -2.59016E+2
  -1.55040E+2  -1.45822E+2
  -1.56363E+1   1.94971E+1
   5.47409E+1   1.20669E+2
  -1.30384E+2   7.57297E+1
  -4.22549E+1  -1.02984E+2
   3.38189E+2   2.05742E+2
   1.19637E+2   2.85120E+2
  -1.78666E+2   8.30522E+1
  -5.40082E+1  -1.71538E+2
  -3.18038E+1  -2.12422E+2
   2.86895E+2  -2.25313E+2
   1.55157E+2   7.19873E+1
  -1.82338E+2   1.49484E+2
   4.66097E+1  -8.15330E+1
  -9.52694E+1  -1.92525E+2
  -1.54379E+2   2.14806E+2
  -2.19278E+2   4.40353E+2
  -1.86254E+2  -1.96671E+2
  -1.22138E+2  -4.38364E+2
   2.30472E+2  -1.75445E+2
   9.41474E+1   3.48711E+2
  -1.48951E+2   2.61614E+2
  -3.02766E+2  -2.90639E+2
  -1.06288E+2  -2.95275E+2
  -2.20683E+1  -2.55875E+2
  -1.30514E+2  -5.37471E+1
  -1.03072E+2   9.42824E+1
   1.72664E+1   7.60073E+0
  -7.30809E+1  -2.53563E+2
   1.03266E+2   1.77532E+2
   8.56013E+1   1.43645E+2
  -2.58689E+2  -1.09758E+2
  -3.34589E+0  -2.63954E+2
   2.51410E+2  -2.88417E+2
   2.97222E+2  -4.69724E+1
   1.87153E+2   1.48837E+2
  -2.84093E+1  -1.15009E+2
   2.44267E+1  -7.65468E+1
  -8.61155E+1   1.73610E+2
  -1.37182E+2   2.46007E+2
  -3.69959E+2  -1.71564E+2
  -3.44695E+1  -3.91442E+2
   2.22327E+2  -1.77475E+2
   1.35527E+2  -1.78760E+2
   1.74931E+2   1.82790E+2
  -2.16411E+2   9.43099E+1
  -1.01210E+2  -8.47931E+1
  -1.54152E+2  -1.73017E+2
   3.71328E+1  -1.36824E+2
   2.77684E+1   1.40212E+2
  -6.38364E+1  -1.00233E+2
   3.89251E+1  -1.39946E+2
  -1.63682E+2   3.15184E+2
  -6.29748E+1   8.70341E+1
  -3.70284E+2   1.27803E+2
   8.88484E+1  -1.80137E+2
   9.78199E+0  -1.98627E+2
   2.95882E+2   2.08404E+2
  -5.37394E+1   1.79775E+2
  -2.98160E+2   6.46432E+1
  -1.14808E+2  -2.64312E+2
   1.23110E+2  -1.08290E+2
   4.90070E+1  -3.98266E+1
   8.29463E+1  -8.53890E+0
   1.65775E+2  -4.03588E+1
  -1.08178E+2  -1.86290E+2
   2.82041E+2   8.24112E+1
  -1.09286E+1   4.96399E+1
  -6.83665E+1   3.27351E+2
  -2.65372E+2  -9.50252E+1
   1.55574E+2  -1.40816E+2
   5.63477E+1  -2.09606E+2
  -3.39397E+1   1.65494E+1
  -3.57856E+1  -1.06470E+2
  -2.04452E+1  -1.46547E+2
   4.58047E+1  -2.16243E+2
   2.07731E+2  -1.35348E+2
  -9.68277E+1  -1.61572E+2
  -4.16803E+1  -1.06953E+2
  -1.44713E+2  -1.20265E+2
   1.81265E+2  -1.43051E+2
  -1.64690E+2   2.72503E+2
   1.14108E+2  -2.67348E+1
  -1.55184E+2  -6.64816E+1
  -2.94897E+2  -2.25828E+2
   3.13670E+2  -7.35576E+1
   5.16697E+1   1.10064E+2
   7.24999E+1  -1.16751E+2
   5.11220E+0  -1.58598E+2
   1.46463E+2   3.81456E+1
  -1.74601E+2   1.93187E+2
  -1.69636E+2   1.09523E+2
  -1.71588E+2  -1.28197E+2
   2.25686E+1  -3.54869E+2
   2.10033E+2  -2.84339E+2
   8.89583E+1  -8.47980E+1
  -8.47230E+1   1.55838E+2
  -1.79045E+2   2.76051E+1
  -6.95992E+1  -8.17635E+1
   2.56115E+1  -1.52966E+2
   3.53802E+1   2.10325E+2
  -2.04983E+2  -1.59758E+2
   9.46514E+1   6.89219E+0
   1.23330E+2  -1.17532E+2
   6.59416E+1   1.39755E+2
  -1.03308E+2   2.89091E+2
  -1.66746E+2  -1.60886E+2
   7.18029E+1  -9.91152E+1
   3.25061E+1  -3.24632E+2
   1.41217E+2   2.54458E+1
  -1.70168E+2   6.23917E+0
   1.78258E+2  -1.20879E+2
   3.35943E+0  -2.63197E+1
   1.87838E+2  -4.88106E+1
  -2.65976E+1   1.33851E+2
  -8.91700E+1  -9.33513E+1
  -7.33234E+1  -1.29394E+2
   3.47038E+1  -3.12068E+2
   2.81530E+2  -8.89818E+1
  -1.13854E+2   2.63809E+2
  -1.71525E+1   2.97184E+1
  -2.89801E+2  -1.59702E+2
   2.68302E+1  -4.62577E+1
