 
 $NMID
 ID=''
 FMTDAT='(2E13.5)'
 TRAMP=   1.00000E+0
 VOLUME=   1.00000E+0
 $END
  -2.27547E+5   5.56624E+5
  -1.15720E+6   1.12722E+6
  -1.04197E+6   1.17787E+6
  -1.05442E+6   1.03668E+6
  -1.11349E+6   1.04575E+6
  -1.04151E+6   1.04679E+6
  -1.02112E+6   9.80718E+5
  -1.04642E+6   9.70220E+5
  -1.00903E+6   9.41660E+5
  -1.00383E+6   8.82525E+5
  -1.01268E+6   8.72780E+5
  -9.86381E+5   8.50062E+5
  -9.88552E+5   8.07181E+5
  -1.00092E+6   7.90140E+5
  -9.90068E+5   7.55070E+5
  -9.97540E+5   7.10782E+5
  -1.00545E+6   6.93058E+5
  -9.93101E+5   6.60730E+5
  -9.89515E+5   6.20199E+5
  -9.78784E+5   6.02156E+5
  -9.58299E+5   5.70182E+5
  -9.48946E+5   5.32791E+5
  -9.33503E+5   5.12132E+5
  -9.12294E+5   4.84235E+5
  -9.01211E+5   4.51987E+5
  -8.83598E+5   4.36697E+5
  -8.70012E+5   4.11156E+5
  -8.67155E+5   3.78265E+5
  -8.55544E+5   3.52915E+5
  -8.41676E+5   3.28783E+5
  -8.37631E+5   3.02817E+5
  -8.24787E+5   2.80960E+5
  -8.08950E+5   2.54435E+5
  -7.96686E+5   2.30355E+5
  -7.78091E+5   2.12672E+5
  -7.58994E+5   1.95228E+5
  -7.45629E+5   1.78708E+5
  -7.27491E+5   1.62885E+5
  -7.08192E+5   1.44598E+5
  -6.94801E+5   1.29092E+5
  -6.79108E+5   1.14081E+5
  -6.63110E+5   9.67953E+4
  -6.51197E+5   8.23756E+4
  -6.38829E+5   6.70046E+4
  -6.25440E+5   4.84966E+4
  -6.13590E+5   3.13336E+4
  -6.00208E+5   1.60204E+4
  -5.85792E+5  -6.38659E+2
  -5.70224E+5  -1.43448E+4
  -5.54515E+5  -2.59886E+4
  -5.39377E+5  -3.77625E+4
  -5.25271E+5  -4.80714E+4
  -5.09886E+5  -5.76386E+4
  -4.95975E+5  -6.68025E+4
  -4.82723E+5  -7.50162E+4
  -4.69158E+5  -8.35963E+4
  -4.55583E+5  -9.29242E+4
  -4.43663E+5  -1.00762E+5
  -4.31320E+5  -1.08385E+5
  -4.19860E+5  -1.16915E+5
  -4.07996E+5  -1.25322E+5
  -3.96055E+5  -1.33048E+5
  -3.84087E+5  -1.40434E+5
  -3.71575E+5  -1.47639E+5
  -3.58634E+5  -1.53739E+5
  -3.45835E+5  -1.58412E+5
  -3.34430E+5  -1.62503E+5
  -3.23510E+5  -1.66145E+5
  -3.12550E+5  -1.69401E+5
  -3.02101E+5  -1.73133E+5
  -2.91796E+5  -1.76441E+5
  -2.82217E+5  -1.79200E+5
  -2.73429E+5  -1.81844E+5
  -2.64780E+5  -1.84551E+5
  -2.55870E+5  -1.87681E+5
  -2.46765E+5  -1.89763E+5
  -2.38878E+5  -1.91687E+5
  -2.30398E+5  -1.94044E+5
  -2.22005E+5  -1.95836E+5
  -2.13390E+5  -1.96939E+5
  -2.05510E+5  -1.97558E+5
  -1.98217E+5  -1.97641E+5
  -1.90760E+5  -1.98197E+5
  -1.83517E+5  -1.98098E+5
  -1.76520E+5  -1.97731E+5
  -1.70356E+5  -1.97383E+5
  -1.64428E+5  -1.96885E+5
  -1.58652E+5  -1.96716E+5
  -1.52983E+5  -1.96200E+5
  -1.47772E+5  -1.95589E+5
  -1.42972E+5  -1.94708E+5
  -1.37799E+5  -1.93887E+5
  -1.33161E+5  -1.93060E+5
  -1.28224E+5  -1.91704E+5
  -1.24031E+5  -1.89530E+5
  -1.20049E+5  -1.87651E+5
  -1.16269E+5  -1.85945E+5
  -1.12650E+5  -1.83902E+5
  -1.09379E+5  -1.81796E+5
  -1.06190E+5  -1.79138E+5
  -1.03063E+5  -1.77104E+5
  -1.00236E+5  -1.75288E+5
  -9.73705E+4  -1.73491E+5
  -9.47308E+4  -1.71084E+5
  -9.26117E+4  -1.68966E+5
  -9.06213E+4  -1.67202E+5
  -8.83006E+4  -1.65077E+5
  -8.55487E+4  -1.63091E+5
  -8.29904E+4  -1.60394E+5
  -8.17626E+4  -1.58032E+5
  -8.02694E+4  -1.56043E+5
  -7.85292E+4  -1.53800E+5
  -7.67401E+4  -1.51318E+5
  -7.54741E+4  -1.48944E+5
  -7.37816E+4  -1.46986E+5
  -7.22657E+4  -1.44925E+5
  -7.08648E+4  -1.42316E+5
  -6.99912E+4  -1.40197E+5
  -6.88103E+4  -1.37945E+5
  -6.83004E+4  -1.35573E+5
  -6.74643E+4  -1.34142E+5
  -6.65253E+4  -1.31964E+5
  -6.57516E+4  -1.30100E+5
  -6.46049E+4  -1.28242E+5
  -6.39427E+4  -1.26076E+5
  -6.30069E+4  -1.24207E+5
  -6.21743E+4  -1.22310E+5
  -6.13827E+4  -1.20211E+5
  -6.07640E+4  -1.18275E+5
  -5.99402E+4  -1.16775E+5
  -5.89138E+4  -1.15176E+5
  -5.81684E+4  -1.13246E+5
  -5.76897E+4  -1.11531E+5
  -5.74829E+4  -1.10150E+5
  -5.64240E+4  -1.08717E+5
  -5.58038E+4  -1.07130E+5
  -5.55789E+4  -1.05279E+5
  -5.53595E+4  -1.04182E+5
  -5.46577E+4  -1.02970E+5
  -5.43683E+4  -1.01399E+5
  -5.41735E+4  -1.00037E+5
  -5.34881E+4  -9.89833E+4
  -5.32588E+4  -9.75493E+4
  -5.27461E+4  -9.64431E+4
  -5.23630E+4  -9.52968E+4
  -5.18248E+4  -9.43611E+4
  -5.11505E+4  -9.28018E+4
  -5.09232E+4  -9.19022E+4
  -5.05176E+4  -9.08004E+4
  -5.02754E+4  -9.00610E+4
  -4.98971E+4  -8.89510E+4
  -4.94991E+4  -8.77992E+4
  -4.92355E+4  -8.68016E+4
  -4.88765E+4  -8.61099E+4
  -4.87343E+4  -8.50440E+4
  -4.84733E+4  -8.42331E+4
  -4.81206E+4  -8.34239E+4
  -4.80304E+4  -8.26557E+4
  -4.76268E+4  -8.13628E+4
  -4.73254E+4  -8.07944E+4
  -4.72198E+4  -7.99215E+4
  -4.67336E+4  -7.92195E+4
  -4.64854E+4  -7.81932E+4
  -4.63496E+4  -7.71319E+4
  -4.60969E+4  -7.65475E+4
  -4.59096E+4  -7.57300E+4
  -4.55303E+4  -7.48955E+4
  -4.56225E+4  -7.43804E+4
  -4.48754E+4  -7.33469E+4
  -4.44680E+4  -7.31179E+4
  -4.44543E+4  -7.19916E+4
  -4.41379E+4  -7.12578E+4
  -4.37879E+4  -7.05217E+4
  -4.36889E+4  -6.97977E+4
  -4.32086E+4  -6.90596E+4
  -4.28728E+4  -6.86434E+4
  -4.25534E+4  -6.79967E+4
  -4.20148E+4  -6.70269E+4
  -4.19017E+4  -6.63563E+4
  -4.15418E+4  -6.57149E+4
  -4.15422E+4  -6.51917E+4
  -4.06641E+4  -6.43798E+4
  -4.03250E+4  -6.37729E+4
  -4.02566E+4  -6.29959E+4
  -3.97215E+4  -6.26239E+4
  -3.91094E+4  -6.17845E+4
  -3.90788E+4  -6.10038E+4
  -3.86810E+4  -6.04205E+4
  -3.80708E+4  -5.95640E+4
  -3.80635E+4  -5.90615E+4
  -3.75463E+4  -5.85240E+4
  -3.70654E+4  -5.78655E+4
  -3.66476E+4  -5.73638E+4
  -3.62195E+4  -5.64856E+4
  -3.58252E+4  -5.61391E+4
  -3.54407E+4  -5.55375E+4
  -3.48740E+4  -5.48374E+4
  -3.43596E+4  -5.43281E+4
  -3.38742E+4  -5.37145E+4
  -3.36971E+4  -5.33122E+4
  -3.31052E+4  -5.27614E+4
  -3.28951E+4  -5.17533E+4
  -3.25091E+4  -5.12602E+4
  -3.20531E+4  -5.08594E+4
  -3.17992E+4  -5.02558E+4
  -3.11670E+4  -4.97988E+4
  -3.08666E+4  -4.91919E+4
  -3.02594E+4  -4.88139E+4
  -3.02414E+4  -4.82393E+4
  -2.97127E+4  -4.75905E+4
  -2.91576E+4  -4.72933E+4
  -2.88441E+4  -4.67437E+4
  -2.83476E+4  -4.63840E+4
  -2.81358E+4  -4.58216E+4
  -2.78562E+4  -4.53854E+4
  -2.74795E+4  -4.49415E+4
  -2.71942E+4  -4.42051E+4
  -2.69533E+4  -4.39669E+4
  -2.68079E+4  -4.32892E+4
  -2.63325E+4  -4.30348E+4
  -2.63434E+4  -4.23427E+4
  -2.58806E+4  -4.21457E+4
  -2.57512E+4  -4.16387E+4
  -2.55667E+4  -4.11460E+4
  -2.52509E+4  -4.07049E+4
  -2.50656E+4  -3.99889E+4
  -2.50658E+4  -3.99480E+4
  -2.48114E+4  -3.94114E+4
  -2.45770E+4  -3.93414E+4
  -2.44138E+4  -3.87382E+4
  -2.43997E+4  -3.82536E+4
  -2.42082E+4  -3.79098E+4
  -2.42629E+4  -3.73356E+4
  -2.40032E+4  -3.68876E+4
  -2.37483E+4  -3.66438E+4
  -2.37634E+4  -3.62845E+4
  -2.38309E+4  -3.59160E+4
  -2.36200E+4  -3.56660E+4
  -2.38072E+4  -3.54319E+4
  -2.34373E+4  -3.47900E+4
  -2.34177E+4  -3.46560E+4
  -2.34632E+4  -3.45589E+4
  -2.32336E+4  -3.40465E+4
  -2.31279E+4  -3.35499E+4
  -2.32482E+4  -3.31283E+4
  -2.31413E+4  -3.30368E+4
  -2.29175E+4  -3.27252E+4
  -2.28265E+4  -3.25306E+4
  -2.26989E+4  -3.18846E+4
  -2.26885E+4  -3.18767E+4
  -2.27289E+4  -3.17456E+4
  -2.26297E+4  -3.16414E+4
  -2.25390E+4  -3.13978E+4
  -2.22164E+4  -3.08451E+4
  -2.23589E+4  -3.10177E+4
  -2.20263E+4  -3.05714E+4
  -2.19485E+4  -3.02909E+4
  -2.16369E+4  -3.04355E+4
  -2.15966E+4  -3.02686E+4
  -2.15287E+4  -3.00850E+4
  -2.13963E+4  -2.99588E+4
  -2.10254E+4  -2.98853E+4
  -2.09223E+4  -2.96367E+4
  -2.06977E+4  -2.94232E+4
  -2.06440E+4  -2.93268E+4
  -2.03689E+4  -2.94524E+4
  -2.04945E+4  -2.94116E+4
  -1.98327E+4  -2.96713E+4
  -1.99282E+4  -2.92851E+4
  -1.97653E+4  -2.92577E+4
  -1.94215E+4  -2.91690E+4
  -1.91810E+4  -2.93420E+4
  -1.90978E+4  -2.91504E+4
  -1.88520E+4  -2.90353E+4
  -1.85522E+4  -2.91699E+4
  -1.84095E+4  -2.92079E+4
  -1.80785E+4  -2.92694E+4
  -1.80299E+4  -2.92558E+4
  -1.77512E+4  -2.93950E+4
  -1.76439E+4  -2.91953E+4
  -1.73711E+4  -2.90707E+4
  -1.71425E+4  -2.90952E+4
  -1.69627E+4  -2.91137E+4
  -1.69418E+4  -2.92585E+4
  -1.68290E+4  -2.91060E+4
  -1.63475E+4  -2.90442E+4
  -1.61287E+4  -2.90477E+4
  -1.60686E+4  -2.89322E+4
  -1.61283E+4  -2.88633E+4
  -1.58839E+4  -2.91515E+4
  -1.57730E+4  -2.90740E+4
  -1.54010E+4  -2.86036E+4
  -1.52808E+4  -2.88272E+4
  -1.50186E+4  -2.86417E+4
  -1.48557E+4  -2.86064E+4
  -1.47401E+4  -2.86744E+4
  -1.48107E+4  -2.85804E+4
  -1.45081E+4  -2.86047E+4
  -1.43689E+4  -2.85386E+4
  -1.39757E+4  -2.85414E+4
  -1.41366E+4  -2.85716E+4
  -1.34163E+4  -2.82361E+4
  -1.35212E+4  -2.81234E+4
  -1.35293E+4  -2.83669E+4
  -1.32657E+4  -2.83923E+4
  -1.29857E+4  -2.79871E+4
  -1.27795E+4  -2.79834E+4
  -1.26907E+4  -2.79338E+4
  -1.25376E+4  -2.79296E+4
  -1.22103E+4  -2.78495E+4
  -1.22615E+4  -2.78178E+4
  -1.20197E+4  -2.77109E+4
  -1.18689E+4  -2.77327E+4
  -1.15073E+4  -2.73977E+4
  -1.12494E+4  -2.74742E+4
  -1.09852E+4  -2.72761E+4
  -1.08177E+4  -2.73247E+4
  -1.06054E+4  -2.72154E+4
  -1.06788E+4  -2.71539E+4
  -1.00610E+4  -2.72808E+4
  -1.00602E+4  -2.69090E+4
  -9.61253E+3  -2.69032E+4
  -9.58419E+3  -2.72418E+4
  -9.05770E+3  -2.66937E+4
  -8.93568E+3  -2.66841E+4
  -8.57526E+3  -2.66024E+4
  -8.58042E+3  -2.65241E+4
  -8.17223E+3  -2.67489E+4
  -8.05309E+3  -2.66101E+4
  -7.55992E+3  -2.65706E+4
  -7.57697E+3  -2.65239E+4
  -7.06595E+3  -2.62164E+4
  -6.79669E+3  -2.63506E+4
  -6.60736E+3  -2.62002E+4
  -6.25344E+3  -2.62033E+4
  -6.36309E+3  -2.62879E+4
  -5.66154E+3  -2.63713E+4
  -5.41202E+3  -2.60884E+4
  -5.34572E+3  -2.59956E+4
  -4.94701E+3  -2.58430E+4
  -4.92349E+3  -2.59120E+4
  -4.22806E+3  -2.57741E+4
  -3.93288E+3  -2.57081E+4
  -3.69858E+3  -2.53420E+4
  -3.56875E+3  -2.56438E+4
  -3.30186E+3  -2.54736E+4
  -2.71281E+3  -2.52916E+4
  -2.82721E+3  -2.52962E+4
  -2.29820E+3  -2.49276E+4
  -2.27501E+3  -2.51157E+4
  -1.88344E+3  -2.48569E+4
  -1.48360E+3  -2.49122E+4
  -1.08220E+3  -2.45677E+4
  -9.70311E+2  -2.43884E+4
  -6.80105E+2  -2.43045E+4
  -4.33311E+2  -2.41792E+4
  -1.46609E+2  -2.39330E+4
   2.69438E+2  -2.41476E+4
   3.42107E+2  -2.39061E+4
   9.08738E+2  -2.36682E+4
   7.00677E+2  -2.37642E+4
   1.22880E+3  -2.33590E+4
   1.61933E+3  -2.32077E+4
   1.58046E+3  -2.30956E+4
   1.86496E+3  -2.31576E+4
   2.27560E+3  -2.28331E+4
   2.49710E+3  -2.29296E+4
