 
 $NMID
 ID=''
 FMTDAT='(2E13.5)'
 TRAMP=   1.00000E+0
 VOLUME=   1.00000E+0
 $END
   1.80662E+4  -4.84505E+3
   4.64947E+3  -8.18793E+3
  -4.58915E+3  -2.10881E+3
   4.32348E+3   8.28860E+3
   1.74441E+3   2.38471E+3
  -5.42845E+3  -2.16708E+3
   1.61526E+3  -7.14150E+2
   3.83095E+3  -3.42808E+2
  -1.62466E+3   2.73801E+3
  -1.77360E+2   3.38594E+3
   1.33078E+2  -1.60493E+3
  -2.28518E+3  -4.53178E+2
   1.59821E+2   2.02949E+3
  -5.49903E+2  -1.21552E+3
  -2.78977E+3  -2.43862E+3
   1.53635E+3  -4.71976E+2
   3.22504E+3   1.31595E+2
  -3.23362E+2   5.07695E+2
   3.71000E+2   4.60105E+1
   1.42227E+3  -2.52120E+2
  -1.11450E+3   1.63251E+3
  -2.50075E+2   5.03934E+2
   1.88561E+3  -1.11959E+3
   1.96526E+2   1.10231E+3
  -1.97797E+3   5.63858E+2
  -6.82344E+2  -2.07103E+3
   1.81908E+3  -5.20931E+1
   3.52291E+2   2.56907E+3
  -2.28753E+3  -4.91092E+2
  -8.00303E+2  -2.47361E+3
   1.93954E+3   6.15790E+1
   2.02836E+2   1.76638E+3
  -2.00681E+3   1.09831E+3
  -1.06659E+3  -4.66021E+2
   3.32465E+2  -1.27325E+3
   7.45134E+2  -8.10087E+2
   1.14503E+3   5.50372E+2
   1.36800E+2   8.49786E+2
  -2.55135E+2   4.46808E+2
   1.24934E+2   4.61802E+2
  -8.17006E+2   6.00905E+2
  -8.97315E+2   1.74548E+2
   1.58884E+2  -9.86468E+2
   1.59567E+2  -9.54548E+2
  -4.51674E+2  -4.63045E+2
   8.67272E+2  -8.94972E+0
   1.26839E+3   7.58730E+2
  -6.42925E+1   1.53783E+3
  -1.42719E+3   3.23083E+2
  -6.60125E+2  -6.46084E+2
   2.08198E+2  -2.23985E+2
   2.82339E+2   2.96006E+2
   1.29314E+2  -3.99344E+2
   6.22132E+2  -1.78336E+2
   4.37970E+2   3.29500E+1
  -1.98137E+1   3.47605E+2
  -2.81327E+2   2.95547E+2
  -4.69145E+2  -1.59978E+2
  -2.14766E+2  -7.58335E+2
   1.28843E+2  -5.78381E+2
   1.51443E+2  -2.20338E+2
   5.90899E+2   4.79888E+1
   6.14717E+2   1.12642E+2
   3.66588E+2   8.24789E+2
  -6.37386E+2   5.58759E+2
  -7.69834E+2   1.22642E+2
  -3.20541E+2  -3.95430E+2
  -2.11525E+2  -5.20794E+2
  -1.64709E+2  -5.80687E+2
   2.38474E+2  -4.08840E+2
  -5.42034E+1   8.49949E+1
  -3.29931E+2   1.73113E+2
  -9.90332E+1  -3.22940E+2
   3.55050E+2  -2.39214E+2
   1.92983E+2   2.32917E+2
  -3.33736E+2   1.79596E+2
  -3.64949E+2  -1.86494E+2
   1.21066E+2  -3.18727E+2
   3.37930E+2   2.36668E+2
  -2.23460E+2   1.87084E+2
   7.59139E+0  -1.70624E+1
  -1.94133E+2  -5.24061E+1
   4.81350E+1   8.81054E+1
  -1.72182E+2   8.84842E+1
  -2.20644E+2   1.01084E+2
  -1.61275E+2  -9.39807E+1
  -6.95530E+1  -1.64048E+2
   1.91044E+1  -2.40072E+2
  -6.49666E+1  -2.10449E+2
   2.56039E+2  -6.36386E+1
   1.51610E+2  -1.41795E+2
   2.24685E+2  -3.17892E+2
   6.44973E+1  -8.80546E+0
   3.04755E+2   5.42799E+1
  -4.70068E+1   4.01329E+2
   2.08298E+1  -2.15192E+2
   7.41248E+1  -2.15385E+2
   2.61037E+2  -1.08392E+2
  -1.20117E+1   5.90489E+1
  -2.65323E+2  -5.51039E+0
   7.98043E+1  -1.46369E+2
   1.04009E+2  -2.95438E+1
   1.03350E+1   2.50930E+2
  -1.25492E+2  -1.33602E+2
  -1.86506E+2  -3.42837E+2
  -1.39997E+2  -3.56398E+1
   1.84026E+2  -4.05815E+1
  -3.75259E+1   3.77434E+1
  -2.69665E+1   6.71290E+1
   9.01627E+1   3.70661E+1
  -1.55716E+2   2.73124E+1
  -4.17840E+1  -8.31530E+0
  -6.57757E+1   1.59589E+2
   3.74608E+1   2.66040E+2
   3.55317E+1  -1.48359E+2
  -1.78787E+2  -9.14938E+1
   4.10495E+1   2.76944E+2
  -7.69462E+0   9.06758E+1
  -2.82703E+1  -3.31780E+1
  -6.55744E+1  -9.09849E+1
   6.87288E+1  -1.09934E+2
  -5.70703E+1  -9.23736E+1
  -1.28550E+2   2.17378E+2
   1.09814E+2   1.36230E+2
  -1.56666E+2   8.21939E+1
  -1.99342E+2  -4.44804E+0
   1.33163E+2   4.58976E+1
   6.24547E+1   1.83978E+2
   1.48017E+2   2.09148E+2
   4.77571E+1   2.18769E+2
  -1.54494E+2   1.22106E+2
   4.94204E+1   1.86537E+2
   4.00704E+1   6.41869E+1
  -9.69344E+1   1.76853E+2
  -1.33619E+2  -1.01997E+1
  -4.14288E+1   1.56038E+2
   1.23306E+2   8.44386E+1
  -3.47098E+1   8.75518E+1
   2.79468E+1  -8.55335E+1
   2.91745E+2   7.72176E+1
   1.51077E+2  -1.88146E+2
   1.44720E+2   9.10014E+0
   1.10903E+2   5.45971E+0
   1.88161E+2  -5.66434E+1
  -8.19116E+0   8.65679E+1
   4.90656E+1   1.23452E+2
   7.32591E+1   5.50660E+1
  -2.14610E+1  -1.42720E+2
   5.70956E+1   1.32886E+2
   1.43465E+2  -1.30753E+2
   1.53241E+2  -1.09159E+2
   2.22312E+2   8.94448E+0
  -5.84801E+1   8.91740E+1
   9.38574E+1  -3.37407E+0
   1.45209E+2   3.55448E+1
   1.45491E+2   2.09974E+2
   2.97703E+1   7.23118E+1
   1.40287E+2  -5.57630E+1
  -1.52072E+2   7.70469E+1
  -8.86714E-1  -7.35170E+1
  -1.57156E+2   1.11743E+2
   5.86774E+1  -3.77449E+1
   2.86076E+1  -1.45284E+2
   2.58028E+2   6.82456E+1
  -6.82013E+1   7.49694E+1
  -4.53000E+1  -1.82732E+2
   2.37711E+0  -9.34606E+1
   2.63245E+1  -1.18597E+2
  -1.79799E+2   9.81241E+1
  -5.01720E+1  -1.09655E+2
  -8.21559E+1  -9.76396E+1
   3.42897E+1  -3.47674E+1
   1.41387E+1  -2.03690E+2
  -9.02872E+1  -1.30943E+2
  -1.58552E+2  -4.93565E+1
   1.09205E+2  -1.35489E+2
  -3.42662E+1  -3.60506E+0
   2.13447E+2  -6.01432E+1
  -1.80827E+2   4.42486E+1
   1.22999E+2  -2.14648E+1
   1.70338E+2  -1.95068E+2
   1.10003E+2   8.02076E+1
  -1.22253E+2  -1.98610E+2
   1.86372E+2  -1.71653E+2
   6.76506E+1  -2.90188E+2
  -1.82132E+1  -1.25619E+2
   1.40348E+2   1.53857E+1
  -6.11772E+1  -2.68200E+1
   4.89049E+1   1.16154E+1
   2.43544E+2  -4.02089E+2
  -1.93679E+2   5.14608E+1
  -2.60262E+2  -3.11740E+2
  -1.99183E+2  -7.31068E+1
  -2.78176E+1  -3.16102E+1
  -5.40512E+0   7.47426E+1
  -4.35073E+1   3.03209E+1
   3.98948E+1  -1.61742E+2
  -2.90568E+1  -8.16441E+1
  -2.25181E+1  -1.84030E+2
  -2.73933E+0   8.34331E+1
  -1.28863E+2  -1.77063E+2
   5.87036E+1   3.37235E+1
  -8.00523E+0  -1.14744E+1
  -7.37936E+1   1.80164E+2
  -1.63439E+2  -1.84545E+2
   1.35179E+2  -4.93680E+1
  -3.41111E+2  -8.22976E+0
  -1.00498E+1  -4.17373E+1
  -5.52737E+1   3.18619E+2
  -1.98537E+1   1.36875E+2
  -3.06042E+2   5.91355E-1
   1.45131E+2  -1.56323E+2
   3.43123E+1   1.86105E+2
  -6.40583E+0   1.16050E+2
  -1.23898E+1  -1.38574E+1
  -1.51060E+2  -1.65024E+2
   1.36963E+1   8.22937E+1
   1.20937E+2   2.22559E+2
  -1.33350E+2   2.72707E+2
   9.36264E+1   5.09788E+1
  -1.23630E+2   2.60549E+0
  -3.73309E+1   2.82097E+1
   6.90730E+1  -1.09470E+2
  -1.75920E+1  -6.35555E+1
  -2.28036E+1   1.03330E+2
  -1.54593E+2  -1.61980E+0
  -2.50256E+2   1.16488E+2
  -1.62721E+2  -3.76741E+1
  -1.07147E+2   1.15799E+2
  -7.10378E+1   1.02090E+1
  -9.98257E+1   9.19847E+1
   2.19176E+1   1.19948E+2
   9.04807E+0  -1.50812E+2
  -9.64936E+1   3.58599E+1
   1.50931E+2   2.28515E+2
   1.78884E+1   1.31313E+2
   2.78536E+1   7.35520E+1
  -1.06146E+2   1.22512E+2
  -4.23246E+1   1.69186E+2
  -1.58282E+2   6.43881E+1
   3.42231E+1   5.41493E+1
   6.76534E+1   9.63076E+1
  -1.43603E+2  -7.53465E+1
   4.75396E+1   1.17713E+2
   4.40356E+1   1.56606E+2
  -4.05926E+0   8.45144E+1
  -5.22100E+1   2.33659E+2
   5.23524E+1  -9.66821E+1
   1.56305E+2  -5.70404E+1
  -6.37066E+1  -5.04140E+0
   1.01539E+2  -2.65596E+2
   2.24897E+2  -8.20135E+1
   9.28697E+1   1.09036E+2
  -9.46327E+1  -2.03148E+2
   1.63790E+2  -1.13319E+2
  -1.42575E+2   1.70394E+2
  -1.99236E+2  -1.20190E+1
  -1.50164E+2  -1.39330E+2
  -1.19267E+1  -8.34528E+1
   1.58422E+2   1.21726E+2
   1.82322E+2   5.26790E+1
   6.32395E+1  -8.95622E+1
   1.77190E+2   1.73605E+2
   1.12910E+1  -1.15835E+2
  -7.99993E+1   1.34416E+2
   7.55195E+1   1.99205E+2
   2.71151E+2  -1.01977E+2
   6.31208E+0   8.77499E+1
   9.14507E+1  -1.32902E+2
   3.90294E+1  -5.03130E+0
  -4.26228E+1  -3.12838E+2
   7.96865E+1   1.20776E+2
   1.86987E+1   7.09425E+1
   3.38569E+2  -1.68464E+2
   1.65927E+2   9.66506E+1
   1.07372E+2   5.94794E+1
   4.35545E+1  -4.99918E+1
   4.08054E+1   2.22650E+2
   1.79016E+2  -1.30312E+2
  -1.21126E+2   1.57081E+1
  -1.71946E+2  -6.61869E+1
   1.92134E+2  -2.06609E+2
   2.33001E+2   4.81345E+1
   1.72610E+2   7.43593E+1
   9.16662E+1  -2.04052E+2
  -8.40920E+1  -9.12107E+1
   1.73322E+2   1.53573E+1
   7.46478E+1   7.13775E+1
  -1.97393E+2   9.47331E+1
   1.22108E+1   1.50235E+1
   7.12329E+1  -9.13677E+1
  -7.52319E+1  -1.26495E+2
   1.03009E+1   1.62522E+2
   3.45305E+0  -3.37626E+1
   4.98587E+1  -1.98175E+2
   5.04770E+1  -2.54901E+1
   2.74398E+1   3.42340E+1
  -1.41645E+2  -2.25536E+1
  -1.01166E+2  -3.46682E+1
   4.48800E+1  -3.28788E+1
   2.27470E+2  -2.89939E+1
  -7.91101E+1   9.66489E+0
   5.38120E+1   1.69859E+2
   1.24279E+2  -3.28525E+1
   1.65318E+2  -5.95524E+1
  -5.09155E+1   3.66882E+1
   9.49314E+1   1.16749E+2
  -9.11153E+0  -1.39866E+2
  -2.42553E+1   1.01794E+2
   5.86351E+1  -1.07654E+2
   8.91151E+1   2.91259E+1
  -1.29445E+2   8.73569E+1
   2.18547E+2   2.36158E+1
   4.87775E+1  -2.22868E+1
   2.52353E+2   8.36876E+1
  -3.28631E+1   9.65849E+1
   1.08429E+1  -9.41932E+1
  -1.65685E+2  -1.34549E+1
  -1.00646E+1  -1.50207E+2
  -1.00741E+2   6.95219E+1
  -7.52662E+1   7.04883E+1
   4.58744E+1   9.98707E+1
   5.66638E+1  -8.51966E+1
   2.25418E+2   1.54446E+2
  -2.02603E+2  -6.04790E+1
   2.37284E+1  -2.34746E+1
  -5.72608E+1   3.14121E+1
  -1.17618E+2   1.10942E+2
   1.35650E+2   7.16741E+1
   1.28586E+1  -1.55713E+2
  -3.60745E+1  -3.12924E+1
  -9.90306E+1  -2.22309E+0
  -1.55782E+2   2.04513E+1
   4.41321E+1  -1.85998E+2
  -3.03704E+2   1.27500E+2
  -1.80098E+2  -4.57449E+1
   2.22576E+2  -1.01086E+2
  -1.08914E+2  -1.12317E+2
   1.26557E+2  -1.00873E+2
  -1.97092E+1  -9.86732E+1
   2.30021E+2   1.44636E+2
  -2.89845E+2   1.32588E+2
  -8.97665E+0  -1.80373E+1
  -6.86697E+1  -1.24609E+2
   9.06546E+1   1.66589E+2
  -1.70456E+2  -5.57571E+1
  -3.49903E+1  -3.76193E+1
   1.02085E+1  -3.69851E+1
  -3.30274E+1   6.82604E+1
   2.11562E+2   2.88421E+1
  -1.55442E+2   1.95105E+2
  -7.64116E+1   1.75922E+1
  -8.32921E+1   3.44656E+2
   1.35146E+2  -8.24003E+1
   6.72703E+1  -1.02074E+2
  -1.25785E+2   5.89351E+1
  -1.51117E+1  -2.20074E+0
   9.91666E+1  -5.04905E+0
   4.17781E+1   9.76460E+1
  -1.90095E+2  -2.03465E+2
  -4.30832E+2  -2.11408E+2
  -1.52514E+1  -1.83456E+2
   1.22846E+2  -1.54343E+2
  -1.41314E+2  -3.81686E+1
  -1.24515E+2   9.15362E+1
   1.42022E+2  -5.28816E+0
  -6.88082E+1   2.59827E+2
