 
 $NMID
 ID=''
 FMTDAT='(2E13.5)'
 TRAMP=   1.00000E+0
 VOLUME=   1.00000E+0
 $END
   7.17409E+5   9.89019E+4
   1.67733E+6   8.29161E+5
   1.68552E+6   5.72312E+5
   1.52708E+6   6.57496E+5
   1.63981E+6   7.49168E+5
   1.66216E+6   6.24634E+5
   1.55795E+6   6.01189E+5
   1.57651E+6   6.56875E+5
   1.60297E+6   6.19222E+5
   1.57821E+6   6.01657E+5
   1.57855E+6   5.90942E+5
   1.55181E+6   5.61291E+5
   1.53327E+6   5.76178E+5
   1.55998E+6   5.65786E+5
   1.54121E+6   5.19968E+5
   1.50872E+6   5.16718E+5
   1.52414E+6   5.21031E+5
   1.51459E+6   5.00664E+5
   1.49126E+6   5.01002E+5
   1.49512E+6   4.94436E+5
   1.48164E+6   4.79367E+5
   1.46382E+6   4.79606E+5
   1.46524E+6   4.71086E+5
   1.45391E+6   4.56858E+5
   1.43750E+6   4.56801E+5
   1.43612E+6   4.39529E+5
   1.42578E+6   4.22796E+5
   1.41623E+6   4.20771E+5
   1.41085E+6   4.08939E+5
   1.39767E+6   3.89239E+5
   1.38804E+6   3.87804E+5
   1.38293E+6   3.81284E+5
   1.37006E+6   3.71789E+5
   1.35847E+6   3.66528E+5
   1.35000E+6   3.57711E+5
   1.33912E+6   3.48713E+5
   1.33222E+6   3.46180E+5
   1.32299E+6   3.41004E+5
   1.30798E+6   3.32723E+5
   1.30002E+6   3.25883E+5
   1.29215E+6   3.16936E+5
   1.27847E+6   3.08338E+5
   1.26724E+6   2.99405E+5
   1.26105E+6   2.89865E+5
   1.25016E+6   2.82383E+5
   1.24001E+6   2.76294E+5
   1.22995E+6   2.71034E+5
   1.21803E+6   2.69151E+5
   1.20486E+6   2.65856E+5
   1.19262E+6   2.60364E+5
   1.18107E+6   2.57098E+5
   1.17040E+6   2.55860E+5
   1.15923E+6   2.52306E+5
   1.14697E+6   2.49088E+5
   1.13533E+6   2.46073E+5
   1.12381E+6   2.44137E+5
   1.11141E+6   2.41977E+5
   1.09794E+6   2.37838E+5
   1.08583E+6   2.32755E+5
   1.07572E+6   2.29663E+5
   1.06395E+6   2.28058E+5
   1.05145E+6   2.25352E+5
   1.03947E+6   2.23004E+5
   1.02754E+6   2.23424E+5
   1.01329E+6   2.23298E+5
   9.98254E+5   2.20628E+5
   9.85543E+5   2.18257E+5
   9.72888E+5   2.17704E+5
   9.60922E+5   2.17607E+5
   9.48597E+5   2.17704E+5
   9.35697E+5   2.17440E+5
   9.22718E+5   2.16530E+5
   9.10305E+5   2.15125E+5
   8.98913E+5   2.15015E+5
   8.86280E+5   2.15814E+5
   8.72792E+5   2.15562E+5
   8.60082E+5   2.14905E+5
   8.48053E+5   2.15754E+5
   8.35231E+5   2.16965E+5
   8.21804E+5   2.17941E+5
   8.08516E+5   2.18211E+5
   7.95954E+5   2.18424E+5
   7.83675E+5   2.19824E+5
   7.71100E+5   2.21021E+5
   7.58131E+5   2.21703E+5
   7.45887E+5   2.21995E+5
   7.33913E+5   2.21839E+5
   7.22533E+5   2.22616E+5
   7.10033E+5   2.22396E+5
   6.98606E+5   2.21969E+5
   6.87010E+5   2.21248E+5
   6.76091E+5   2.21120E+5
   6.64515E+5   2.21576E+5
   6.52398E+5   2.22078E+5
   6.39736E+5   2.21507E+5
   6.28624E+5   2.20621E+5
   6.17982E+5   2.20146E+5
   6.07180E+5   2.20391E+5
   5.95306E+5   2.20084E+5
   5.84547E+5   2.19379E+5
   5.74852E+5   2.18896E+5
   5.63915E+5   2.19191E+5
   5.52573E+5   2.18474E+5
   5.41364E+5   2.17401E+5
   5.31445E+5   2.15937E+5
   5.22181E+5   2.14716E+5
   5.12413E+5   2.13223E+5
   5.01833E+5   2.12717E+5
   4.91175E+5   2.11531E+5
   4.81055E+5   2.09035E+5
   4.72206E+5   2.07227E+5
   4.62933E+5   2.06566E+5
   4.52862E+5   2.05942E+5
   4.42423E+5   2.04971E+5
   4.33043E+5   2.03471E+5
   4.23802E+5   2.02703E+5
   4.13636E+5   2.01982E+5
   4.03655E+5   2.00406E+5
   3.94544E+5   1.98128E+5
   3.85905E+5   1.95998E+5
   3.77251E+5   1.94734E+5
   3.68575E+5   1.93096E+5
   3.59844E+5   1.91684E+5
   3.51296E+5   1.90007E+5
   3.42645E+5   1.88827E+5
   3.33200E+5   1.86958E+5
   3.24758E+5   1.85064E+5
   3.16404E+5   1.83196E+5
   3.07944E+5   1.81838E+5
   2.99671E+5   1.80800E+5
   2.91525E+5   1.79661E+5
   2.82834E+5   1.78494E+5
   2.74549E+5   1.77053E+5
   2.66886E+5   1.75242E+5
   2.59319E+5   1.73821E+5
   2.51002E+5   1.72067E+5
   2.43522E+5   1.70005E+5
   2.36279E+5   1.68778E+5
   2.28931E+5   1.67350E+5
   2.21522E+5   1.65733E+5
   2.14022E+5   1.64023E+5
   2.06899E+5   1.61590E+5
   2.00279E+5   1.59309E+5
   1.93707E+5   1.57876E+5
   1.87101E+5   1.56272E+5
   1.80446E+5   1.54550E+5
   1.73665E+5   1.52383E+5
   1.67620E+5   1.50636E+5
   1.61450E+5   1.48158E+5
   1.55483E+5   1.46289E+5
   1.49639E+5   1.43711E+5
   1.44248E+5   1.41697E+5
   1.39153E+5   1.39574E+5
   1.33861E+5   1.37759E+5
   1.28137E+5   1.35439E+5
   1.23327E+5   1.33073E+5
   1.18571E+5   1.31021E+5
   1.13562E+5   1.28961E+5
   1.08884E+5   1.26663E+5
   1.04162E+5   1.24566E+5
   9.97930E+4   1.22336E+5
   9.53371E+4   1.20184E+5
   9.09070E+4   1.17848E+5
   8.68308E+4   1.15394E+5
   8.31391E+4   1.13312E+5
   7.90652E+4   1.10800E+5
   7.54097E+4   1.08732E+5
   7.21348E+4   1.06721E+5
   6.84912E+4   1.04534E+5
   6.53911E+4   1.02424E+5
   6.22103E+4   9.96468E+4
   5.90685E+4   9.75858E+4
   5.61388E+4   9.58359E+4
   5.29630E+4   9.35520E+4
   5.03611E+4   9.12771E+4
   4.78333E+4   8.90822E+4
   4.52008E+4   8.73225E+4
   4.27607E+4   8.49985E+4
   4.01493E+4   8.22950E+4
   3.78041E+4   8.02906E+4
   3.56638E+4   7.81786E+4
   3.31970E+4   7.62847E+4
   3.14166E+4   7.38488E+4
   2.93031E+4   7.17700E+4
   2.73083E+4   6.96674E+4
   2.54722E+4   6.78708E+4
   2.38195E+4   6.53691E+4
   2.19858E+4   6.31405E+4
   2.02660E+4   6.10478E+4
   1.88941E+4   5.89723E+4
   1.74791E+4   5.71430E+4
   1.60293E+4   5.52174E+4
   1.43867E+4   5.30896E+4
   1.33287E+4   5.11497E+4
   1.18987E+4   4.91984E+4
   1.06860E+4   4.71749E+4
   9.73164E+3   4.53030E+4
   8.25409E+3   4.36587E+4
   7.23013E+3   4.16774E+4
   6.07391E+3   3.97452E+4
   5.19297E+3   3.79177E+4
   4.06260E+3   3.61980E+4
   3.31708E+3   3.39511E+4
   2.50923E+3   3.27109E+4
   1.81063E+3   3.08793E+4
   1.13253E+3   2.91923E+4
   2.58983E+2   2.75893E+4
  -1.74474E+2   2.55799E+4
  -8.03137E+2   2.42250E+4
  -1.59168E+3   2.25937E+4
  -2.27666E+3   2.07962E+4
  -2.40895E+3   1.95728E+4
  -2.90409E+3   1.79913E+4
  -3.21852E+3   1.64189E+4
  -3.93344E+3   1.50540E+4
  -4.13810E+3   1.36242E+4
  -4.50509E+3   1.24731E+4
  -4.49698E+3   1.10124E+4
  -4.64968E+3   9.75968E+3
  -5.06936E+3   8.57189E+3
  -5.43002E+3   7.04761E+3
  -5.37738E+3   6.24811E+3
  -5.60777E+3   4.76052E+3
  -5.70228E+3   3.77417E+3
  -5.60595E+3   2.40432E+3
  -5.43461E+3   1.64818E+3
  -5.65343E+3   4.21240E+2
  -5.45473E+3  -4.13645E+2
  -5.84142E+3  -1.38192E+3
  -5.63388E+3  -2.58970E+3
  -5.61357E+3  -3.44301E+3
  -5.36202E+3  -4.19215E+3
  -5.06876E+3  -5.06412E+3
  -5.16092E+3  -5.82459E+3
  -4.96555E+3  -6.74310E+3
  -4.68160E+3  -7.14421E+3
  -4.62999E+3  -8.04248E+3
  -4.36460E+3  -8.75371E+3
  -4.28590E+3  -9.40543E+3
  -3.87233E+3  -9.92323E+3
  -3.73668E+3  -1.07752E+4
  -3.56031E+3  -1.09868E+4
  -3.02532E+3  -1.18266E+4
  -2.77187E+3  -1.23546E+4
  -2.46482E+3  -1.29120E+4
  -2.06338E+3  -1.32430E+4
  -1.64497E+3  -1.36539E+4
  -1.31212E+3  -1.43149E+4
  -1.14932E+3  -1.44984E+4
  -6.91743E+2  -1.51024E+4
  -5.31231E+2  -1.53774E+4
   7.81743E-1  -1.58489E+4
   3.32976E+2  -1.60876E+4
   7.35427E+2  -1.65534E+4
   1.22576E+3  -1.66541E+4
   1.53961E+3  -1.70115E+4
   2.07360E+3  -1.72435E+4
   2.61427E+3  -1.77304E+4
   3.21921E+3  -1.78184E+4
   3.79268E+3  -1.82275E+4
   4.38085E+3  -1.83868E+4
   4.39092E+3  -1.84104E+4
   5.08066E+3  -1.87671E+4
   5.47489E+3  -1.88488E+4
   6.15036E+3  -1.88103E+4
   6.48031E+3  -1.90566E+4
   7.14954E+3  -1.91887E+4
   7.62809E+3  -1.93901E+4
   8.08000E+3  -1.93344E+4
   8.59010E+3  -1.95488E+4
   9.15220E+3  -1.95263E+4
   9.47766E+3  -1.95079E+4
   1.01799E+4  -1.94846E+4
   1.02543E+4  -1.97893E+4
   1.10100E+4  -1.97907E+4
   1.12333E+4  -1.97529E+4
   1.15929E+4  -1.95186E+4
   1.22631E+4  -1.96195E+4
   1.24718E+4  -1.95508E+4
   1.29776E+4  -1.94047E+4
   1.35248E+4  -1.93604E+4
   1.37152E+4  -1.93039E+4
   1.42816E+4  -1.93143E+4
   1.48111E+4  -1.91738E+4
   1.50751E+4  -1.91177E+4
   1.54108E+4  -1.88178E+4
   1.58554E+4  -1.85531E+4
   1.61885E+4  -1.85289E+4
   1.61374E+4  -1.84701E+4
   1.68771E+4  -1.84232E+4
   1.72219E+4  -1.78164E+4
   1.74946E+4  -1.79853E+4
   1.77118E+4  -1.73918E+4
   1.81572E+4  -1.70747E+4
   1.82190E+4  -1.68755E+4
   1.86202E+4  -1.68757E+4
   1.88861E+4  -1.63954E+4
   1.93225E+4  -1.60128E+4
   1.93322E+4  -1.59006E+4
   1.96788E+4  -1.54428E+4
   1.99030E+4  -1.52445E+4
   2.01423E+4  -1.50614E+4
   2.04164E+4  -1.43992E+4
   2.05477E+4  -1.42511E+4
   2.07262E+4  -1.37289E+4
   2.08221E+4  -1.36030E+4
   2.11939E+4  -1.30062E+4
   2.14018E+4  -1.29490E+4
   2.16705E+4  -1.25568E+4
   2.18248E+4  -1.21758E+4
   2.18662E+4  -1.17240E+4
   2.18714E+4  -1.12343E+4
   2.22800E+4  -1.08429E+4
   2.24123E+4  -1.04557E+4
   2.24059E+4  -1.01685E+4
   2.27522E+4  -9.58002E+3
   2.28287E+4  -9.51873E+3
   2.29479E+4  -8.91571E+3
   2.32829E+4  -8.58464E+3
   2.32411E+4  -8.20940E+3
   2.34130E+4  -7.50260E+3
   2.32948E+4  -7.20564E+3
   2.36451E+4  -6.70385E+3
   2.35414E+4  -6.30372E+3
   2.37954E+4  -6.03456E+3
   2.37195E+4  -5.53007E+3
   2.40053E+4  -5.03073E+3
   2.42921E+4  -4.65037E+3
   2.40346E+4  -4.19245E+3
   2.41279E+4  -3.61982E+3
   2.41375E+4  -3.48075E+3
   2.39110E+4  -3.04865E+3
   2.44203E+4  -2.52064E+3
   2.42395E+4  -2.03272E+3
   2.43240E+4  -1.75634E+3
   2.41877E+4  -1.62318E+3
   2.43416E+4  -8.99116E+2
   2.43319E+4  -5.04423E+2
   2.44122E+4  -3.20142E+2
   2.43332E+4   1.14305E+2
   2.43102E+4   5.69082E+2
   2.43139E+4   8.10781E+2
   2.41910E+4   1.34134E+3
   2.42545E+4   1.52518E+3
   2.40359E+4   2.10915E+3
   2.41165E+4   2.26360E+3
   2.39175E+4   2.61259E+3
   2.38894E+4   3.21883E+3
   2.38159E+4   3.32191E+3
   2.36510E+4   3.64571E+3
   2.36323E+4   4.10339E+3
   2.34644E+4   4.23377E+3
   2.34121E+4   4.59007E+3
   2.33941E+4   4.97324E+3
   2.31309E+4   5.00953E+3
   2.30280E+4   5.52057E+3
   2.29645E+4   5.66571E+3
   2.26186E+4   5.74377E+3
   2.26068E+4   6.25584E+3
   2.27518E+4   6.29803E+3
   2.21632E+4   6.95187E+3
   2.19745E+4   7.08332E+3
   2.18445E+4   7.45527E+3
   2.19678E+4   7.65979E+3
   2.14548E+4   7.75561E+3
   2.12144E+4   8.06059E+3
   2.10600E+4   8.01566E+3
