 
 $NMID
 ID=''
 FMTDAT='(2E13.5)'
 TRAMP=   1.00000E+0
 VOLUME=   1.00000E+0
 $END
   4.45001E+3  -2.48283E+4
  -1.89259E+4  -2.12364E+4
  -1.55683E+4   1.86325E+4
   2.74758E+4   1.52651E+4
   9.91305E+3  -2.22318E+4
  -2.54305E+4  -6.79444E+3
   2.50370E+3   1.98947E+4
   2.17577E+4  -2.87439E+3
  -5.46471E+3  -1.16765E+4
  -8.30374E+3   1.09155E+4
   8.02536E+3   6.58183E+3
   8.91710E+2  -8.56183E+3
  -5.92745E+3  -5.16931E+2
  -8.84146E+2   5.59371E+3
  -1.56433E+3  -1.17065E+3
  -1.13510E+2  -2.35837E+3
   3.46143E+3   4.20250E+1
  -7.09994E+2   9.30455E+2
  -1.88049E+3   1.12926E+3
   2.30281E+3  -4.70389E+2
   6.05879E+2  -1.39786E+3
  -8.54294E+2   1.04909E+1
   2.11302E+3   1.04790E+3
   6.27184E+2   5.12227E+2
  -1.63519E+3  -5.97569E+2
   1.51522E+3  -9.47503E+2
   2.37705E+3   1.50434E+3
  -1.18229E+3   1.55620E+3
  -1.68950E+3  -1.43408E+3
   1.33187E+3  -9.06385E+2
   5.34296E+2   1.59285E+3
  -2.04392E+3   6.49443E+2
  -1.13165E+3  -9.85061E+2
   6.33550E+1  -1.40979E+3
  -8.80337E+2  -1.67084E+3
   7.33166E+2  -1.22373E+3
   2.23375E+3   7.06882E+2
  -2.57603E+2   1.47683E+3
  -1.50038E+3   6.68509E+2
   4.18642E+2  -5.13468E+2
  -4.63635E+2  -6.29622E+2
  -1.65317E+3  -5.56924E+1
   2.52919E+2  -1.01474E+3
   1.71702E+3  -1.48600E+3
   1.54046E+3   2.79173E+2
   7.68746E+2   2.17902E+3
  -9.83977E+2   1.46734E+3
  -2.57987E+3  -4.74021E+2
  -1.56614E+3  -1.02814E+3
  -2.51276E+2  -7.37591E+2
  -3.33938E+2  -9.08548E+2
  -4.63231E+2  -1.03735E+3
   5.92824E+2  -1.96871E+2
   5.05068E+2   8.09008E+2
  -3.01393E+1   6.90862E+2
  -2.30164E+2   2.49724E+2
  -5.48773E+2   2.75067E+2
  -1.21701E+3  -7.15624E+2
   1.17668E+2  -1.33179E+3
   1.39398E+3  -6.86299E+2
   1.03074E+3   8.04915E+2
   2.42601E+2   1.11575E+3
   2.15083E+2   1.03778E+3
  -6.44792E+2   1.12934E+3
  -1.83983E+3   5.01983E+2
  -1.53070E+3  -8.26193E+2
  -1.28971E+2  -1.47979E+3
   1.04686E+3  -1.46873E+3
   1.15420E+3  -2.73077E+1
   1.15398E+2   5.62787E+2
  -4.67071E+2   5.24949E+1
   1.83780E+2  -9.43634E+2
   1.20454E+3   2.10703E+2
   4.36226E+2   1.02154E+3
  -3.70134E+2   3.56391E+2
  -1.53355E+2  -1.50945E+2
   6.35550E+0   6.33719E+1
   1.51791E+1   5.84581E+2
  -1.68843E+2   4.45371E+2
  -4.09267E+2   1.50645E+2
  -7.78928E+2  -3.81114E+2
  -3.30191E+2  -4.67999E+2
   3.77846E+1  -2.60969E+2
  -1.43400E+2  -5.06125E+0
   7.30741E+1  -5.09032E+2
   3.30091E+2  -5.71270E+2
   6.32900E+2  -1.12498E+2
   1.59429E+2   4.82290E+2
  -2.11507E+2   4.37037E+2
   3.57529E+2   8.64080E+1
   4.54000E+2  -2.59681E+1
  -3.15151E+1   5.24879E+2
  -3.85512E+2   8.28087E+2
  -1.11920E+3   3.53503E+2
  -8.72978E+2  -5.36663E+2
   2.71571E+2  -5.85780E+2
   4.29923E+2  -1.08078E+2
   5.77012E+0   7.39443E+1
  -1.20197E+2  -1.81049E+2
   3.28635E+2  -1.43611E+2
   6.08865E+2   4.47958E+2
  -6.62880E+1   8.91449E+2
  -5.69463E+2   3.17639E+2
  -4.75519E+2  -5.11585E+2
  -7.87213E+1  -4.94182E+2
   9.11064E+2   6.74513E+2
   2.82635E+2   7.35765E+2
  -7.70477E+2   3.92317E+2
  -8.89622E+2  -7.60899E+2
   2.95900E+2  -7.19305E+2
   1.29280E+3   5.18116E+1
   6.16468E+2   7.38822E+2
  -3.58149E+2   6.67626E+2
  -4.61500E+1   3.37063E+2
   1.82067E+2   1.76150E+2
  -1.67608E+2   6.91394E+2
  -7.37638E+2   2.56702E+2
  -5.08634E+2  -4.05855E+2
   1.68154E+2  -9.74574E+2
   6.96306E+2  -4.57367E+2
   5.57152E+2  -8.41163E+1
   4.68285E+2   4.35650E+2
   2.20032E+2   3.51376E+2
   1.12137E+2   5.03097E+2
  -1.28133E+2   3.89861E+2
  -3.53909E+2  -2.89842E+2
  -2.60720E+1  -2.09228E+2
   2.05390E+2  -2.36766E+2
   4.21803E+2   1.38599E+2
   2.51467E+2   1.97527E+2
  -1.42027E+2   4.57983E+2
  -4.37257E+2   5.73264E+1
  -7.18810E+1  -4.11382E+2
   3.15393E+2   9.09158E+0
   4.30646E+1   1.27512E+2
  -1.26718E+2  -5.78256E+1
   2.34568E+2  -3.06783E+2
   5.78406E+2   2.09268E+2
   2.73263E+2   7.15441E+2
  -3.73309E+2   2.34839E+2
  -2.45312E+2  -3.83893E+2
   2.85611E+2  -4.28940E+2
   5.34905E+2  -1.44856E+2
   4.56237E+2   2.57535E+2
  -4.40643E+2   6.97391E+2
  -4.14932E+2   4.16197E+2
  -8.19971E+1   4.63939E-1
  -1.74171E+2   8.52353E+1
  -9.22602E+1  -1.76060E+2
  -2.62943E+2  -1.96359E+2
   2.25429E+2  -2.77299E+2
   2.26424E+2  -2.66105E+2
   5.18040E+2   2.55743E+2
   2.47990E+2   5.19360E+2
  -1.32564E+2   9.79039E+1
  -6.60528E+0  -1.19240E+2
   2.68928E+2  -3.39072E+1
   6.74382E+1   1.72750E+2
  -2.73221E+2   3.40124E+2
  -7.90789E+1  -1.72788E+2
  -2.96873E+1   8.40071E+1
  -8.92417E+1   1.22736E+2
  -1.89175E+2   2.31837E+2
  -6.97197E+1  -2.07402E+2
   2.19319E+2  -5.25011E+2
   3.80863E+2  -1.80587E+2
   2.18567E+2   1.03449E+2
   6.08244E+0   2.32394E+2
  -8.71000E-1   1.20845E+2
   2.23550E+2  -1.69274E+2
   1.88509E+2   1.12436E+2
   2.48372E+2   2.66140E+2
  -1.99921E+2   2.02688E+2
  -8.25498E+1   2.44140E+1
   2.06492E+2  -1.18013E+2
  -2.42040E+1   1.89610E+2
  -1.83362E+2   2.20885E+2
  -5.07984E+2  -1.61942E+2
  -1.83315E+2  -5.07636E+2
   5.18984E+2  -4.35965E+0
   5.00979E+2   3.45944E+2
  -7.76578E+1   3.15508E+2
  -4.12335E+2  -1.58140E+2
   2.01068E+2  -1.75405E+2
   1.73390E+2  -3.02365E+2
   1.09189E+2  -1.79308E+2
  -7.18985E+1  -7.88976E+1
   1.00654E+2  -1.72964E+2
   5.15166E+2  -8.83978E+1
   3.49814E+2   2.40836E+2
   1.00235E+1   5.16606E+2
  -2.98636E+2   2.86499E+1
  -7.42406E+1  -3.25422E+2
   5.07302E+1  -3.23017E+2
   2.87617E+2  -2.02952E+2
   2.86268E+2  -3.42704E+1
  -5.05823E+1   1.83016E+2
   1.12867E+2  -7.84643E+1
  -3.51826E+1  -1.01546E+2
   8.61381E+1  -1.13127E+2
  -3.95597E+2  -1.03381E+2
   1.81302E+2  -3.09333E+2
   3.07535E+2  -4.75592E+2
   1.67909E+2  -2.11350E+2
   1.29037E+1   1.32753E+2
  -9.34873E+1   1.98923E+2
  -5.30185E+1  -1.49209E+2
  -7.70862E+1   1.78902E+2
   1.76189E+2   3.24879E+1
  -8.58674E-1   3.13210E+1
  -6.90701E+1  -2.51894E+2
   1.88662E+2  -1.46959E+2
   2.14052E+2   2.73886E+2
  -6.36379E+0   4.45186E+2
  -2.22742E+2   3.21027E+2
  -3.45793E+2  -4.76788E+2
   5.59508E+1  -3.02134E+2
   2.76567E+2  -2.94115E+2
   9.99689E+0  -5.11113E+1
   2.47882E+2  -8.82457E+1
   1.70464E+2  -4.84186E+1
   1.59946E+2   8.30228E+1
  -1.75583E+2   1.36660E+1
  -3.91120E+2   2.46189E+2
  -3.64656E+2  -1.87020E+2
   1.62547E+2  -4.84340E+2
   2.40327E+2  -1.91342E+2
   2.79801E+2   2.93557E+2
   3.29309E+1   1.24563E+2
  -9.18468E+1  -2.84073E+1
   7.57273E+1  -1.28222E+2
   2.48731E+1   9.22515E+1
   3.91390E+1   4.71026E+1
  -1.15472E+2   1.49001E+2
  -1.33280E+2  -2.94758E+2
  -1.87345E+2  -5.06863E+1
  -1.09548E+1  -1.00129E+2
  -2.75730E+1   1.44420E+2
  -9.73045E+1   5.00371E+1
   1.99294E+2  -8.36188E+1
   9.36366E+1   9.15851E+1
   5.92331E+1   1.12798E+2
  -9.36336E+1   1.47921E+2
  -2.92262E+2  -1.47285E+2
  -2.30494E+1   1.08162E+2
   1.29648E+2  -7.69911E+1
  -7.69507E+0  -5.93372E+1
  -2.59615E+2  -1.11048E+2
  -8.67864E+1  -2.53528E+2
   7.12526E+1  -5.59316E+1
  -5.55740E+1   2.10438E+2
  -2.95277E+2  -1.61206E+2
  -9.12469E+1  -2.83283E+2
   1.09957E+2  -3.50583E+2
   2.18601E+2  -1.05313E+0
   4.53047E+2  -2.61386E+1
  -4.95043E+1  -1.17016E+2
  -1.75539E+2  -4.28243E+1
  -1.87140E+2  -2.31773E+1
  -1.08876E+2   1.86120E+2
  -1.42054E+2   3.60603E+1
   1.08165E+2  -2.29926E+2
  -6.82979E+1  -1.20540E+2
   4.49005E+2  -2.44693E+2
   3.50388E+2   5.29007E+1
  -1.75045E+2   2.73074E+2
  -3.19127E+2   9.75256E+0
  -1.41165E+2  -7.19927E+1
   1.12693E+2  -3.14910E+2
  -4.06388E+1   3.06108E+1
   5.88644E+1  -1.69886E+1
   2.25920E+2  -2.24714E+2
   8.01640E+1  -2.95686E+1
   2.50363E+2   5.68302E+0
   2.74921E+1  -7.23139E+1
  -3.70499E+2  -9.72422E+1
  -1.85559E+2  -2.63852E+2
   1.78689E+2  -3.02109E+2
   2.08558E+2  -8.65478E+1
   9.48947E+1  -1.73666E+2
  -3.21874E+2  -3.22915E+1
  -9.80205E+1   6.97834E+1
   1.06108E+2  -5.53358E+1
   8.95100E+1   8.87592E+1
  -1.36105E+2  -1.74545E+1
  -6.52089E+1  -8.39789E+1
   2.52901E+2  -2.74966E+2
   2.66236E+2  -1.81112E+2
   1.40829E+2   3.17903E+2
  -8.58389E+1   3.25429E+2
  -2.52060E+2  -9.29965E+1
   8.07126E+1   5.39890E+1
  -1.55452E+2  -7.21042E+1
  -1.13637E+1  -1.61213E+2
  -6.41939E+1  -1.94450E+2
   1.31704E+1  -2.02671E+2
  -4.33752E+1   8.06622E+1
  -1.08688E+2   2.86100E+2
  -1.93501E+2   3.03775E+2
  -1.68459E+2  -8.35717E+0
  -1.58300E+1  -2.59753E+2
  -4.04715E+1  -2.64221E+2
   8.84415E+1   4.51306E+1
  -1.96619E+2  -1.26951E+2
   7.28771E+1  -7.73837E+1
  -5.67072E+1  -3.85201E+2
  -1.74323E+1   4.94558E+1
   2.17002E+2  -1.37675E+2
  -3.85302E+1   1.85173E+2
   8.44278E+1   6.78798E+1
  -6.23761E+1   2.74492E+1
   2.11280E+2  -4.81642E+1
   8.87856E+1   6.36431E+1
  -9.41825E+1  -3.98121E+0
  -1.01810E+2  -3.19870E+1
  -1.54418E+2   1.04427E+2
   5.56250E+1   1.75295E+2
  -1.74516E+2   1.49368E+2
  -3.54073E+2  -1.53963E+2
   4.96401E-1  -1.88546E+2
  -7.92009E+1  -6.24895E+1
  -4.93414E+1   1.87788E+2
  -1.90406E+2  -1.86672E+2
  -6.30975E+1  -1.12981E+2
   3.38015E+2  -5.96005E-1
   1.02328E+2   1.68431E+2
   2.22184E+1   1.52161E+2
  -2.96155E+2  -7.66836E+1
  -3.98186E+1  -2.22972E+2
  -3.76163E+1  -3.34782E+2
   2.38661E+2   7.27534E+1
   4.34595E+1   1.56389E+2
  -2.24184E+2  -5.00435E+1
   1.51918E+1   6.81485E+1
  -1.22714E+1   1.06973E+2
  -1.13110E+2   1.67845E+2
  -6.07394E+1   1.56924E+2
   4.78577E+1  -1.67071E+2
   5.90692E+1  -5.15140E+1
   3.11709E+2   2.68183E+2
  -4.58539E+1  -2.65132E+1
   1.31798E+2   1.12396E+2
   4.80994E+1  -1.27575E+2
  -5.25776E+1  -1.40678E+2
   2.45714E+2  -3.73113E+1
  -6.75265E+1  -9.26447E+1
  -5.05468E+1  -1.39677E+2
   4.48347E+2   4.43330E+1
   2.06662E+1  -8.11881E+1
  -3.37434E+1   4.10695E+2
  -7.87909E+1   9.76343E+0
  -7.81969E+1  -8.05593E+1
   1.67903E+1  -7.30144E+1
   8.57422E+1  -8.31898E+1
  -1.85648E+2   1.16691E+2
  -1.71031E+2  -1.46846E+2
  -8.54773E+1  -1.68900E+2
   1.36248E+2  -2.05398E+2
  -5.83692E+1  -2.88024E+1
  -4.22375E+1   3.30910E+1
  -1.53905E+2  -1.33745E+2
  -6.14540E+1  -2.74260E+2
  -2.02242E+2  -1.24376E+2
   2.83699E+2   2.22567E+2
  -4.02461E+1   2.61537E+2
  -3.44860E+2  -4.37231E+1
   4.42325E+1   5.96325E+1
