 
 $NMID
 ID=''
 FMTDAT='(2E13.5)'
 TRAMP=   1.00000E+0
 VOLUME=   1.00000E+0
 $END
   4.70294E+5  -1.22168E+5
   1.28064E+6   1.40036E+5
   1.22866E+6   4.41429E+4
   1.14609E+6   1.53773E+5
   1.20168E+6   1.89803E+5
   1.16262E+6   1.49480E+5
   1.11718E+6   2.01253E+5
   1.14451E+6   2.39549E+5
   1.11041E+6   2.37660E+5
   1.07044E+6   2.92866E+5
   1.07831E+6   3.28449E+5
   1.04396E+6   3.38183E+5
   1.00854E+6   3.84615E+5
   1.00492E+6   4.18165E+5
   9.68342E+5   4.36248E+5
   9.33575E+5   4.76665E+5
   9.24520E+5   5.02817E+5
   8.91799E+5   5.16217E+5
   8.61664E+5   5.46012E+5
   8.49862E+5   5.61739E+5
   8.17346E+5   5.74372E+5
   7.87649E+5   5.98975E+5
   7.69942E+5   6.15018E+5
   7.36754E+5   6.28607E+5
   7.03473E+5   6.49887E+5
   6.82087E+5   6.59701E+5
   6.49114E+5   6.74167E+5
   6.14140E+5   6.95535E+5
   5.83762E+5   7.04224E+5
   5.52477E+5   7.10065E+5
   5.24147E+5   7.23840E+5
   4.98107E+5   7.28785E+5
   4.67336E+5   7.32264E+5
   4.40781E+5   7.38555E+5
   4.17851E+5   7.38261E+5
   3.93960E+5   7.38999E+5
   3.71013E+5   7.44247E+5
   3.45665E+5   7.45059E+5
   3.18182E+5   7.43303E+5
   2.93564E+5   7.45027E+5
   2.66840E+5   7.43556E+5
   2.39492E+5   7.40273E+5
   2.15616E+5   7.38029E+5
   1.90396E+5   7.34657E+5
   1.63184E+5   7.29764E+5
   1.39044E+5   7.25835E+5
   1.15363E+5   7.20665E+5
   9.05636E+4   7.14030E+5
   6.89444E+4   7.05357E+5
   4.94237E+4   6.97289E+5
   2.90585E+4   6.90093E+5
   9.22737E+3   6.82472E+5
  -1.00492E+4   6.73850E+5
  -2.87621E+4   6.65329E+5
  -4.70535E+4   6.56091E+5
  -6.57566E+4   6.45823E+5
  -8.45583E+4   6.34735E+5
  -1.01284E+5   6.22634E+5
  -1.16744E+5   6.11600E+5
  -1.32525E+5   6.00799E+5
  -1.48536E+5   5.88933E+5
  -1.63516E+5   5.76716E+5
  -1.77269E+5   5.64460E+5
  -1.90615E+5   5.51829E+5
  -2.03072E+5   5.38288E+5
  -2.14070E+5   5.25008E+5
  -2.23842E+5   5.12140E+5
  -2.34057E+5   4.99481E+5
  -2.44364E+5   4.87198E+5
  -2.54916E+5   4.73594E+5
  -2.63238E+5   4.59221E+5
  -2.70746E+5   4.45974E+5
  -2.78456E+5   4.32935E+5
  -2.86414E+5   4.19426E+5
  -2.93001E+5   4.04815E+5
  -2.98185E+5   3.91079E+5
  -3.03725E+5   3.78258E+5
  -3.09264E+5   3.64449E+5
  -3.13695E+5   3.50309E+5
  -3.17282E+5   3.37057E+5
  -3.20545E+5   3.23781E+5
  -3.23476E+5   3.10194E+5
  -3.26257E+5   2.96501E+5
  -3.28638E+5   2.83275E+5
  -3.30310E+5   2.69551E+5
  -3.31733E+5   2.56162E+5
  -3.32956E+5   2.43340E+5
  -3.33914E+5   2.30243E+5
  -3.34126E+5   2.16860E+5
  -3.33389E+5   2.04884E+5
  -3.32757E+5   1.92877E+5
  -3.32337E+5   1.81102E+5
  -3.31340E+5   1.69341E+5
  -3.29826E+5   1.58191E+5
  -3.27750E+5   1.47858E+5
  -3.25592E+5   1.37389E+5
  -3.23810E+5   1.27504E+5
  -3.22021E+5   1.17472E+5
  -3.19486E+5   1.07629E+5
  -3.16497E+5   9.80534E+4
  -3.13846E+5   8.91117E+4
  -3.11023E+5   7.95631E+4
  -3.07653E+5   7.00617E+4
  -3.03532E+5   6.12843E+4
  -2.99848E+5   5.34425E+4
  -2.96200E+5   4.57188E+4
  -2.92310E+5   3.74301E+4
  -2.88104E+5   2.93993E+4
  -2.83339E+5   2.23479E+4
  -2.79027E+5   1.65833E+4
  -2.74779E+5   1.01654E+4
  -2.70940E+5   3.26448E+3
  -2.66278E+5  -3.00111E+3
  -2.61175E+5  -8.80553E+3
  -2.56597E+5  -1.45276E+4
  -2.52024E+5  -2.03867E+4
  -2.46981E+5  -2.57366E+4
  -2.41071E+5  -3.06076E+4
  -2.35928E+5  -3.48631E+4
  -2.31066E+5  -3.88546E+4
  -2.26235E+5  -4.31940E+4
  -2.20907E+5  -4.72713E+4
  -2.15665E+5  -5.07200E+4
  -2.10519E+5  -5.46488E+4
  -2.05203E+5  -5.78077E+4
  -1.99245E+5  -6.11304E+4
  -1.93843E+5  -6.38656E+4
  -1.88364E+5  -6.67648E+4
  -1.82684E+5  -6.92871E+4
  -1.77125E+5  -7.20137E+4
  -1.71398E+5  -7.47447E+4
  -1.65500E+5  -7.69541E+4
  -1.59516E+5  -7.87076E+4
  -1.54099E+5  -8.05637E+4
  -1.48452E+5  -8.25525E+4
  -1.43264E+5  -8.39007E+4
  -1.37619E+5  -8.51220E+4
  -1.32343E+5  -8.67212E+4
  -1.26774E+5  -8.76040E+4
  -1.21411E+5  -8.85885E+4
  -1.16209E+5  -8.93608E+4
  -1.11064E+5  -8.92511E+4
  -1.05929E+5  -8.98082E+4
  -1.00908E+5  -9.03975E+4
  -9.55665E+4  -9.08551E+4
  -9.06393E+4  -9.07864E+4
  -8.58044E+4  -9.04924E+4
  -8.10129E+4  -9.01456E+4
  -7.61730E+4  -8.99736E+4
  -7.14172E+4  -8.94839E+4
  -6.68174E+4  -8.86647E+4
  -6.25387E+4  -8.78279E+4
  -5.80264E+4  -8.72276E+4
  -5.39603E+4  -8.65298E+4
  -4.97419E+4  -8.54009E+4
  -4.60561E+4  -8.43594E+4
  -4.24460E+4  -8.33112E+4
  -3.87891E+4  -8.18435E+4
  -3.48852E+4  -8.05181E+4
  -3.12284E+4  -7.93935E+4
  -2.82981E+4  -7.79647E+4
  -2.48456E+4  -7.66091E+4
  -2.17920E+4  -7.47943E+4
  -1.87274E+4  -7.32856E+4
  -1.56402E+4  -7.20864E+4
  -1.28635E+4  -7.04184E+4
  -1.00336E+4  -6.86294E+4
  -7.32068E+3  -6.70228E+4
  -4.79894E+3  -6.54821E+4
  -2.29373E+3  -6.36424E+4
  -2.83938E-1  -6.19921E+4
   2.16912E+3  -6.01247E+4
   4.40363E+3  -5.84938E+4
   6.25677E+3  -5.65059E+4
   8.22442E+3  -5.46401E+4
   1.01890E+4  -5.31245E+4
   1.19227E+4  -5.11052E+4
   1.36331E+4  -4.92124E+4
   1.52656E+4  -4.73894E+4
   1.67974E+4  -4.55908E+4
   1.80735E+4  -4.41660E+4
   1.93571E+4  -4.21219E+4
   2.08450E+4  -4.04077E+4
   2.17711E+4  -3.86947E+4
   2.31303E+4  -3.68307E+4
   2.38078E+4  -3.51817E+4
   2.46644E+4  -3.35304E+4
   2.54833E+4  -3.18633E+4
   2.61328E+4  -3.01717E+4
   2.67345E+4  -2.85531E+4
   2.74386E+4  -2.69715E+4
   2.79010E+4  -2.50088E+4
   2.83476E+4  -2.34637E+4
   2.87108E+4  -2.19298E+4
   2.89358E+4  -2.04489E+4
   2.93942E+4  -1.85933E+4
   2.94353E+4  -1.71098E+4
   2.96887E+4  -1.56089E+4
   2.97078E+4  -1.43886E+4
   2.95682E+4  -1.24389E+4
   2.96488E+4  -1.12271E+4
   2.94251E+4  -9.79413E+3
   2.93262E+4  -8.23104E+3
   2.94029E+4  -7.02005E+3
   2.89406E+4  -5.63608E+3
   2.87549E+4  -4.22006E+3
   2.82078E+4  -2.94921E+3
   2.80760E+4  -1.81515E+3
   2.79469E+4  -3.43276E+2
   2.72746E+4   3.78109E+2
   2.69678E+4   1.71262E+3
   2.63362E+4   3.12750E+3
   2.57019E+4   3.79064E+3
   2.55221E+4   4.90545E+3
   2.47002E+4   6.05633E+3
   2.40043E+4   6.75335E+3
   2.38130E+4   7.61710E+3
   2.32225E+4   8.43941E+3
   2.28497E+4   9.39962E+3
   2.19972E+4   9.94580E+3
   2.16855E+4   1.07735E+4
   2.09470E+4   1.15670E+4
   2.02516E+4   1.16907E+4
   2.00302E+4   1.25047E+4
   1.91411E+4   1.32960E+4
   1.86032E+4   1.34809E+4
   1.80264E+4   1.39113E+4
   1.74636E+4   1.45536E+4
   1.68497E+4   1.45942E+4
   1.61177E+4   1.49381E+4
   1.57919E+4   1.53736E+4
   1.52047E+4   1.53984E+4
   1.44016E+4   1.55961E+4
   1.40309E+4   1.58373E+4
   1.33275E+4   1.57930E+4
   1.30554E+4   1.59315E+4
   1.23870E+4   1.60798E+4
   1.16605E+4   1.61869E+4
   1.12453E+4   1.60884E+4
   1.06536E+4   1.61298E+4
   1.01452E+4   1.58516E+4
   9.92672E+3   1.59909E+4
   9.15926E+3   1.57903E+4
   8.92374E+3   1.56261E+4
   8.29768E+3   1.54107E+4
   7.81373E+3   1.54628E+4
   7.45120E+3   1.52725E+4
   6.96684E+3   1.48486E+4
   6.32849E+3   1.47905E+4
   6.07310E+3   1.44973E+4
   5.60228E+3   1.41634E+4
   4.98591E+3   1.40011E+4
   4.76150E+3   1.40133E+4
   4.26030E+3   1.35315E+4
   4.07113E+3   1.32110E+4
   3.52693E+3   1.30603E+4
   3.35149E+3   1.26515E+4
   2.91411E+3   1.26139E+4
   2.50184E+3   1.19465E+4
   2.22423E+3   1.15397E+4
   1.78897E+3   1.14378E+4
   1.80793E+3   1.10284E+4
   1.45977E+3   1.06548E+4
   1.15282E+3   1.03074E+4
   8.49766E+2   1.01516E+4
   6.32215E+2   9.63254E+3
   2.89345E+2   9.23894E+3
   1.63180E+2   9.05028E+3
   1.85719E+1   9.16009E+3
  -2.54621E+2   8.51184E+3
  -2.16090E+2   8.31494E+3
  -5.11787E+2   8.06346E+3
  -5.30402E+2   7.68629E+3
  -9.55545E+2   7.32201E+3
  -9.24059E+2   6.85544E+3
  -8.71231E+2   6.51905E+3
  -1.05375E+3   6.60611E+3
  -1.09376E+3   6.40012E+3
  -9.60159E+2   5.89093E+3
  -1.12316E+3   5.63205E+3
  -8.70159E+2   5.26465E+3
  -1.05081E+3   4.98727E+3
  -7.46636E+2   4.77101E+3
  -9.12737E+2   4.23684E+3
  -7.75605E+2   4.00970E+3
  -1.05839E+3   3.61971E+3
  -6.15383E+2   3.78304E+3
  -7.10969E+2   3.52188E+3
  -3.69701E+2   3.02084E+3
  -3.78907E+2   2.78857E+3
  -1.71617E+2   2.48682E+3
  -1.22384E+1   2.05965E+3
   2.45173E+2   2.16339E+3
   2.88549E+2   2.10114E+3
   2.03465E+2   1.70323E+3
   6.13560E+2   1.80768E+3
   8.79974E+2   1.42956E+3
   9.00565E+2   1.34404E+3
   1.08412E+3   8.02062E+2
   1.34646E+3   7.88491E+2
   1.79598E+3   7.24491E+2
   1.93851E+3   4.88155E+2
   1.97374E+3   1.12007E+2
   2.19094E+3  -4.94161E+1
   2.37879E+3  -1.65313E+2
   2.69067E+3  -2.51616E+2
   2.93621E+3  -2.79106E+2
   3.25145E+3  -5.60466E+2
   3.46426E+3  -4.36281E+2
   3.65880E+3  -7.68185E+2
   3.98919E+3  -6.97243E+2
   3.96038E+3  -9.18332E+2
   4.16703E+3  -9.91616E+2
   4.50869E+3  -9.61442E+2
   4.91278E+3  -1.18151E+3
   5.13152E+3  -1.36501E+3
   5.34077E+3  -1.36079E+3
   5.33895E+3  -1.25840E+3
   5.59446E+3  -1.53246E+3
   5.70959E+3  -1.35345E+3
   6.09387E+3  -1.80118E+3
   6.49725E+3  -1.85838E+3
   6.41192E+3  -1.71663E+3
   6.86217E+3  -1.74627E+3
   6.56712E+3  -1.62963E+3
   6.89831E+3  -1.57922E+3
   7.22254E+3  -1.81996E+3
   7.58220E+3  -1.79314E+3
   7.89440E+3  -1.81969E+3
   7.92669E+3  -1.72455E+3
   8.12938E+3  -1.49375E+3
   8.45555E+3  -1.59916E+3
   8.42166E+3  -1.80868E+3
   8.61811E+3  -1.50681E+3
   9.25316E+3  -1.26435E+3
   9.13069E+3  -1.36895E+3
   9.00623E+3  -1.49107E+3
   9.37644E+3  -1.32200E+3
   9.32057E+3  -1.25505E+3
   9.49780E+3  -1.19777E+3
   9.38086E+3  -1.15946E+3
   9.92889E+3  -9.47540E+2
   9.89322E+3  -9.40051E+2
   1.01542E+4  -4.79647E+2
   1.00884E+4  -6.58119E+2
   1.01019E+4  -5.87676E+2
   1.03072E+4  -4.14624E+2
   1.05360E+4  -1.38546E+2
   1.07045E+4  -2.66718E+2
   1.04477E+4  -2.93846E+2
   1.05741E+4   3.74023E+1
   1.06402E+4   1.41446E+2
   1.07389E+4   2.55740E+2
   1.08054E+4   2.45560E+2
   1.07738E+4   4.90249E+2
   1.08036E+4   8.42431E+2
   1.06463E+4   7.13238E+2
   1.09966E+4   8.46428E+2
   1.10874E+4   1.09786E+3
   1.08554E+4   1.12549E+3
   1.09243E+4   1.50911E+3
   1.07638E+4   1.74365E+3
   1.10800E+4   1.64022E+3
   1.10296E+4   1.86078E+3
   1.07888E+4   2.15724E+3
   1.07809E+4   2.26684E+3
   1.07775E+4   2.45170E+3
