 LCModel (Version 6.3-1N) Copyright: S.W. Provencher.          Ref.: Magn. Reson. Med. 30:672-679 (1993).                
 Slice_N1@17_16  28-Feb-2025 11:37:19
 27 lines in following concentration table = NCONC+1
    Conc.  %SD /Cr+PCr  Metabolite                                         
 1.87E-04  10% 1.5E-04 Mac                                                 
    4.677  60%   3.670 Cr                                                  
    5.519  50%   4.330 PCr                                                 
    7.299  20%   5.727 Ins                                                 
   11.051  12%   8.671 NAA                                                 
    7.456  20%   5.850 Tau                                                 
    1.458 124%   1.144 PCho                                                
    0.924 184%   0.725 GPC                                                 
    9.593  17%   7.527 Glu                                                 
    1.978  64%   1.552 Gln                                                 
    0.000 999%   0.000 Ala                                                 
    1.063 204%   0.834 Asc                                                 
    2.602  61%   2.041 Asp                                                 
    1.584  55%   1.243 GABA                                                
    1.051 105%   0.825 Glc                                                 
    2.543  29%   1.995 GSH                                                 
    4.112  28%   3.226 Lac                                                 
    2.431  44%   1.908 NAAG                                                
    1.711 116%   1.343 PE                                                  
    2.382  23%   1.869 GPC+PCho                                            
   13.483   9%  10.579 NAA+NAAG                                            
   11.571  18%   9.079 Glu+Gln                                             
   10.196  11%   8.000 Cr+PCr                                              
   13.483   9%  10.579 NAA+NAAG                                            
   10.196  11%   8.000 Cr+PCr                                              
   11.571  18%   9.079 Glu+Gln                                             
   6 lines in following misc. output table
  FWHM = 0.033 ppm    S/N =   2                                            
  Data shift = 0.024 ppm                                                   
  Ph:-115 deg       0.0 deg/ppm                                            
  alphaB,S = 1.3E-01,   2.4E+01                                            
   19 spline knots.   Ns = 5(1)                                            
  ( 5) 2 infls.   ( 3) 1 extrs.                                            
  480 points on ppm-axis = NY
      4.100000     4.091866     4.083733     4.075600     4.067466     4.059333     4.051199     4.043066     4.034933     4.026799
      4.018666     4.010532     4.002399     3.994265     3.986132     3.977998     3.969864     3.961731     3.953597     3.945463
      3.937330     3.929196     3.921062     3.912929     3.904795     3.896662     3.888528     3.880394     3.872261     3.864127
      3.855993     3.847860     3.839726     3.831592     3.823459     3.815325     3.807191     3.799058     3.790924     3.782790
      3.774657     3.766523     3.758389     3.750256     3.742122     3.733989     3.725855     3.717721     3.709588     3.701454
      3.693320     3.685187     3.677053     3.668919     3.660786     3.652652     3.644518     3.636385     3.628251     3.620117
      3.611984     3.603850     3.595716     3.587583     3.579449     3.571316     3.563182     3.555048     3.546915     3.538781
      3.530647     3.522514     3.514380     3.506246     3.498113     3.489979     3.481845     3.473712     3.465578     3.457444
      3.449311     3.441177     3.433043     3.424910     3.416776     3.408643     3.400509     3.392375     3.384242     3.376108
      3.367974     3.359841     3.351707     3.343573     3.335440     3.327306     3.319172     3.311039     3.302905     3.294771
      3.286638     3.278504     3.270370     3.262237     3.254103     3.245970     3.237836     3.229702     3.221569     3.213435
      3.205301     3.197168     3.189034     3.180900     3.172767     3.164633     3.156499     3.148366     3.140232     3.132098
      3.123965     3.115831     3.107697     3.099564     3.091430     3.083297     3.075163     3.067029     3.058896     3.050762
      3.042628     3.034495     3.026361     3.018227     3.010094     3.001960     2.993826     2.985693     2.977559     2.969425
      2.961292     2.953158     2.945024     2.936891     2.928757     2.920624     2.912490     2.904356     2.896223     2.888089
      2.879955     2.871822     2.863688     2.855554     2.847421     2.839287     2.831153     2.823020     2.814886     2.806752
      2.798619     2.790485     2.782351     2.774218     2.766084     2.757951     2.749817     2.741683     2.733550     2.725416
      2.717282     2.709149     2.701015     2.692881     2.684748     2.676614     2.668480     2.660347     2.652213     2.644079
      2.635946     2.627812     2.619678     2.611545     2.603411     2.595278     2.587144     2.579010     2.570877     2.562743
      2.554609     2.546476     2.538342     2.530208     2.522075     2.513941     2.505807     2.497674     2.489540     2.481406
      2.473273     2.465139     2.457006     2.448872     2.440738     2.432605     2.424471     2.416337     2.408204     2.400070
      2.391936     2.383803     2.375669     2.367535     2.359402     2.351268     2.343134     2.335001     2.326867     2.318733
      2.310600     2.302466     2.294333     2.286199     2.278065     2.269932     2.261798     2.253664     2.245531     2.237397
      2.229263     2.221130     2.212996     2.204862     2.196729     2.188595     2.180461     2.172328     2.164194     2.156060
      2.147927     2.139793     2.131660     2.123526     2.115392     2.107259     2.099125     2.090991     2.082858     2.074724
      2.066590     2.058457     2.050323     2.042189     2.034056     2.025922     2.017788     2.009655     2.001521     1.993387
      1.985254     1.977120     1.968987     1.960853     1.952719     1.944586     1.936452     1.928318     1.920185     1.912051
      1.903917     1.895784     1.887650     1.879516     1.871383     1.863249     1.855115     1.846982     1.838848     1.830714
      1.822581     1.814447     1.806314     1.798180     1.790046     1.781913     1.773779     1.765645     1.757512     1.749378
      1.741244     1.733111     1.724977     1.716843     1.708710     1.700576     1.692442     1.684309     1.676175     1.668041
      1.659908     1.651774     1.643641     1.635507     1.627373     1.619240     1.611106     1.602972     1.594839     1.586705
      1.578571     1.570438     1.562304     1.554170     1.546037     1.537903     1.529769     1.521636     1.513502     1.505368
      1.497235     1.489101     1.480968     1.472834     1.464700     1.456567     1.448433     1.440299     1.432166     1.424032
      1.415898     1.407765     1.399631     1.391497     1.383364     1.375230     1.367096     1.358963     1.350829     1.342695
      1.334562     1.326428     1.318295     1.310161     1.302027     1.293894     1.285760     1.277626     1.269493     1.261359
      1.253225     1.245092     1.236958     1.228824     1.220691     1.212557     1.204423     1.196290     1.188156     1.180022
      1.171889     1.163755     1.155622     1.147488     1.139354     1.131221     1.123087     1.114953     1.106820     1.098686
      1.090552     1.082419     1.074285     1.066151     1.058018     1.049884     1.041750     1.033617     1.025483     1.017349
      1.009216     1.001082     0.992949     0.984815     0.976681     0.968548     0.960414     0.952280     0.944147     0.936013
      0.927879     0.919746     0.911612     0.903478     0.895345     0.887211     0.879077     0.870944     0.862810     0.854676
      0.846543     0.838409     0.830276     0.822142     0.814008     0.805875     0.797741     0.789607     0.781474     0.773340
      0.765206     0.757073     0.748939     0.740805     0.732672     0.724538     0.716404     0.708271     0.700137     0.692003
      0.683870     0.675736     0.667603     0.659469     0.651335     0.643202     0.635068     0.626934     0.618801     0.610667
      0.602533     0.594400     0.586266     0.578132     0.569999     0.561865     0.553731     0.545598     0.537464     0.529330
      0.521197     0.513063     0.504930     0.496796     0.488662     0.480529     0.472395     0.464261     0.456128     0.447994
      0.439861     0.431727     0.423593     0.415460     0.407326     0.399192     0.391059     0.382925     0.374792     0.366658
      0.358524     0.350391     0.342257     0.334124     0.325990     0.317856     0.309723     0.301589     0.293455     0.285322
      0.277188     0.269055     0.260921     0.252787     0.244654     0.236520     0.228386     0.220253     0.212119     0.203986
 NY phased data points follow
  -7.02291E+01 -7.39096E+01 -6.88045E+01 -7.51307E+01 -7.87739E+01 -8.05461E+01 -9.38399E+01 -7.61391E+01 -6.87563E+01 -7.41581E+01
  -8.60473E+01 -8.81622E+01 -8.71340E+01 -8.83926E+01 -9.13908E+01 -1.13327E+02 -1.06827E+02 -9.88453E+01 -1.17558E+02 -1.32374E+02
  -1.32649E+02 -1.42007E+02 -1.14170E+02 -9.36875E+01 -1.02705E+02 -5.62192E+01 -3.67894E+01 -4.28492E+01 -3.77169E+01 -3.51153E+01
  -3.36751E+01 -3.28059E+01 -2.73817E+01 -3.55106E+01 -3.31144E+01 -2.63356E+01 -4.15829E+01 -4.57416E+01 -4.46458E+01 -7.02890E+01
  -7.76791E+01 -8.87294E+01 -8.48750E+01 -7.94499E+01 -8.91219E+01 -5.46254E+01 -4.32327E+01 -2.56205E+01 -1.01784E+01 -1.08479E+01
  -6.42208E+00 -7.83161E+00 -3.00486E+00 -1.13328E+01 -9.71286E+00 -2.84260E+01 -3.52387E+01 -3.77007E+01 -5.50195E+01 -5.88427E+01
  -4.96375E+01 -3.11359E+01 -4.23948E+01 -3.56193E+01 -2.29350E+01 -5.17077E+00  1.03567E+00 -8.69299E+00 -8.20565E+00 -4.44017E+01
  -6.42418E+01 -6.59088E+01 -6.12049E+01 -4.92637E+01 -4.43761E+01 -3.34673E+01 -9.66019E+00  5.14680E-01 -1.69052E+01 -7.71063E+00
  -1.19952E+01 -2.18511E+01 -1.49148E+01 -2.88724E+01 -3.39161E+01 -3.98207E+01 -4.97175E+01 -3.46242E+01 -1.72668E+01 -8.47939E+00
   1.25510E+00  8.55606E-02  1.03993E+01  2.43744E+01  2.74351E+01  3.42498E+01  3.67952E+01  3.11892E+01  3.32749E+01  5.13348E+01
   4.30585E+01  3.24836E+01  3.75656E+01  2.73574E+01  1.09530E+00 -2.34075E+01 -3.47263E+01 -4.48171E+01 -4.14817E+01 -5.78671E+01
  -9.78561E+01 -1.50103E+02 -1.74059E+02 -1.36616E+02 -9.65855E+01 -8.78580E+01 -9.13982E+01 -6.22152E+01 -6.30470E+01 -6.10567E+01
  -4.02959E+01 -3.96944E+01 -2.29988E+01 -2.06112E+01  1.12695E+00  6.53505E+00  1.00538E+01  1.60822E+01  1.13085E+01  5.11779E+01
   8.20778E+01  9.07677E+01  6.08923E+01 -9.26388E-01 -5.92216E+01 -7.14221E+01 -8.04789E+01 -9.63275E+01 -8.62132E+01 -8.67500E+01
  -7.71345E+01 -8.02689E+01 -7.37751E+01 -8.88361E+01 -9.48343E+01 -8.06889E+01 -8.96554E+01 -8.07579E+01 -9.11434E+01 -7.21297E+01
  -7.79353E+01 -8.69711E+01 -6.60203E+01 -8.09995E+01 -7.25951E+01 -7.11563E+01 -6.23188E+01 -5.31126E+01 -6.28014E+01 -5.89614E+01
  -5.47134E+01 -5.68887E+01 -5.77843E+01 -4.19927E+01 -5.13357E+01 -6.38148E+01 -4.95108E+01 -5.57971E+01 -5.67066E+01 -5.06847E+01
  -5.24579E+01 -3.88839E+01 -2.73943E+01  2.57599E+00 -8.70509E+00 -3.87934E+01 -8.59234E+00 -9.38494E+00 -1.90854E+01 -3.13210E+01
  -4.82631E+01 -4.82252E+01 -6.10062E+01 -6.21231E+01 -7.29978E+01 -7.52704E+01 -7.07410E+01 -7.67458E+01 -5.80473E+01 -5.43892E+01
  -7.21734E+01 -6.30561E+01 -4.25803E+01 -3.13123E+01 -3.35570E+01 -4.15021E+01 -3.69515E+01 -2.65403E+01 -2.24836E+01 -2.04096E+01
  -1.41295E+01 -2.95258E+01 -3.05847E+01 -2.17761E+01 -3.13566E+01 -3.64047E+01 -4.24297E+01 -3.76717E+01 -6.89229E+01 -8.86428E+01
  -7.86364E+01 -8.78103E+01 -8.43836E+01 -8.92470E+01 -7.34602E+01 -5.45607E+01 -4.55715E+01 -2.95319E+01 -1.94448E+01 -9.50311E+00
  -2.37559E+01 -4.10175E+01 -4.84053E+01 -3.99562E+01 -4.50341E+01 -4.00248E+01 -1.66509E+01 -4.06044E+01 -3.35308E+01 -2.19819E+01
  -3.19066E+01 -1.57470E+01 -2.37016E+01 -3.11354E+01 -3.85955E+01 -4.92244E+01 -5.34027E+01 -6.39499E+01 -6.06658E+01 -6.57341E+01
  -7.86993E+01 -7.33196E+01 -5.52745E+01 -5.17353E+01 -4.93212E+01 -5.15151E+01 -5.90714E+01 -5.42855E+01 -6.76149E+01 -6.73879E+01
  -7.07700E+01 -8.32502E+01 -8.38671E+01 -8.70042E+01 -6.80894E+01 -9.23792E+01 -1.38727E+02 -1.01635E+02  1.11428E+01  8.84059E+01
   8.10748E+01  9.34720E+01  1.11433E+02  8.67706E+01  6.88024E+01  5.48581E+01  4.29915E+01  5.42782E+01  5.77880E+01  4.15677E+01
   4.53038E+01  5.09523E+01  4.07148E+01  4.55728E+01  5.05537E+01  4.92156E+01  5.71111E+01  5.30365E+01  4.60257E+01  4.81593E+01
   5.16504E+01  5.20989E+01  5.67425E+01  5.82639E+01  4.17026E+01  4.73969E+01  4.44546E+01  4.64628E+01  5.66037E+01  2.50824E+01
   3.06892E+01  3.33607E+01  1.29978E+01  6.71882E+00 -4.98400E+00 -2.18666E-01 -4.69252E+00 -2.09249E+01 -2.78862E+01 -2.13066E+01
  -2.82554E+01 -2.68922E+01 -8.10900E+00 -1.60825E+01 -2.04034E+01 -2.25111E+01 -2.93628E+01 -4.01709E+01 -5.04019E+01 -5.39785E+01
  -6.39375E+01 -6.59040E+01 -6.45360E+01 -7.45436E+01 -8.70041E+01 -9.54878E+01 -9.72315E+01 -9.00152E+01 -8.98989E+01 -9.95731E+01
  -1.01901E+02 -8.59503E+01 -8.32672E+01 -7.60638E+01 -5.55847E+01 -4.40850E+01 -1.71078E+01  2.78917E+00  1.93483E+01  3.27998E+01
   5.75523E+01  5.41881E+01  2.88811E+01  3.66910E+01  2.37530E+01  1.51215E+01 -5.20373E+00 -7.42992E+00 -4.70820E+00 -3.01809E+01
  -1.40612E+01 -6.40646E+00 -2.01933E+01 -3.35132E+01 -4.10665E+01 -4.30996E+01 -4.41806E+01 -5.08095E+01 -4.69946E+01 -4.22010E+01
  -5.11413E+01 -4.22692E+01 -3.92266E+01 -4.32387E+01 -4.67859E+01 -4.59238E+01 -4.76426E+01 -5.34710E+01 -6.06238E+01 -5.62988E+01
  -5.42344E+01 -4.97586E+01 -3.73379E+01 -5.16185E+01 -4.46810E+01 -4.15255E+01 -2.77796E+01 -2.29265E+01 -1.96183E+01  1.03203E+00
  -8.45822E+00  6.45321E+00  8.65466E-01  1.34207E+01  2.28730E+01  1.72306E+01  4.14889E+01  3.25819E+01  1.65468E+01  2.14535E+01
   3.85771E+01  3.00692E+01  4.26036E+01  5.28361E+01  5.29360E+01  6.75813E+01  6.82769E+01  9.02838E+01  8.66721E+01  7.73298E+01
   9.20280E+01  8.93181E+01  7.25918E+01  5.96352E+01  4.84463E+01  5.03136E+01  3.78061E+01  3.34079E+01  4.41153E+01  1.63470E+01
   4.83305E+00 -1.34350E+01 -1.71943E+01 -1.55621E+01 -3.04262E+01 -2.99606E+01 -4.00249E+01 -2.95168E+01 -3.58286E+01 -3.97079E+01
  -2.82822E+01 -4.45180E+01 -5.54386E+01 -4.14548E+01 -4.09392E+01 -4.67064E+01 -3.09499E+01 -4.54481E+01 -4.72524E+01 -2.42991E+01
  -4.09481E+01 -3.87484E+01 -3.16100E+01 -5.22643E+01 -2.74594E+01 -4.57759E+01 -6.04487E+01 -2.36664E+01 -4.28062E+01 -3.82576E+01
  -3.42328E+01 -2.40396E+01 -2.56021E+01 -4.93083E+01 -3.15352E+01 -3.93465E+01 -3.86357E+01 -3.80149E+01 -3.20615E+01 -1.69670E+01
  -3.45582E+01 -3.33931E+01 -2.73584E+01 -4.59743E+01 -3.57150E+01 -2.00491E+01 -4.00081E+01 -3.93098E+01 -4.03922E+01 -4.43163E+01
  -3.15098E+01 -3.17154E+01 -3.86346E+01 -3.72772E+01 -3.28906E+01 -3.56654E+01 -3.54228E+01 -3.86337E+01 -4.68836E+01 -4.13350E+01
  -2.83676E+01 -4.18725E+01 -3.75442E+01 -2.68563E+01 -4.04593E+01 -3.14207E+01 -3.03354E+01 -3.86997E+01 -3.80966E+01 -3.12976E+01
  -3.81718E+01 -3.47876E+01 -2.50868E+01 -3.46044E+01 -2.80892E+01 -3.27808E+01 -1.75383E+01 -2.17210E+01 -4.16209E+01 -1.98632E+01
 NY points of the fit to the data follow
  -8.86640E+01 -8.75427E+01 -8.82617E+01 -9.12731E+01 -9.40040E+01 -9.24923E+01 -8.51959E+01 -7.61447E+01 -7.08441E+01 -7.09330E+01
  -7.42638E+01 -7.88081E+01 -8.38615E+01 -8.87196E+01 -9.29643E+01 -9.65937E+01 -9.81384E+01 -9.96926E+01 -1.05688E+02 -1.15332E+02
  -1.24404E+02 -1.26117E+02 -1.16826E+02 -9.89151E+01 -7.65696E+01 -5.42368E+01 -3.73877E+01 -2.85470E+01 -2.36329E+01 -2.04821E+01
  -2.00468E+01 -2.07476E+01 -2.22180E+01 -2.45118E+01 -2.75001E+01 -3.11396E+01 -3.47813E+01 -3.88907E+01 -4.68323E+01 -5.97436E+01
  -7.46857E+01 -8.47684E+01 -8.54589E+01 -7.82200E+01 -6.74240E+01 -5.50204E+01 -4.15586E+01 -2.96637E+01 -2.15933E+01 -1.70833E+01
  -1.54423E+01 -1.58036E+01 -1.80989E+01 -2.26407E+01 -3.00876E+01 -3.76215E+01 -4.33062E+01 -4.80480E+01 -5.22222E+01 -5.55588E+01
  -5.61603E+01 -5.28851E+01 -4.75583E+01 -4.12764E+01 -3.25570E+01 -2.20980E+01 -1.42016E+01 -1.23869E+01 -1.84534E+01 -3.09498E+01
  -4.29832E+01 -4.85670E+01 -4.78827E+01 -4.39790E+01 -3.68849E+01 -2.59891E+01 -1.51976E+01 -7.13975E+00 -2.02605E+00  8.51718E-01
  -6.40194E-01 -7.37263E+00 -1.87986E+01 -3.27147E+01 -4.49170E+01 -5.09602E+01 -4.91195E+01 -4.10178E+01 -3.01379E+01 -1.91190E+01
  -1.01910E+01 -2.45198E+00  3.94011E+00  9.44156E+00  1.42299E+01  1.87130E+01  2.36542E+01  2.82859E+01  3.16691E+01  3.49446E+01
   3.68378E+01  3.72270E+01  3.31863E+01  2.29878E+01  6.84756E+00 -1.17285E+01 -2.35266E+01 -2.76494E+01 -3.55041E+01 -6.11001E+01
  -1.01280E+02 -1.32961E+02 -1.40887E+02 -1.30090E+02 -1.14868E+02 -9.91506E+01 -8.33983E+01 -7.10568E+01 -6.10100E+01 -5.22360E+01
  -4.40762E+01 -3.60525E+01 -2.78946E+01 -1.92503E+01 -9.59417E+00  1.45060E+00  1.38198E+01  2.25581E+01  3.15604E+01  5.04266E+01
   7.52425E+01  8.43415E+01  5.69698E+01 -5.02396E-01 -5.58941E+01 -8.67240E+01 -9.84920E+01 -1.02863E+02 -1.00482E+02 -9.52174E+01
  -9.13262E+01 -8.90193E+01 -8.79429E+01 -8.75173E+01 -8.70956E+01 -8.64522E+01 -8.52873E+01 -8.33964E+01 -8.10458E+01 -7.88366E+01
  -7.68589E+01 -7.49050E+01 -7.29019E+01 -7.06734E+01 -6.80755E+01 -6.51803E+01 -6.25720E+01 -6.10319E+01 -6.05239E+01 -5.98078E+01
  -5.79167E+01 -5.54309E+01 -5.39356E+01 -5.41934E+01 -5.51579E+01 -5.53341E+01 -5.44527E+01 -5.35353E+01 -5.31073E+01 -5.16105E+01
  -4.63110E+01 -3.69258E+01 -2.76029E+01 -2.34874E+01 -2.49350E+01 -2.63242E+01 -2.38141E+01 -2.02271E+01 -2.08896E+01 -2.72538E+01
  -3.64250E+01 -4.49841E+01 -5.16883E+01 -5.65356E+01 -5.94335E+01 -6.06247E+01 -6.09705E+01 -6.10312E+01 -6.05251E+01 -5.86039E+01
  -5.62719E+01 -5.38890E+01 -5.01599E+01 -4.42138E+01 -3.66438E+01 -3.05830E+01 -2.75114E+01 -2.49053E+01 -2.16026E+01 -2.01641E+01
  -2.19735E+01 -2.44107E+01 -2.59868E+01 -2.74991E+01 -3.04691E+01 -3.52426E+01 -4.02862E+01 -4.53691E+01 -5.04749E+01 -5.50542E+01
  -5.98253E+01 -6.35031E+01 -6.58800E+01 -6.50940E+01 -5.90752E+01 -4.78827E+01 -3.25387E+01 -1.62758E+01 -3.47072E+00  3.47170E+00
   4.74483E+00  2.05956E+00 -2.48000E+00 -5.38682E+00 -7.26852E+00 -9.55987E+00 -1.30443E+01 -1.85200E+01 -2.56861E+01 -3.44148E+01
  -4.38536E+01 -5.30622E+01 -6.19574E+01 -6.96818E+01 -7.57064E+01 -8.01455E+01 -8.25069E+01 -8.26353E+01 -8.09226E+01 -7.77404E+01
  -7.38747E+01 -7.04606E+01 -6.72733E+01 -6.41260E+01 -6.17431E+01 -6.00608E+01 -5.95950E+01 -6.13418E+01 -6.39035E+01 -6.77711E+01
  -7.54225E+01 -8.74273E+01 -9.27663E+01 -9.25027E+01 -9.82699E+01 -1.13303E+02 -1.19053E+02 -8.91626E+01 -2.67774E+01  3.19839E+01
   6.28215E+01  7.32076E+01  7.56233E+01  6.99221E+01  6.20080E+01  5.48784E+01  4.82964E+01  4.21156E+01  3.64624E+01  3.14196E+01
   2.74262E+01  2.46243E+01  2.30457E+01  2.25635E+01  2.28596E+01  2.35917E+01  2.43804E+01  2.49776E+01  2.49365E+01  2.42286E+01
   2.30748E+01  2.14831E+01  1.96974E+01  1.77017E+01  1.55618E+01  1.33614E+01  1.10951E+01  8.68085E+00  6.07040E+00  3.28942E+00
   3.91693E-01 -2.51929E+00 -5.29358E+00 -7.69631E+00 -9.41884E+00 -1.02974E+01 -1.04030E+01 -9.92239E+00 -9.08336E+00 -8.00329E+00
  -6.74679E+00 -5.39722E+00 -4.06713E+00 -2.82822E+00 -1.67234E+00 -5.45843E-01  6.55465E-01  1.98899E+00  3.34764E+00  4.57640E+00
   5.64533E+00  6.59663E+00  7.42176E+00  8.06635E+00  8.48234E+00  8.59748E+00  8.35650E+00  7.69527E+00  6.62402E+00  5.26137E+00
   3.60239E+00  1.59025E+00 -7.15239E-01 -3.27574E+00 -6.26194E+00 -9.94032E+00 -1.43730E+01 -1.93209E+01 -2.42719E+01 -2.87538E+01
  -3.24133E+01 -3.48458E+01 -3.56936E+01 -3.47753E+01 -3.21836E+01 -2.82292E+01 -2.40168E+01 -1.94934E+01 -1.40795E+01 -9.23153E+00
  -7.02319E+00 -1.04585E+01 -2.02693E+01 -3.33523E+01 -4.51660E+01 -5.21385E+01 -5.29040E+01 -4.91918E+01 -4.48425E+01 -4.14160E+01
  -3.88507E+01 -3.79112E+01 -3.81426E+01 -3.90130E+01 -3.99119E+01 -4.03700E+01 -4.02054E+01 -3.93414E+01 -3.78235E+01 -3.57613E+01
  -3.32971E+01 -3.05502E+01 -2.76557E+01 -2.47624E+01 -2.19860E+01 -1.93525E+01 -1.68072E+01 -1.42840E+01 -1.17662E+01 -9.23466E+00
  -6.74289E+00 -4.20003E+00 -1.48293E+00  1.46926E+00  4.66436E+00  8.12241E+00  1.19090E+01  1.60750E+01  2.05611E+01  2.52535E+01
   3.01126E+01  3.51717E+01  4.01811E+01  4.47571E+01  4.84096E+01  5.05741E+01  5.06321E+01  4.82949E+01  4.38890E+01  3.82207E+01
   3.21910E+01  2.64379E+01  2.12515E+01  1.65942E+01  1.21432E+01  7.48612E+00  2.40287E+00 -3.00846E+00 -8.45086E+00 -1.35828E+01
  -1.80488E+01 -2.16917E+01 -2.45669E+01 -2.67769E+01 -2.83724E+01 -2.94968E+01 -3.03440E+01 -3.10755E+01 -3.17145E+01 -3.22179E+01
  -3.25310E+01 -3.27057E+01 -3.28157E+01 -3.28717E+01 -3.28456E+01 -3.27998E+01 -3.28120E+01 -3.28578E+01 -3.28180E+01 -3.26899E+01
  -3.26001E+01 -3.25877E+01 -3.25580E+01 -3.24885E+01 -3.24677E+01 -3.24988E+01 -3.24848E+01 -3.23679E+01 -3.22056E+01 -3.20798E+01
  -3.20501E+01 -3.21005E+01 -3.21762E+01 -3.22237E+01 -3.21979E+01 -3.20975E+01 -3.19651E+01 -3.18572E+01 -3.17787E+01 -3.17220E+01
  -3.16837E+01 -3.16593E+01 -3.17080E+01 -3.18089E+01 -3.18992E+01 -3.19389E+01 -3.19109E+01 -3.18471E+01 -3.17901E+01 -3.17813E+01
  -3.17999E+01 -3.18235E+01 -3.17845E+01 -3.16903E+01 -3.15902E+01 -3.15190E+01 -3.14686E+01 -3.14265E+01 -3.13749E+01 -3.13398E+01
  -3.13543E+01 -3.14255E+01 -3.14980E+01 -3.15572E+01 -3.15686E+01 -3.15064E+01 -3.13201E+01 -3.10830E+01 -3.09242E+01 -3.09280E+01
  -3.10456E+01 -3.11719E+01 -3.12405E+01 -3.12484E+01 -3.11931E+01 -3.11201E+01 -3.10430E+01 -3.10106E+01 -3.09865E+01 -3.08730E+01
 NY background values follow
    -6.714E+01   -6.674E+01   -6.635E+01   -6.595E+01   -6.555E+01   -6.516E+01   -6.476E+01   -6.436E+01   -6.396E+01   -6.356E+01
    -6.316E+01   -6.276E+01   -6.236E+01   -6.196E+01   -6.156E+01   -6.115E+01   -6.075E+01   -6.034E+01   -5.994E+01   -5.953E+01
    -5.912E+01   -5.871E+01   -5.830E+01   -5.789E+01   -5.748E+01   -5.707E+01   -5.665E+01   -5.624E+01   -5.582E+01   -5.541E+01
    -5.499E+01   -5.457E+01   -5.415E+01   -5.373E+01   -5.330E+01   -5.288E+01   -5.246E+01   -5.203E+01   -5.161E+01   -5.119E+01
    -5.076E+01   -5.034E+01   -4.992E+01   -4.949E+01   -4.907E+01   -4.865E+01   -4.823E+01   -4.782E+01   -4.740E+01   -4.698E+01
    -4.657E+01   -4.616E+01   -4.575E+01   -4.534E+01   -4.494E+01   -4.453E+01   -4.413E+01   -4.374E+01   -4.334E+01   -4.295E+01
    -4.256E+01   -4.218E+01   -4.180E+01   -4.142E+01   -4.104E+01   -4.067E+01   -4.030E+01   -3.994E+01   -3.958E+01   -3.922E+01
    -3.887E+01   -3.852E+01   -3.817E+01   -3.783E+01   -3.749E+01   -3.716E+01   -3.683E+01   -3.650E+01   -3.618E+01   -3.586E+01
    -3.555E+01   -3.523E+01   -3.493E+01   -3.462E+01   -3.433E+01   -3.403E+01   -3.374E+01   -3.346E+01   -3.317E+01   -3.290E+01
    -3.262E+01   -3.236E+01   -3.209E+01   -3.183E+01   -3.158E+01   -3.133E+01   -3.108E+01   -3.084E+01   -3.060E+01   -3.036E+01
    -3.013E+01   -2.991E+01   -2.969E+01   -2.947E+01   -2.926E+01   -2.905E+01   -2.884E+01   -2.864E+01   -2.845E+01   -2.825E+01
    -2.807E+01   -2.788E+01   -2.770E+01   -2.752E+01   -2.735E+01   -2.718E+01   -2.702E+01   -2.686E+01   -2.670E+01   -2.655E+01
    -2.640E+01   -2.626E+01   -2.612E+01   -2.598E+01   -2.585E+01   -2.572E+01   -2.560E+01   -2.547E+01   -2.536E+01   -2.524E+01
    -2.513E+01   -2.503E+01   -2.492E+01   -2.482E+01   -2.473E+01   -2.463E+01   -2.455E+01   -2.446E+01   -2.438E+01   -2.430E+01
    -2.422E+01   -2.415E+01   -2.408E+01   -2.402E+01   -2.395E+01   -2.389E+01   -2.384E+01   -2.378E+01   -2.373E+01   -2.369E+01
    -2.364E+01   -2.360E+01   -2.357E+01   -2.353E+01   -2.350E+01   -2.347E+01   -2.344E+01   -2.342E+01   -2.339E+01   -2.337E+01
    -2.335E+01   -2.334E+01   -2.332E+01   -2.331E+01   -2.330E+01   -2.329E+01   -2.328E+01   -2.328E+01   -2.327E+01   -2.327E+01
    -2.326E+01   -2.326E+01   -2.326E+01   -2.326E+01   -2.326E+01   -2.326E+01   -2.326E+01   -2.327E+01   -2.327E+01   -2.327E+01
    -2.328E+01   -2.328E+01   -2.328E+01   -2.328E+01   -2.329E+01   -2.329E+01   -2.329E+01   -2.329E+01   -2.329E+01   -2.330E+01
    -2.330E+01   -2.330E+01   -2.329E+01   -2.329E+01   -2.329E+01   -2.329E+01   -2.328E+01   -2.328E+01   -2.327E+01   -2.326E+01
    -2.325E+01   -2.324E+01   -2.323E+01   -2.322E+01   -2.320E+01   -2.319E+01   -2.317E+01   -2.315E+01   -2.313E+01   -2.311E+01
    -2.308E+01   -2.306E+01   -2.303E+01   -2.300E+01   -2.297E+01   -2.294E+01   -2.291E+01   -2.288E+01   -2.284E+01   -2.281E+01
    -2.278E+01   -2.276E+01   -2.273E+01   -2.271E+01   -2.268E+01   -2.266E+01   -2.264E+01   -2.263E+01   -2.262E+01   -2.261E+01
    -2.261E+01   -2.261E+01   -2.261E+01   -2.262E+01   -2.264E+01   -2.266E+01   -2.268E+01   -2.272E+01   -2.275E+01   -2.280E+01
    -2.285E+01   -2.291E+01   -2.298E+01   -2.305E+01   -2.313E+01   -2.322E+01   -2.332E+01   -2.342E+01   -2.354E+01   -2.366E+01
    -2.379E+01   -2.393E+01   -2.407E+01   -2.423E+01   -2.440E+01   -2.457E+01   -2.476E+01   -2.495E+01   -2.516E+01   -2.537E+01
    -2.559E+01   -2.583E+01   -2.607E+01   -2.633E+01   -2.659E+01   -2.687E+01   -2.716E+01   -2.746E+01   -2.777E+01   -2.809E+01
    -2.842E+01   -2.877E+01   -2.912E+01   -2.949E+01   -2.986E+01   -3.025E+01   -3.063E+01   -3.103E+01   -3.143E+01   -3.184E+01
    -3.225E+01   -3.266E+01   -3.307E+01   -3.349E+01   -3.391E+01   -3.433E+01   -3.474E+01   -3.516E+01   -3.557E+01   -3.598E+01
    -3.638E+01   -3.678E+01   -3.718E+01   -3.756E+01   -3.794E+01   -3.832E+01   -3.868E+01   -3.903E+01   -3.938E+01   -3.971E+01
    -4.002E+01   -4.033E+01   -4.062E+01   -4.091E+01   -4.117E+01   -4.143E+01   -4.167E+01   -4.190E+01   -4.211E+01   -4.232E+01
    -4.250E+01   -4.268E+01   -4.284E+01   -4.299E+01   -4.312E+01   -4.324E+01   -4.335E+01   -4.344E+01   -4.351E+01   -4.358E+01
    -4.362E+01   -4.366E+01   -4.368E+01   -4.368E+01   -4.367E+01   -4.364E+01   -4.360E+01   -4.355E+01   -4.347E+01   -4.339E+01
    -4.328E+01   -4.317E+01   -4.303E+01   -4.289E+01   -4.273E+01   -4.255E+01   -4.237E+01   -4.217E+01   -4.196E+01   -4.174E+01
    -4.150E+01   -4.126E+01   -4.101E+01   -4.075E+01   -4.047E+01   -4.019E+01   -3.991E+01   -3.961E+01   -3.931E+01   -3.900E+01
    -3.868E+01   -3.836E+01   -3.804E+01   -3.770E+01   -3.737E+01   -3.703E+01   -3.669E+01   -3.634E+01   -3.600E+01   -3.565E+01
    -3.530E+01   -3.495E+01   -3.459E+01   -3.424E+01   -3.389E+01   -3.354E+01   -3.319E+01   -3.284E+01   -3.250E+01   -3.216E+01
    -3.182E+01   -3.148E+01   -3.115E+01   -3.082E+01   -3.049E+01   -3.018E+01   -2.986E+01   -2.956E+01   -2.926E+01   -2.896E+01
    -2.868E+01   -2.840E+01   -2.813E+01   -2.787E+01   -2.761E+01   -2.737E+01   -2.714E+01   -2.692E+01   -2.670E+01   -2.650E+01
    -2.631E+01   -2.614E+01   -2.597E+01   -2.582E+01   -2.567E+01   -2.554E+01   -2.541E+01   -2.530E+01   -2.520E+01   -2.510E+01
    -2.502E+01   -2.495E+01   -2.488E+01   -2.482E+01   -2.478E+01   -2.474E+01   -2.470E+01   -2.468E+01   -2.466E+01   -2.465E+01
    -2.465E+01   -2.466E+01   -2.467E+01   -2.469E+01   -2.471E+01   -2.474E+01   -2.478E+01   -2.482E+01   -2.487E+01   -2.492E+01
    -2.498E+01   -2.504E+01   -2.511E+01   -2.518E+01   -2.525E+01   -2.533E+01   -2.541E+01   -2.550E+01   -2.559E+01   -2.568E+01
    -2.578E+01   -2.588E+01   -2.598E+01   -2.609E+01   -2.620E+01   -2.631E+01   -2.642E+01   -2.653E+01   -2.665E+01   -2.677E+01
    -2.689E+01   -2.701E+01   -2.714E+01   -2.726E+01   -2.739E+01   -2.751E+01   -2.764E+01   -2.777E+01   -2.789E+01   -2.802E+01
    -2.815E+01   -2.828E+01   -2.840E+01   -2.853E+01   -2.866E+01   -2.879E+01   -2.891E+01   -2.904E+01   -2.917E+01   -2.930E+01
    -2.943E+01   -2.955E+01   -2.968E+01   -2.981E+01   -2.993E+01   -3.006E+01   -3.019E+01   -3.032E+01   -3.044E+01   -3.057E+01
    -3.070E+01   -3.082E+01   -3.095E+01   -3.108E+01   -3.120E+01   -3.133E+01   -3.145E+01   -3.158E+01   -3.170E+01   -3.183E+01
 Mac      Conc. = 1.87E-04
  -8.05183E+01 -8.03968E+01 -8.02809E+01 -8.02573E+01 -8.04002E+01 -8.07901E+01 -8.13744E+01 -8.20036E+01 -8.24990E+01 -8.27598E+01
  -8.27731E+01 -8.25896E+01 -8.23896E+01 -8.24866E+01 -8.28435E+01 -8.28984E+01 -8.20081E+01 -8.00343E+01 -7.74296E+01 -7.46863E+01
  -7.20124E+01 -6.95554E+01 -6.75640E+01 -6.60401E+01 -6.46930E+01 -6.33305E+01 -6.18686E+01 -6.03136E+01 -5.87722E+01 -5.73710E+01
  -5.61461E+01 -5.50673E+01 -5.42156E+01 -5.36566E+01 -5.32215E+01 -5.25143E+01 -5.12906E+01 -4.97235E+01 -4.82554E+01 -4.72360E+01
  -4.65605E+01 -4.58914E+01 -4.50131E+01 -4.39917E+01 -4.30276E+01 -4.22948E+01 -4.19059E+01 -4.18403E+01 -4.20268E+01 -4.23545E+01
  -4.26516E+01 -4.28287E+01 -4.28846E+01 -4.28225E+01 -4.25440E+01 -4.19734E+01 -4.11348E+01 -4.01045E+01 -3.90125E+01 -3.78860E+01
  -3.67771E+01 -3.58982E+01 -3.54315E+01 -3.53136E+01 -3.53228E+01 -3.52989E+01 -3.52179E+01 -3.50825E+01 -3.47445E+01 -3.39520E+01
  -3.26202E+01 -3.10297E+01 -2.95567E+01 -2.83854E+01 -2.75755E+01 -2.71572E+01 -2.70643E+01 -2.71204E+01 -2.71950E+01 -2.72246E+01
  -2.71698E+01 -2.69748E+01 -2.65566E+01 -2.59386E+01 -2.52133E+01 -2.44566E+01 -2.36992E+01 -2.29733E+01 -2.23275E+01 -2.17755E+01
  -2.13017E+01 -2.09373E+01 -2.07507E+01 -2.08333E+01 -2.12984E+01 -2.21831E+01 -2.33599E+01 -2.46338E+01 -2.58672E+01 -2.70418E+01
  -2.83051E+01 -2.97936E+01 -3.15761E+01 -3.38133E+01 -3.66797E+01 -4.00828E+01 -4.34413E+01 -4.60315E+01 -4.74093E+01 -4.75581E+01
