 LCModel (Version 6.3-1N) Copyright: S.W. Provencher.          Ref.: Magn. Reson. Med. 30:672-679 (1993).                
 Slice_N1@21_23  28-Feb-2025 11:41:58
 27 lines in following concentration table = NCONC+1
    Conc.  %SD /Cr+PCr  Metabolite                                         
 2.56E-04   6% 2.7E-04 Mac                                                 
    3.169  69%   3.299 Cr                                                  
    4.516  48%   4.701 PCr                                                 
    4.885  23%   5.086 Ins                                                 
    7.072  14%   7.363 NAA                                                 
    1.964  56%   2.044 Tau                                                 
    0.000 999%   0.000 PCho                                                
    1.585  18%   1.650 GPC                                                 
   10.611  13%  11.046 Glu                                                 
    6.374  17%   6.636 Gln                                                 
    0.000 999%   0.000 Ala                                                 
    1.770  86%   1.843 Asc                                                 
    3.328  35%   3.464 Asp                                                 
 7.47E-02 845% 7.8E-02 GABA                                                
    0.588 131%   0.613 Glc                                                 
    1.788  39%   1.861 GSH                                                 
    0.142 633%   0.147 Lac                                                 
    2.594  32%   2.701 NAAG                                                
    0.000 999%   0.000 PE                                                  
    1.585  18%   1.650 GPC+PCho                                            
    9.666  11%  10.063 NAA+NAAG                                            
   16.985  11%  17.682 Glu+Gln                                             
    7.684  12%   8.000 Cr+PCr                                              
    9.666  11%  10.063 NAA+NAAG                                            
    7.684  12%   8.000 Cr+PCr                                              
   16.985  11%  17.682 Glu+Gln                                             
   6 lines in following misc. output table
  FWHM = 0.041 ppm    S/N =   2                                            
  Data shift = 0.057 ppm                                                   
  Ph: -59 deg       0.0 deg/ppm                                            
  alphaB,S = 8.6E-02,   1.7E+01                                            
   19 spline knots.   Ns = 6(1)                                            
  ( 6) 2 infls.   ( 3) 1 extrs.                                            
  480 points on ppm-axis = NY
      4.100000     4.091866     4.083733     4.075600     4.067466     4.059333     4.051199     4.043066     4.034933     4.026799
      4.018666     4.010532     4.002399     3.994265     3.986132     3.977998     3.969864     3.961731     3.953597     3.945463
      3.937330     3.929196     3.921062     3.912929     3.904795     3.896662     3.888528     3.880394     3.872261     3.864127
      3.855993     3.847860     3.839726     3.831592     3.823459     3.815325     3.807191     3.799058     3.790924     3.782790
      3.774657     3.766523     3.758389     3.750256     3.742122     3.733989     3.725855     3.717721     3.709588     3.701454
      3.693320     3.685187     3.677053     3.668919     3.660786     3.652652     3.644518     3.636385     3.628251     3.620117
      3.611984     3.603850     3.595716     3.587583     3.579449     3.571316     3.563182     3.555048     3.546915     3.538781
      3.530647     3.522514     3.514380     3.506246     3.498113     3.489979     3.481845     3.473712     3.465578     3.457444
      3.449311     3.441177     3.433043     3.424910     3.416776     3.408643     3.400509     3.392375     3.384242     3.376108
      3.367974     3.359841     3.351707     3.343573     3.335440     3.327306     3.319172     3.311039     3.302905     3.294771
      3.286638     3.278504     3.270370     3.262237     3.254103     3.245970     3.237836     3.229702     3.221569     3.213435
      3.205301     3.197168     3.189034     3.180900     3.172767     3.164633     3.156499     3.148366     3.140232     3.132098
      3.123965     3.115831     3.107697     3.099564     3.091430     3.083297     3.075163     3.067029     3.058896     3.050762
      3.042628     3.034495     3.026361     3.018227     3.010094     3.001960     2.993826     2.985693     2.977559     2.969425
      2.961292     2.953158     2.945024     2.936891     2.928757     2.920624     2.912490     2.904356     2.896223     2.888089
      2.879955     2.871822     2.863688     2.855554     2.847421     2.839287     2.831153     2.823020     2.814886     2.806752
      2.798619     2.790485     2.782351     2.774218     2.766084     2.757951     2.749817     2.741683     2.733550     2.725416
      2.717282     2.709149     2.701015     2.692881     2.684748     2.676614     2.668480     2.660347     2.652213     2.644079
      2.635946     2.627812     2.619678     2.611545     2.603411     2.595278     2.587144     2.579010     2.570877     2.562743
      2.554609     2.546476     2.538342     2.530208     2.522075     2.513941     2.505807     2.497674     2.489540     2.481406
      2.473273     2.465139     2.457006     2.448872     2.440738     2.432605     2.424471     2.416337     2.408204     2.400070
      2.391936     2.383803     2.375669     2.367535     2.359402     2.351268     2.343134     2.335001     2.326867     2.318733
      2.310600     2.302466     2.294333     2.286199     2.278065     2.269932     2.261798     2.253664     2.245531     2.237397
      2.229263     2.221130     2.212996     2.204862     2.196729     2.188595     2.180461     2.172328     2.164194     2.156060
      2.147927     2.139793     2.131660     2.123526     2.115392     2.107259     2.099125     2.090991     2.082858     2.074724
      2.066590     2.058457     2.050323     2.042189     2.034056     2.025922     2.017788     2.009655     2.001521     1.993387
      1.985254     1.977120     1.968987     1.960853     1.952719     1.944586     1.936452     1.928318     1.920185     1.912051
      1.903917     1.895784     1.887650     1.879516     1.871383     1.863249     1.855115     1.846982     1.838848     1.830714
      1.822581     1.814447     1.806314     1.798180     1.790046     1.781913     1.773779     1.765645     1.757512     1.749378
      1.741244     1.733111     1.724977     1.716843     1.708710     1.700576     1.692442     1.684309     1.676175     1.668041
      1.659908     1.651774     1.643641     1.635507     1.627373     1.619240     1.611106     1.602972     1.594839     1.586705
      1.578571     1.570438     1.562304     1.554170     1.546037     1.537903     1.529769     1.521636     1.513502     1.505368
      1.497235     1.489101     1.480968     1.472834     1.464700     1.456567     1.448433     1.440299     1.432166     1.424032
      1.415898     1.407765     1.399631     1.391497     1.383364     1.375230     1.367096     1.358963     1.350829     1.342695
      1.334562     1.326428     1.318295     1.310161     1.302027     1.293894     1.285760     1.277626     1.269493     1.261359
      1.253225     1.245092     1.236958     1.228824     1.220691     1.212557     1.204423     1.196290     1.188156     1.180022
      1.171889     1.163755     1.155622     1.147488     1.139354     1.131221     1.123087     1.114953     1.106820     1.098686
      1.090552     1.082419     1.074285     1.066151     1.058018     1.049884     1.041750     1.033617     1.025483     1.017349
      1.009216     1.001082     0.992949     0.984815     0.976681     0.968548     0.960414     0.952280     0.944147     0.936013
      0.927879     0.919746     0.911612     0.903478     0.895345     0.887211     0.879077     0.870944     0.862810     0.854676
      0.846543     0.838409     0.830276     0.822142     0.814008     0.805875     0.797741     0.789607     0.781474     0.773340
      0.765206     0.757073     0.748939     0.740805     0.732672     0.724538     0.716404     0.708271     0.700137     0.692003
      0.683870     0.675736     0.667603     0.659469     0.651335     0.643202     0.635068     0.626934     0.618801     0.610667
      0.602533     0.594400     0.586266     0.578132     0.569999     0.561865     0.553731     0.545598     0.537464     0.529330
      0.521197     0.513063     0.504930     0.496796     0.488662     0.480529     0.472395     0.464261     0.456128     0.447994
      0.439861     0.431727     0.423593     0.415460     0.407326     0.399192     0.391059     0.382925     0.374792     0.366658
      0.358524     0.350391     0.342257     0.334124     0.325990     0.317856     0.309723     0.301589     0.293455     0.285322
      0.277188     0.269055     0.260921     0.252787     0.244654     0.236520     0.228386     0.220253     0.212119     0.203986
 NY phased data points follow
   2.01810E+02  2.21767E+02  1.95916E+02  2.03158E+02  2.13654E+02  1.87393E+02  1.81962E+02  1.80198E+02  1.65089E+02  1.35426E+02
   1.35600E+02  1.12187E+02  8.23036E+01  6.43900E+01  3.63378E+01  3.01539E+01  1.51525E+01  5.21086E+00 -1.05906E+01 -2.23025E+01
  -1.39864E+01 -3.35550E+00  2.12598E+00  1.84114E+01  5.31407E+01  5.55404E+01  6.29290E+01  8.73450E+01  7.94381E+01  7.39074E+01
   7.71168E+01  6.92738E+01  5.92399E+01  4.23246E+01  5.38345E+01  4.80276E+01  1.68816E+01  1.68953E+01 -1.68180E+01 -4.44145E+01
  -4.40375E+01 -5.62976E+01 -6.48347E+01 -6.11946E+01 -4.28633E+01 -3.49827E+01 -1.38595E+01  3.97688E+00 -3.05663E+00  6.48682E+00
   3.66303E+00 -8.48905E+00 -6.95889E+00 -2.39978E+01 -2.98348E+01 -2.78738E+01 -3.97341E+01 -4.32677E+01 -4.59925E+01 -5.19300E+01
  -5.28723E+01 -3.80336E+01 -4.70055E+01 -3.67603E+01 -7.02831E+00 -2.18125E+01 -1.80648E+01 -2.01705E+01 -2.80355E+01 -3.65468E+01
  -5.45632E+01 -3.61775E+01 -3.33642E+01 -2.87087E+01 -9.51421E+00 -8.25920E+00 -7.70003E+00 -1.33956E+01 -1.81576E+00  1.32815E+01
  -7.37517E-01 -1.87912E+01 -1.65849E+01 -2.23359E+01 -3.22000E+01 -1.64398E+01 -1.80350E+01 -1.08485E+01 -1.12776E+01 -1.36143E+01
   1.47003E+01  5.17432E+00  1.02635E+01  2.87081E+01  2.49486E+01  1.51615E+01  7.97167E+00  1.80441E+01  2.09370E+01  4.68153E+00
  -5.58086E+00  7.78450E-02 -1.81503E+01 -3.50938E+01 -5.02662E+01 -5.06711E+01 -4.58845E+01 -5.59398E+01 -8.15615E+01 -1.16844E+02
  -1.01629E+02 -1.16162E+02 -1.13721E+02 -8.58782E+01 -8.10497E+01 -6.62298E+01 -5.84553E+01 -4.50166E+01 -5.62108E+01 -4.27080E+01
  -2.60868E+01 -1.18362E+01 -9.00420E+00 -1.95776E+01 -1.03438E+00  6.57718E+00  4.68799E+00 -3.19584E+00  3.94583E+01  5.34237E+01
   4.46850E+01  2.05426E+01 -3.76684E+01 -6.64399E+01 -1.04791E+02 -9.66883E+01 -1.07251E+02 -1.08765E+02 -9.76280E+01 -1.12032E+02
  -8.95362E+01 -9.37782E+01 -9.57041E+01 -1.00036E+02 -9.22130E+01 -8.34058E+01 -8.78933E+01 -7.28490E+01 -7.07991E+01 -7.55876E+01
  -8.12166E+01 -6.53125E+01 -5.61119E+01 -4.77488E+01 -3.95102E+01 -4.69502E+01 -4.36653E+01 -5.36462E+01 -5.53625E+01 -4.55545E+01
  -3.88700E+01 -3.35698E+01 -3.23533E+01 -4.02878E+01 -3.80114E+01 -1.98493E+01 -3.98718E+01 -5.05226E+01 -3.89997E+01 -3.37236E+01
  -1.98776E+01 -4.72063E+00  9.77221E-01 -1.76097E+01 -3.50102E+00  9.17207E+00 -3.20567E+00 -6.53104E+00 -1.47432E+01 -2.25043E+01
  -2.91786E+01 -2.03336E+01 -4.74924E+01 -5.22979E+01 -4.05434E+01 -5.38858E+01 -4.15299E+01 -5.05467E+01 -3.90205E+01 -3.84532E+01
  -4.89262E+01 -3.26823E+01 -3.47765E+01 -3.32172E+01 -3.02698E+01 -3.37038E+01 -2.77403E+01 -2.53621E+01 -3.77180E+01 -2.65461E+01
  -3.35253E+01 -3.46142E+01 -6.07190E+00 -1.37863E+01 -1.29687E+01 -2.82019E+00 -1.57433E+01 -2.44386E+01 -3.57788E+01 -5.14903E+01
  -3.16031E+01 -3.07455E+01 -3.38523E+01 -1.74122E+01 -6.50439E+00  3.24972E+01  4.30559E+01  3.98500E+01  3.92200E+01  1.42018E+01
  -1.46308E+00  2.94674E+00  5.88793E-01 -4.98337E+00 -7.25148E+00 -1.43236E+01 -2.32048E+01 -1.94895E+01  3.59960E+00 -9.77498E+00
  -1.92052E+01 -3.60286E+01 -5.66085E+01 -5.26845E+01 -5.85816E+01 -5.61338E+01 -7.23896E+01 -7.32896E+01 -8.34773E+01 -8.58224E+01
  -8.27090E+01 -8.45212E+01 -5.11919E+01 -4.72482E+01 -4.57592E+01 -3.85406E+01 -2.27629E+01 -1.54182E+01 -1.74074E+01 -2.57243E+01
  -4.35817E+01 -2.71173E+01 -1.65142E+01 -4.67869E+01 -6.96361E+01 -4.54922E+01 -2.29799E+01  2.04502E+01  7.19658E+01  1.07791E+02
   1.19449E+02  1.17260E+02  1.21959E+02  1.00129E+02  9.60343E+01  8.16760E+01  8.22997E+01  7.08958E+01  5.43293E+01  6.22077E+01
   3.96100E+01  4.37450E+01  3.10906E+01  3.50627E+01  4.64164E+01  2.29747E+01  3.04489E+01  3.92816E+01  2.51935E+01  1.93097E+01
   2.34569E+01  1.51494E+01  3.07969E+01  3.89661E+01  3.27485E+01  3.11529E+01  1.74945E+01  1.60783E+01  5.50595E+00 -1.08006E+01
  -5.67225E+00 -1.04454E+01 -2.80211E+01 -2.52705E+01 -3.25538E+01 -4.03890E+01 -2.85629E+01 -2.07810E+01 -1.76118E+01 -1.73227E+01
  -3.14588E+01 -4.49619E+01 -3.97790E+01 -4.29941E+01 -3.05967E+01 -5.50112E+00  1.94038E+01  2.82056E+01  2.23528E+01  3.48720E+01
   3.77846E+01  4.64110E+01  6.09935E+01  7.71552E+01  7.34515E+01  7.27205E+01  9.30871E+01  7.91743E+01  7.67809E+01  7.91620E+01
   6.81648E+01  5.32735E+01  5.25012E+01  6.28544E+01  3.73232E+01  4.00661E+01  4.16130E+01  2.32968E+01  3.76078E+01  2.86223E+01
   1.24042E+01  1.44454E+01  5.35593E+00 -2.14690E+01 -2.73763E+01 -2.49645E+01 -4.40802E+01 -3.59957E+01 -2.46356E+01 -2.26169E+01
  -1.92911E+01 -1.49272E+00  1.14390E+01 -3.57043E+00 -4.22081E-01  7.06745E+00  2.81348E+01  2.78539E+01  1.18019E+01  1.52385E+01
   8.62580E+00  1.35893E+01  6.45022E+00  1.44945E+01  2.71760E+01  2.31147E+00  3.64991E+00  1.29922E+01  5.26335E-01  8.55828E-01
  -7.37981E+00 -8.23445E+00  4.25078E+00 -8.96084E+00 -9.88230E-01  5.07209E-01 -9.31419E+00  1.13324E+01  1.34366E+01  6.49950E+00
   1.70735E+01  2.13146E+01  2.16734E+01  3.64342E+01  4.42404E+01  4.26039E+01  4.20383E+01  5.01880E+01  6.55523E+01  7.00422E+01
   5.42330E+01  5.67133E+01  7.99829E+01  7.01683E+01  8.57741E+01  9.01437E+01  8.35690E+01  1.10145E+02  9.99361E+01  9.59670E+01
   8.14539E+01  7.15319E+01  7.85644E+01  6.66885E+01  5.21519E+01  2.39925E+01  3.80372E+01  3.21134E+01  2.40057E+00  1.40746E+01
  -3.05855E+00 -1.05881E+01 -4.06467E+00 -1.76200E+01 -2.23404E+01 -3.03096E+01 -2.93474E+01 -3.49067E+01 -3.18842E+01 -2.21517E+01
  -4.64738E+01 -3.47020E+01 -2.00550E+01 -3.06681E+01 -3.01047E+01 -3.09947E+01 -2.77654E+01 -3.60071E+01 -2.97179E+01 -2.49710E+01
  -1.90709E+01 -2.01593E+01 -3.41698E+01 -2.06600E+01 -2.38714E+01 -3.33156E+01 -3.97061E+01 -2.86846E+01 -2.37876E+01 -2.99819E+01
  -1.76770E+01 -2.03603E+01 -3.22078E+01 -3.77029E+01 -1.59631E+01 -2.44096E+01 -2.38465E+01 -8.07128E+00 -2.46816E+01 -1.88112E+01
  -1.45261E+01 -9.85009E+00 -2.11391E+01 -2.08047E+01 -2.11165E+01 -2.14932E+01  2.08063E+00 -1.90279E+01 -1.61402E+01  8.83868E+00
  -5.01294E+00 -1.72565E+01 -8.35286E+00  1.49515E+00 -4.79508E+00 -1.41090E+01  9.78579E+00  8.19888E+00 -2.65354E+00  1.68128E+01
   2.86442E+00  8.41493E+00 -3.46156E+00 -9.69308E+00  2.37350E+00 -2.43821E+00  2.01145E+00 -1.01757E+01  5.38072E+00  9.93275E-01
   2.65038E+00  1.06279E+01  4.61042E-01  6.58601E+00  1.28515E+01  9.24810E+00 -5.32954E+00  1.29760E+01  6.14991E+00  7.74100E+00
 NY points of the fit to the data follow
   1.44439E+02  1.35356E+02  1.28130E+02  1.24692E+02  1.24462E+02  1.25197E+02  1.24642E+02  1.21473E+02  1.15840E+02  1.08635E+02
   1.00758E+02  9.30254E+01  8.60052E+01  7.94464E+01  7.33126E+01  6.66259E+01  5.67580E+01  4.20451E+01  2.52020E+01  1.17780E+01
   6.89707E+00  1.25345E+01  2.58822E+01  4.21813E+01  5.77089E+01  7.00325E+01  7.75547E+01  8.01892E+01  8.02973E+01  7.84388E+01
   7.54652E+01  7.16879E+01  6.67043E+01  6.11341E+01  5.59219E+01  5.04021E+01  4.12721E+01  2.49243E+01  1.59070E+00 -2.28919E+01
  -4.14154E+01 -4.91858E+01 -4.48361E+01 -3.11449E+01 -1.29385E+01  4.81800E+00  1.82709E+01  2.56382E+01  2.75839E+01  2.62793E+01
   2.14863E+01  1.35762E+01  4.73558E+00 -2.85956E+00 -8.61379E+00 -1.40093E+01 -1.90676E+01 -2.29037E+01 -2.55877E+01 -2.65674E+01
  -2.51817E+01 -2.16520E+01 -1.61275E+01 -8.88025E+00 -3.32240E+00 -4.09838E+00 -1.06508E+01 -2.01020E+01 -3.01989E+01 -3.79296E+01
  -4.14385E+01 -4.05152E+01 -3.57683E+01 -2.86218E+01 -2.12307E+01 -1.58625E+01 -1.24743E+01 -9.97555E+00 -9.23630E+00 -1.04937E+01
  -1.31926E+01 -1.69613E+01 -2.10833E+01 -2.45916E+01 -2.64187E+01 -2.61423E+01 -2.39819E+01 -2.07003E+01 -1.70454E+01 -1.34315E+01
  -1.04071E+01 -7.80435E+00 -5.72673E+00 -3.82367E+00 -2.17129E+00 -1.27683E+00 -1.15613E+00 -1.45520E+00 -2.44864E+00 -4.37378E+00
  -7.19147E+00 -1.13356E+01 -1.71300E+01 -2.16561E+01 -2.19195E+01 -2.08688E+01 -2.78918E+01 -4.65648E+01 -7.20790E+01 -9.60124E+01
  -1.10732E+02 -1.14574E+02 -1.10000E+02 -9.98498E+01 -8.63923E+01 -7.30880E+01 -6.52947E+01 -5.94166E+01 -5.37755E+01 -4.81343E+01
  -4.22579E+01 -3.57744E+01 -2.82443E+01 -1.94139E+01 -1.01555E+01 -2.25138E+00  7.22672E+00  2.45940E+01  4.89395E+01  6.37182E+01
   5.52678E+01  2.45782E+01 -1.79168E+01 -5.80407E+01 -8.71706E+01 -1.03337E+02 -1.08261E+02 -1.02936E+02 -9.19931E+01 -8.67676E+01
  -8.50985E+01 -8.44573E+01 -8.44250E+01 -8.45296E+01 -8.42639E+01 -8.31944E+01 -8.11958E+01 -7.86615E+01 -7.59183E+01 -7.33781E+01
  -7.10050E+01 -6.84342E+01 -6.54377E+01 -6.18985E+01 -5.84218E+01 -5.57736E+01 -5.41210E+01 -5.26059E+01 -5.03483E+01 -4.74933E+01
  -4.52274E+01 -4.42822E+01 -4.43128E+01 -4.46006E+01 -4.48074E+01 -4.52863E+01 -4.62595E+01 -4.66872E+01 -4.43164E+01 -3.82249E+01
  -3.03802E+01 -2.38349E+01 -2.02867E+01 -1.89954E+01 -1.80859E+01 -1.68481E+01 -1.65146E+01 -1.79837E+01 -2.12563E+01 -2.59763E+01
  -3.19682E+01 -3.82151E+01 -4.33784E+01 -4.67816E+01 -4.80771E+01 -4.83620E+01 -4.83471E+01 -4.74914E+01 -4.61098E+01 -4.48182E+01
  -4.34108E+01 -4.07264E+01 -3.70219E+01 -3.34205E+01 -3.04329E+01 -2.80195E+01 -2.61332E+01 -2.51457E+01 -2.48905E+01 -2.49916E+01
  -2.39219E+01 -2.04466E+01 -1.57340E+01 -1.08236E+01 -6.70676E+00 -4.94500E+00 -6.72170E+00 -1.28606E+01 -2.21181E+01 -3.23067E+01
  -4.06965E+01 -4.43797E+01 -3.99326E+01 -2.71333E+01 -8.75687E+00  1.13249E+01  2.80936E+01  3.79886E+01  4.00729E+01  3.65344E+01
   3.01684E+01  2.30680E+01  1.84133E+01  1.44220E+01  1.07084E+01  6.96080E+00  1.33239E+00 -6.19386E+00 -1.54140E+01 -2.59439E+01
  -3.71904E+01 -4.87271E+01 -5.98647E+01 -6.95884E+01 -7.74638E+01 -8.31396E+01 -8.66444E+01 -8.85438E+01 -8.93348E+01 -8.82431E+01
  -8.44033E+01 -7.74009E+01 -6.71624E+01 -5.50637E+01 -4.36169E+01 -3.47935E+01 -2.90537E+01 -2.70934E+01 -3.01138E+01 -3.70399E+01
  -4.41073E+01 -4.56461E+01 -4.58157E+01 -5.06048E+01 -5.40349E+01 -4.55108E+01 -2.08999E+01  1.39053E+01  4.84199E+01  7.35897E+01
   8.74305E+01  9.35514E+01  9.05424E+01  8.04889E+01  7.18137E+01  6.69289E+01  6.28474E+01  5.91724E+01  5.59217E+01  5.32386E+01
   5.12240E+01  4.97165E+01  4.85753E+01  4.76519E+01  4.68764E+01  4.61926E+01  4.55285E+01  4.47658E+01  4.37557E+01  4.25215E+01
   4.10828E+01  3.93757E+01  3.74863E+01  3.54591E+01  3.33829E+01  3.12072E+01  2.88056E+01  2.61180E+01  2.30930E+01  1.97027E+01
   1.59770E+01  1.21466E+01  8.67524E+00  6.01908E+00  4.51896E+00  4.19631E+00  4.85667E+00  6.32103E+00  8.34244E+00  1.06697E+01
   1.31494E+01  1.56422E+01  1.80341E+01  2.03117E+01  2.25609E+01  2.48767E+01  2.72761E+01  2.97346E+01  3.21239E+01  3.44064E+01
   3.65782E+01  3.85967E+01  4.03967E+01  4.19321E+01  4.30806E+01  4.36897E+01  4.37255E+01  4.32244E+01  4.21476E+01  4.05596E+01
   3.85723E+01  3.62576E+01  3.35698E+01  3.01958E+01  2.56579E+01  1.97679E+01  1.27158E+01  4.91792E+00 -3.08862E+00 -1.05613E+01
  -1.67469E+01 -2.09209E+01 -2.27028E+01 -2.22355E+01 -2.00595E+01 -1.69581E+01 -1.36973E+01 -1.07186E+01 -8.10383E+00 -5.71244E+00
  -3.26851E+00 -6.20466E-01  2.16798E+00  4.85216E+00  7.24612E+00  9.19472E+00  1.05587E+01  1.12897E+01  1.12527E+01  1.02131E+01
   8.11416E+00  4.97353E+00  1.18398E+00 -2.72306E+00 -6.14385E+00 -8.59452E+00 -9.88353E+00 -9.93157E+00 -8.83797E+00 -6.85607E+00
  -4.27564E+00 -1.36519E+00  1.68998E+00  4.68703E+00  7.56053E+00  1.03116E+01  1.29474E+01  1.55265E+01  1.80882E+01  2.06590E+01
   2.32564E+01  2.60031E+01  2.89956E+01  3.22882E+01  3.60023E+01  4.02730E+01  4.50694E+01  5.03421E+01  5.61634E+01  6.25821E+01
   6.95738E+01  7.70623E+01  8.46569E+01  9.15941E+01  9.68435E+01  9.92728E+01  9.80902E+01  9.33947E+01  8.60706E+01  7.73473E+01
   6.84932E+01  6.04442E+01  5.34311E+01  4.71137E+01  4.08538E+01  3.40759E+01  2.65160E+01  1.84876E+01  1.05088E+01  3.06997E+00
  -3.35885E+00 -8.56002E+00 -1.25202E+01 -1.54183E+01 -1.74333E+01 -1.89132E+01 -2.01473E+01 -2.11780E+01 -2.20301E+01 -2.27130E+01
  -2.32488E+01 -2.36003E+01 -2.37157E+01 -2.36920E+01 -2.36544E+01 -2.36666E+01 -2.36367E+01 -2.35149E+01 -2.33209E+01 -2.30901E+01
  -2.28638E+01 -2.25931E+01 -2.23115E+01 -2.20649E+01 -2.18754E+01 -2.16003E+01 -2.11605E+01 -2.06578E+01 -2.01710E+01 -1.97762E+01
  -1.94625E+01 -1.91891E+01 -1.89021E+01 -1.85746E+01 -1.81379E+01 -1.75854E+01 -1.69940E+01 -1.63723E+01 -1.57314E+01 -1.51053E+01
  -1.45740E+01 -1.41552E+01 -1.38232E+01 -1.35064E+01 -1.31124E+01 -1.26234E+01 -1.20468E+01 -1.14790E+01 -1.09475E+01 -1.04434E+01
  -9.93552E+00 -9.39888E+00 -8.78493E+00 -8.13047E+00 -7.48223E+00 -6.82246E+00 -6.14842E+00 -5.52376E+00 -4.95439E+00 -4.44041E+00
  -4.00916E+00 -3.63758E+00 -3.26407E+00 -2.81138E+00 -2.18131E+00 -1.39024E+00 -5.37099E-01  1.99672E-01  7.53803E-01  1.13635E+00
   1.46082E+00  1.77144E+00  2.10652E+00  2.52674E+00  2.97455E+00  3.38037E+00  3.71310E+00  3.99636E+00  4.27794E+00  4.69164E+00
 NY background values follow
     1.715E+02    1.675E+02    1.634E+02    1.594E+02    1.554E+02    1.514E+02    1.474E+02    1.433E+02    1.393E+02    1.354E+02
     1.314E+02    1.274E+02    1.235E+02    1.196E+02    1.157E+02    1.118E+02    1.079E+02    1.041E+02    1.003E+02    9.652E+01
     9.278E+01    8.908E+01    8.541E+01    8.178E+01    7.819E+01    7.464E+01    7.113E+01    6.767E+01    6.426E+01    6.090E+01
     5.759E+01    5.433E+01    5.112E+01    4.797E+01    4.488E+01    4.183E+01    3.884E+01    3.591E+01    3.303E+01    3.021E+01
     2.744E+01    2.473E+01    2.208E+01    1.948E+01    1.694E+01    1.446E+01    1.204E+01    9.669E+00    7.360E+00    5.111E+00
     2.920E+00    7.879E-01   -1.284E+00   -3.296E+00   -5.249E+00   -7.140E+00   -8.971E+00   -1.074E+01   -1.245E+01   -1.410E+01
    -1.568E+01   -1.720E+01   -1.867E+01   -2.007E+01   -2.141E+01   -2.270E+01   -2.393E+01   -2.511E+01   -2.623E+01   -2.730E+01
    -2.832E+01   -2.929E+01   -3.021E+01   -3.109E+01   -3.192E+01   -3.270E+01   -3.344E+01   -3.414E+01   -3.479E+01   -3.541E+01
    -3.599E+01   -3.653E+01   -3.703E+01   -3.750E+01   -3.794E+01   -3.834E+01   -3.872E+01   -3.906E+01   -3.937E+01   -3.966E+01
    -3.992E+01   -4.015E+01   -4.036E+01   -4.055E+01   -4.071E+01   -4.085E+01   -4.096E+01   -4.105E+01   -4.112E+01   -4.116E+01
    -4.118E+01   -4.118E+01   -4.116E+01   -4.111E+01   -4.105E+01   -4.096E+01   -4.086E+01   -4.073E+01   -4.058E+01   -4.042E+01
    -4.023E+01   -4.002E+01   -3.980E+01   -3.956E+01   -3.930E+01   -3.902E+01   -3.872E+01   -3.841E+01   -3.808E+01   -3.773E+01
    -3.736E+01   -3.698E+01   -3.659E+01   -3.618E+01   -3.575E+01   -3.532E+01   -3.486E+01   -3.440E+01   -3.392E+01   -3.344E+01
    -3.294E+01   -3.243E+01   -3.191E+01   -3.138E+01   -3.085E+01   -3.030E+01   -2.975E+01   -2.919E+01   -2.863E+01   -2.806E+01
    -2.748E+01   -2.690E+01   -2.631E+01   -2.572E+01   -2.513E+01   -2.454E+01   -2.394E+01   -2.335E+01   -2.275E+01   -2.215E+01
    -2.155E+01   -2.096E+01   -2.036E+01   -1.977E+01   -1.918E+01   -1.859E+01   -1.801E+01   -1.743E+01   -1.685E+01   -1.628E+01
    -1.572E+01   -1.516E+01   -1.460E+01   -1.405E+01   -1.351E+01   -1.298E+01   -1.246E+01   -1.194E+01   -1.143E+01   -1.094E+01
    -1.045E+01   -9.973E+00   -9.507E+00   -9.052E+00   -8.610E+00   -8.180E+00   -7.763E+00   -7.359E+00   -6.968E+00   -6.593E+00
    -6.232E+00   -5.885E+00   -5.554E+00   -5.237E+00   -4.933E+00   -4.644E+00   -4.368E+00   -4.105E+00   -3.855E+00   -3.617E+00
    -3.391E+00   -3.178E+00   -2.976E+00   -2.785E+00   -2.606E+00   -2.437E+00   -2.278E+00   -2.130E+00   -1.991E+00   -1.862E+00
    -1.742E+00   -1.631E+00   -1.529E+00   -1.435E+00   -1.348E+00   -1.270E+00   -1.199E+00   -1.135E+00   -1.077E+00   -1.027E+00
    -9.821E-01   -9.437E-01   -9.116E-01   -8.862E-01   -8.677E-01   -8.564E-01   -8.525E-01   -8.564E-01   -8.683E-01   -8.885E-01
    -9.172E-01   -9.547E-01   -1.001E+00   -1.057E+00   -1.123E+00   -1.198E+00   -1.284E+00   -1.380E+00   -1.486E+00   -1.604E+00
    -1.733E+00   -1.873E+00   -2.025E+00   -2.190E+00   -2.366E+00   -2.555E+00   -2.757E+00   -2.972E+00   -3.200E+00   -3.442E+00
    -3.698E+00   -3.968E+00   -4.250E+00   -4.545E+00   -4.852E+00   -5.169E+00   -5.497E+00   -5.834E+00   -6.180E+00   -6.534E+00
    -6.896E+00   -7.265E+00   -7.640E+00   -8.020E+00   -8.405E+00   -8.794E+00   -9.187E+00   -9.582E+00   -9.979E+00   -1.038E+01
    -1.078E+01   -1.118E+01   -1.157E+01   -1.197E+01   -1.236E+01   -1.276E+01   -1.314E+01   -1.353E+01   -1.391E+01   -1.428E+01
    -1.465E+01   -1.501E+01   -1.536E+01   -1.571E+01   -1.604E+01   -1.637E+01   -1.669E+01   -1.699E+01   -1.729E+01   -1.757E+01
    -1.784E+01   -1.810E+01   -1.834E+01   -1.857E+01   -1.878E+01   -1.898E+01   -1.917E+01   -1.933E+01   -1.948E+01   -1.961E+01
    -1.972E+01   -1.981E+01   -1.988E+01   -1.993E+01   -1.996E+01   -1.997E+01   -1.996E+01   -1.992E+01   -1.986E+01   -1.978E+01
    -1.967E+01   -1.953E+01   -1.937E+01   -1.919E+01   -1.900E+01   -1.878E+01   -1.854E+01   -1.829E+01   -1.802E+01   -1.774E+01
    -1.745E+01   -1.715E+01   -1.684E+01   -1.652E+01   -1.619E+01   -1.586E+01   -1.552E+01   -1.518E+01   -1.484E+01   -1.450E+01
    -1.416E+01   -1.383E+01   -1.350E+01   -1.317E+01   -1.285E+01   -1.254E+01   -1.224E+01   -1.195E+01   -1.167E+01   -1.141E+01
    -1.116E+01   -1.092E+01   -1.070E+01   -1.050E+01   -1.031E+01   -1.013E+01   -9.966E+00   -9.815E+00   -9.677E+00   -9.550E+00
    -9.435E+00   -9.332E+00   -9.239E+00   -9.157E+00   -9.085E+00   -9.023E+00   -8.970E+00   -8.926E+00   -8.891E+00   -8.864E+00
    -8.845E+00   -8.833E+00   -8.829E+00   -8.831E+00   -8.839E+00   -8.853E+00   -8.873E+00   -8.898E+00   -8.928E+00   -8.962E+00
    -9.000E+00   -9.041E+00   -9.086E+00   -9.135E+00   -9.186E+00   -9.241E+00   -9.298E+00   -9.357E+00   -9.418E+00   -9.482E+00
    -9.547E+00   -9.614E+00   -9.682E+00   -9.751E+00   -9.821E+00   -9.892E+00   -9.963E+00   -1.003E+01   -1.011E+01   -1.018E+01
    -1.025E+01   -1.032E+01   -1.039E+01   -1.046E+01   -1.052E+01   -1.059E+01   -1.065E+01   -1.071E+01   -1.077E+01   -1.083E+01
    -1.088E+01   -1.094E+01   -1.098E+01   -1.103E+01   -1.107E+01   -1.111E+01   -1.114E+01   -1.116E+01   -1.119E+01   -1.120E+01
    -1.121E+01   -1.121E+01   -1.121E+01   -1.120E+01   -1.118E+01   -1.116E+01   -1.112E+01   -1.108E+01   -1.103E+01   -1.097E+01
    -1.090E+01   -1.082E+01   -1.073E+01   -1.063E+01   -1.052E+01   -1.039E+01   -1.026E+01   -1.011E+01   -9.952E+00   -9.780E+00
    -9.596E+00   -9.398E+00   -9.188E+00   -8.966E+00   -8.732E+00   -8.486E+00   -8.228E+00   -7.959E+00   -7.680E+00   -7.389E+00
    -7.088E+00   -6.777E+00   -6.456E+00   -6.125E+00   -5.784E+00   -5.435E+00   -5.077E+00   -4.710E+00   -4.334E+00   -3.951E+00
    -3.559E+00   -3.160E+00   -2.754E+00   -2.341E+00   -1.921E+00   -1.494E+00   -1.061E+00   -6.219E-01   -1.772E-01    2.731E-01
     7.287E-01    1.189E+00    1.654E+00    2.124E+00    2.599E+00    3.077E+00    3.559E+00    4.045E+00    4.534E+00    5.027E+00
     5.523E+00    6.021E+00    6.522E+00    7.025E+00    7.531E+00    8.038E+00    8.547E+00    9.057E+00    9.569E+00    1.008E+01
     1.059E+01    1.111E+01    1.162E+01    1.214E+01    1.265E+01    1.317E+01    1.368E+01    1.419E+01    1.470E+01    1.521E+01
 Mac      Conc. = 2.56E-04
   1.53793E+02  1.49492E+02  1.45094E+02  1.40467E+02  1.35472E+02  1.30116E+02  1.24562E+02  1.19071E+02  1.13865E+02  1.09109E+02
   1.04728E+02  1.00283E+02  9.53381E+01  8.99654E+01  8.48839E+01  8.07925E+01  7.79786E+01  7.64590E+01  7.58776E+01  7.57081E+01
   7.53298E+01  7.42990E+01  7.24685E+01  7.01141E+01  6.77733E+01  6.55823E+01  6.35332E+01  6.16854E+01  5.99402E+01  5.81014E+01
   5.59592E+01  5.33278E+01  5.02251E+01  4.69652E+01  4.41127E+01  4.19631E+01  4.03535E+01  3.88458E+01  3.70938E+01  3.50481E+01
   3.28798E+01  3.08267E+01  2.89546E+01  2.72143E+01  2.54552E+01  2.34441E+01  2.09487E+01  1.79406E+01  1.46223E+01  1.12199E+01
   7.95645E+00  4.88566E+00  2.02817E+00 -4.68178E-01 -2.47829E+00 -3.99888E+00 -5.10052E+00 -5.77760E+00 -6.15919E+00 -6.50078E+00
  -7.06786E+00 -8.12327E+00 -9.66641E+00 -1.14958E+01 -1.34773E+01 -1.56257E+01 -1.76881E+01 -1.92178E+01 -1.99615E+01 -1.98889E+01
  -1.92246E+01 -1.83738E+01 -1.76540E+01 -1.73513E+01 -1.76024E+01 -1.84281E+01 -1.95967E+01 -2.08828E+01 -2.21753E+01 -2.33692E+01
  -2.43046E+01 -2.49121E+01 -2.51544E+01 -2.50895E+01 -2.48109E+01 -2.44216E+01 -2.40071E+01 -2.36343E+01 -2.33387E+01 -2.30702E+01
  -2.28331E+01 -2.27940E+01 -2.30750E+01 -2.38557E+01 -2.52073E+01 -2.70643E+01 -2.91239E+01 -3.11510E+01 -3.30569E+01 -3.48502E+01
  -3.66267E+01 -3.87692E+01 -4.17306E+01 -4.58785E+01 -5.10973E+01 -5.66832E+01 -6.16918E+01 -6.53289E+01 -6.71687E+01 -6.71608E+01
