 LCModel (Version 6.3-1N) Copyright: S.W. Provencher.          Ref.: Magn. Reson. Med. 30:672-679 (1993).                
 Slice_N1@19_18  28-Feb-2025 11:41:12
 27 lines in following concentration table = NCONC+1
    Conc.  %SD /Cr+PCr  Metabolite                                         
 2.51E-04   5% 2.2E-04 Mac                                                 
    4.382  27%   3.793 Cr                                                  
    4.861  24%   4.207 PCr                                                 
    7.293  13%   6.313 Ins                                                 
   10.379   8%   8.984 NAA                                                 
    5.397  16%   4.671 Tau                                                 
    1.735  64%   1.502 PCho                                                
    0.506 205%   0.438 GPC                                                 
    9.035  12%   7.820 Glu                                                 
    2.534  32%   2.193 Gln                                                 
    0.000 999%   0.000 Ala                                                 
    1.106 113%   0.957 Asc                                                 
    2.617  42%   2.265 Asp                                                 
    0.805  70%   0.697 GABA                                                
    0.611 127%   0.529 Glc                                                 
    1.368  35%   1.184 GSH                                                 
    1.177  59%   1.018 Lac                                                 
    1.804  33%   1.561 NAAG                                                
    0.472 250%   0.408 PE                                                  
    2.241  14%   1.940 GPC+PCho                                            
   12.183   7%  10.545 NAA+NAAG                                            
   11.568  12%  10.013 Glu+Gln                                             
    9.243   8%   8.000 Cr+PCr                                              
   12.183   7%  10.545 NAA+NAAG                                            
    9.243   8%   8.000 Cr+PCr                                              
   11.568  12%  10.013 Glu+Gln                                             
   6 lines in following misc. output table
  FWHM = 0.024 ppm    S/N =   4                                            
  Data shift = 0.024 ppm                                                   
  Ph: -80 deg       0.0 deg/ppm                                            
  alphaB,S = 9.9E-02,   3.2E-01                                            
   19 spline knots.   Ns = 5(1)                                            
   2 inflections.     1 extrema                                            
  480 points on ppm-axis = NY
      4.100000     4.091866     4.083733     4.075600     4.067466     4.059333     4.051199     4.043066     4.034933     4.026799
      4.018666     4.010532     4.002399     3.994265     3.986132     3.977998     3.969864     3.961731     3.953597     3.945463
      3.937330     3.929196     3.921062     3.912929     3.904795     3.896662     3.888528     3.880394     3.872261     3.864127
      3.855993     3.847860     3.839726     3.831592     3.823459     3.815325     3.807191     3.799058     3.790924     3.782790
      3.774657     3.766523     3.758389     3.750256     3.742122     3.733989     3.725855     3.717721     3.709588     3.701454
      3.693320     3.685187     3.677053     3.668919     3.660786     3.652652     3.644518     3.636385     3.628251     3.620117
      3.611984     3.603850     3.595716     3.587583     3.579449     3.571316     3.563182     3.555048     3.546915     3.538781
      3.530647     3.522514     3.514380     3.506246     3.498113     3.489979     3.481845     3.473712     3.465578     3.457444
      3.449311     3.441177     3.433043     3.424910     3.416776     3.408643     3.400509     3.392375     3.384242     3.376108
      3.367974     3.359841     3.351707     3.343573     3.335440     3.327306     3.319172     3.311039     3.302905     3.294771
      3.286638     3.278504     3.270370     3.262237     3.254103     3.245970     3.237836     3.229702     3.221569     3.213435
      3.205301     3.197168     3.189034     3.180900     3.172767     3.164633     3.156499     3.148366     3.140232     3.132098
      3.123965     3.115831     3.107697     3.099564     3.091430     3.083297     3.075163     3.067029     3.058896     3.050762
      3.042628     3.034495     3.026361     3.018227     3.010094     3.001960     2.993826     2.985693     2.977559     2.969425
      2.961292     2.953158     2.945024     2.936891     2.928757     2.920624     2.912490     2.904356     2.896223     2.888089
      2.879955     2.871822     2.863688     2.855554     2.847421     2.839287     2.831153     2.823020     2.814886     2.806752
      2.798619     2.790485     2.782351     2.774218     2.766084     2.757951     2.749817     2.741683     2.733550     2.725416
      2.717282     2.709149     2.701015     2.692881     2.684748     2.676614     2.668480     2.660347     2.652213     2.644079
      2.635946     2.627812     2.619678     2.611545     2.603411     2.595278     2.587144     2.579010     2.570877     2.562743
      2.554609     2.546476     2.538342     2.530208     2.522075     2.513941     2.505807     2.497674     2.489540     2.481406
      2.473273     2.465139     2.457006     2.448872     2.440738     2.432605     2.424471     2.416337     2.408204     2.400070
      2.391936     2.383803     2.375669     2.367535     2.359402     2.351268     2.343134     2.335001     2.326867     2.318733
      2.310600     2.302466     2.294333     2.286199     2.278065     2.269932     2.261798     2.253664     2.245531     2.237397
      2.229263     2.221130     2.212996     2.204862     2.196729     2.188595     2.180461     2.172328     2.164194     2.156060
      2.147927     2.139793     2.131660     2.123526     2.115392     2.107259     2.099125     2.090991     2.082858     2.074724
      2.066590     2.058457     2.050323     2.042189     2.034056     2.025922     2.017788     2.009655     2.001521     1.993387
      1.985254     1.977120     1.968987     1.960853     1.952719     1.944586     1.936452     1.928318     1.920185     1.912051
      1.903917     1.895784     1.887650     1.879516     1.871383     1.863249     1.855115     1.846982     1.838848     1.830714
      1.822581     1.814447     1.806314     1.798180     1.790046     1.781913     1.773779     1.765645     1.757512     1.749378
      1.741244     1.733111     1.724977     1.716843     1.708710     1.700576     1.692442     1.684309     1.676175     1.668041
      1.659908     1.651774     1.643641     1.635507     1.627373     1.619240     1.611106     1.602972     1.594839     1.586705
      1.578571     1.570438     1.562304     1.554170     1.546037     1.537903     1.529769     1.521636     1.513502     1.505368
      1.497235     1.489101     1.480968     1.472834     1.464700     1.456567     1.448433     1.440299     1.432166     1.424032
      1.415898     1.407765     1.399631     1.391497     1.383364     1.375230     1.367096     1.358963     1.350829     1.342695
      1.334562     1.326428     1.318295     1.310161     1.302027     1.293894     1.285760     1.277626     1.269493     1.261359
      1.253225     1.245092     1.236958     1.228824     1.220691     1.212557     1.204423     1.196290     1.188156     1.180022
      1.171889     1.163755     1.155622     1.147488     1.139354     1.131221     1.123087     1.114953     1.106820     1.098686
      1.090552     1.082419     1.074285     1.066151     1.058018     1.049884     1.041750     1.033617     1.025483     1.017349
      1.009216     1.001082     0.992949     0.984815     0.976681     0.968548     0.960414     0.952280     0.944147     0.936013
      0.927879     0.919746     0.911612     0.903478     0.895345     0.887211     0.879077     0.870944     0.862810     0.854676
      0.846543     0.838409     0.830276     0.822142     0.814008     0.805875     0.797741     0.789607     0.781474     0.773340
      0.765206     0.757073     0.748939     0.740805     0.732672     0.724538     0.716404     0.708271     0.700137     0.692003
      0.683870     0.675736     0.667603     0.659469     0.651335     0.643202     0.635068     0.626934     0.618801     0.610667
      0.602533     0.594400     0.586266     0.578132     0.569999     0.561865     0.553731     0.545598     0.537464     0.529330
      0.521197     0.513063     0.504930     0.496796     0.488662     0.480529     0.472395     0.464261     0.456128     0.447994
      0.439861     0.431727     0.423593     0.415460     0.407326     0.399192     0.391059     0.382925     0.374792     0.366658
      0.358524     0.350391     0.342257     0.334124     0.325990     0.317856     0.309723     0.301589     0.293455     0.285322
      0.277188     0.269055     0.260921     0.252787     0.244654     0.236520     0.228386     0.220253     0.212119     0.203986
 NY phased data points follow
  -2.11007E+00 -4.00182E-01 -2.79682E+00 -3.02473E+00 -3.85509E+00 -1.39122E+01  4.04264E+00  3.09317E+00  1.04554E+00  1.13962E+00
  -1.49048E+01 -2.52577E+01 -2.76816E+01 -2.43108E+01 -2.57060E+01 -3.22269E+01 -3.98253E+01 -4.21930E+01 -5.44462E+01 -7.80369E+01
  -8.70008E+01 -7.47352E+01 -4.89126E+01 -2.96329E+01 -1.22760E+00  2.43189E+01  1.56996E+01  2.03938E+01  3.33792E+01  2.56670E+01
   1.90301E+01  2.01131E+01  2.24447E+01  2.72653E+01  2.33712E+01  2.00030E+01  3.43677E+01  1.59700E+01  2.95872E+00 -1.56797E+00
  -2.78705E+01 -1.84586E+01 -2.54582E+01 -2.56563E+01  4.44721E-01  1.86554E+01  4.72966E+01  4.10921E+01  4.87554E+01  7.14411E+01
   5.97724E+01  5.75558E+01  5.02676E+01  3.29417E+01  2.33509E+01  1.48894E+01  7.91716E+00  6.09806E+00 -9.23832E+00 -1.52160E+01
   7.48466E+00  4.85379E+00  1.04066E+01  3.69026E+01  5.20439E+01  6.21854E+01  5.25351E+01  3.11418E+01  5.98263E+00 -1.47592E+01
  -1.67644E+01 -1.89631E+00  3.00256E+00  1.09833E+01  3.17082E+01  5.27984E+01  6.41659E+01  4.22452E+01  4.63363E+01  6.50785E+01
   5.95772E+01  5.78026E+01  5.31095E+01  4.17933E+01  2.95383E+01  2.27329E+01  2.32165E+01  3.60228E+01  5.00970E+01  6.56941E+01
   6.60686E+01  7.20713E+01  9.12899E+01  7.64631E+01  8.00670E+01  9.49148E+01  1.01429E+02  1.14639E+02  1.06063E+02  8.82596E+01
   8.02876E+01  8.81449E+01  7.37340E+01  5.89872E+01  6.20564E+01  2.99524E+01  2.21846E+01  3.47821E+01  1.60968E+01 -3.57649E+01
  -1.14263E+02 -1.26834E+02 -8.57902E+01 -6.35662E+01 -5.64831E+01 -3.98065E+01 -1.95730E+01 -3.31277E+00  8.14691E+00 -6.21747E-01
   1.77667E+01  2.52433E+01  2.15177E+01  3.37310E+01  3.83935E+01  6.21003E+01  7.36048E+01  8.48707E+01  1.05935E+02  1.32716E+02
   1.69488E+02  1.73352E+02  8.18692E+01 -2.83280E+01 -4.97651E+01 -5.61308E+01 -6.20838E+01 -6.31068E+01 -5.78863E+01 -4.23918E+01
  -4.12341E+01 -4.36219E+01 -4.55362E+01 -5.00468E+01 -5.31445E+01 -4.92892E+01 -5.01597E+01 -4.02666E+01 -4.45072E+01 -4.44016E+01
  -4.07905E+01 -4.73721E+01 -3.03994E+01 -2.38369E+01 -2.37594E+01 -3.18232E+01 -1.57904E+01 -3.41542E+00 -2.00090E+01 -1.40937E+01
  -9.97645E+00 -8.14406E+00 -1.00085E+01 -1.35461E+01 -7.65843E+00 -1.33773E+01 -2.58505E+01 -1.02869E+01 -6.67483E+00 -1.08506E+01
  -5.19268E+00  4.36977E+00  4.21996E+01  3.59986E+01  2.15200E+01  2.43254E+01  1.61214E+01  2.87426E+01  2.81431E+01  7.97918E+00
   1.94433E+00 -2.45882E-01 -2.01765E+01 -3.12430E+01 -4.63140E+01 -5.10554E+01 -4.06658E+01 -3.57805E+01 -2.41644E+01 -2.41827E+01
  -1.62689E+01 -1.37099E+01 -1.95124E+01 -1.82168E+01 -8.12728E-01  6.33251E+00 -1.74430E+01 -4.53952E+00  4.40743E+00 -2.48966E+00
   2.06776E+00 -5.63867E+00  1.34646E+01  1.80350E+01 -1.15306E+00  6.82798E+00 -2.66278E+00 -2.46846E+01 -3.74113E+01 -4.35239E+01
  -4.80673E+01 -5.86694E+01 -4.42040E+01 -2.31375E+01 -1.40203E+01  2.45079E+00  2.68874E+01  4.23045E+01  4.12435E+01  3.15332E+01
   1.99940E+01  4.71277E+00 -3.50562E+00  7.37143E+00  1.27781E+00  1.01322E+01  1.40408E+01 -6.14999E+00  1.30788E+01  1.25871E+00
  -8.62707E+00  1.07668E+01 -9.58870E+00 -1.71232E+01 -2.04131E+01 -4.36578E+01 -4.60069E+01 -4.24623E+01 -5.71682E+01 -6.04333E+01
  -5.59433E+01 -4.66532E+01 -3.80981E+01 -3.36861E+01 -1.63024E+01 -2.10264E+01 -1.62732E+01 -1.40054E+01 -3.13017E+01 -4.68342E+01
  -6.49104E+01 -5.57287E+01 -6.35099E+01 -7.79567E+01 -8.72954E+01 -1.07465E+02 -1.25161E+02 -5.04423E+01  1.08359E+02  1.48057E+02
   1.39753E+02  1.39639E+02  1.15240E+02  1.06569E+02  8.96487E+01  9.16228E+01  8.43685E+01  6.60498E+01  6.54270E+01  7.29317E+01
   6.64387E+01  5.99756E+01  7.23561E+01  7.08686E+01  6.25944E+01  5.73639E+01  6.80791E+01  7.52364E+01  7.01116E+01  6.48337E+01
   6.43734E+01  6.17742E+01  5.83061E+01  5.53847E+01  3.54890E+01  5.20258E+01  5.76816E+01  3.54575E+01  3.81998E+01  2.26971E+01
   2.11117E+01  2.26525E+01 -1.74951E+00 -1.41234E+00  4.49597E+00 -6.10365E+00 -1.87414E+01 -1.16087E+01 -1.19487E+01 -3.16595E+01
  -2.00681E+01 -1.61780E+01 -1.36670E+01 -1.55207E+01 -2.80914E+01 -1.08560E+01 -1.55600E+01 -1.50505E+01 -6.19250E+00 -3.59437E+00
   1.13669E+01  1.83206E+01  3.08098E+01  3.96176E+01  3.26231E+01  3.08479E+01  4.15884E+01  3.28317E+01  3.09946E+01  4.07586E+01
   3.77431E+01  3.77367E+01  3.04520E+01  3.08778E+01  4.55011E+01  4.80787E+01  4.13169E+01  4.75997E+01  5.51063E+01  7.65982E+01
   8.51784E+01  6.27072E+01  5.80516E+01  5.08489E+01  4.86362E+01  5.70035E+01  5.09144E+01  5.58695E+01  6.86859E+01  6.19184E+01
   6.54102E+01  6.90896E+01  6.40298E+01  5.97672E+01  5.25455E+01  7.44525E+01  8.39954E+01  8.20921E+01  7.49090E+01  5.55445E+01
   4.89894E+01  4.83738E+01  5.61501E+01  4.26723E+01  3.78125E+01  4.81615E+01  3.78625E+01  2.55120E+01  2.47394E+01  3.25057E+01
   3.28043E+01  3.09566E+01  3.29944E+01  3.18404E+01  3.96414E+01  5.76067E+01  6.02168E+01  5.88121E+01  6.43535E+01  5.67657E+01
   5.49688E+01  7.71160E+01  7.75154E+01  7.89598E+01  9.24253E+01  8.40008E+01  9.14133E+01  9.41526E+01  9.29518E+01  9.64698E+01
   1.14438E+02  1.20516E+02  1.13268E+02  1.44668E+02  1.37921E+02  1.32803E+02  1.55440E+02  1.54451E+02  1.53737E+02  1.64748E+02
   1.59420E+02  1.34248E+02  1.25005E+02  1.11935E+02  1.06520E+02  9.53052E+01  9.36164E+01  9.75646E+01  8.24468E+01  7.73988E+01
   5.86312E+01  5.74546E+01  4.73040E+01  2.59545E+01  2.65949E+01  1.11726E+01  7.92336E+00  1.68450E+01  1.64043E+01  4.28971E+00
  -1.36765E+00  1.46079E+01  1.09605E+01 -2.04076E+00 -4.58225E+00  1.20301E+00  1.60304E+00 -8.37817E+00  2.75130E+00 -3.43023E+00
  -7.35668E+00  7.75742E+00  1.52741E+00 -9.06771E+00 -7.01041E+00 -4.29406E+00 -9.37121E+00 -7.38016E-01 -9.07904E+00 -2.39434E+00
   6.25990E+00  1.71493E+00  6.95963E+00 -6.35450E+00  4.40106E+00 -1.11017E+00 -2.88490E+00  5.80598E+00  7.75467E+00  8.45414E+00
   8.13751E-01  1.59416E+01  9.81424E+00 -1.25735E+00 -1.25135E+01  5.50812E+00  1.04920E+01 -1.26523E+01  1.47712E+00  7.57926E+00
   9.12617E+00  3.85173E+00  4.04107E+00 -6.57387E+00 -8.97971E+00 -2.70923E+00 -6.10656E+00 -3.61270E-01 -1.28096E+01 -3.78866E-01
   3.90115E+00 -6.96301E+00 -2.41496E+00 -9.70877E+00 -1.94617E+00  3.65298E+00 -1.26327E+01 -4.91178E+00  5.96419E+00 -4.72912E+00
  -6.37634E+00 -5.08826E+00 -7.36102E-01  4.12448E+00  8.62437E+00  2.87458E+00 -3.13906E+00  3.74144E+00  2.27548E+00  2.47222E-01
 NY points of the fit to the data follow
  -1.61561E+01 -2.20778E+01 -2.86836E+01 -3.44055E+01 -3.28062E+01 -1.58895E+01  4.04925E+00  8.64803E+00  2.57486E+00 -3.79154E+00
  -1.00330E+01 -1.50746E+01 -1.80834E+01 -1.99236E+01 -2.19994E+01 -2.50906E+01 -3.21820E+01 -4.19058E+01 -5.40576E+01 -7.13816E+01
  -8.54938E+01 -7.32429E+01 -4.34199E+01 -2.83271E+01  2.57014E+00  3.17752E+01  3.21305E+01  3.43078E+01  3.84729E+01  3.94442E+01
   4.00287E+01  3.89058E+01  3.77533E+01  3.65165E+01  3.41739E+01  3.14695E+01  2.75969E+01  2.17347E+01  1.23573E+01 -2.14032E+00
  -2.04674E+01 -3.00367E+01 -2.16790E+01 -1.02560E+01  4.40700E+00  2.24660E+01  3.74704E+01  4.56477E+01  4.90644E+01  5.08551E+01
   5.01611E+01  4.77907E+01  4.32717E+01  3.54649E+01  2.26854E+01  8.54563E+00  1.81531E+00  3.11202E-01 -7.33715E+00 -1.22903E+01
   1.05712E+00  9.97883E+00  1.12885E+01  3.01815E+01  4.83525E+01  5.25519E+01  5.30479E+01  4.49352E+01  2.13211E+01 -5.19518E+00
  -9.09578E+00  2.21945E+00  3.98327E+00  1.22476E+01  3.28732E+01  4.66909E+01  5.42160E+01  5.97830E+01  6.38415E+01  6.54123E+01
   6.32008E+01  5.50510E+01  4.23263E+01  2.73391E+01  1.42047E+01  1.41381E+01  1.86977E+01  2.98193E+01  4.31982E+01  5.10686E+01
   5.75541E+01  6.30136E+01  6.73725E+01  7.17796E+01  7.65483E+01  8.07830E+01  8.45833E+01  8.76973E+01  8.75802E+01  8.39628E+01
   8.52899E+01  8.68591E+01  7.60706E+01  6.31238E+01  5.74254E+01  4.66410E+01  3.82343E+01  4.57182E+01  3.13953E+01 -3.05003E+01
  -1.06997E+02 -1.13879E+02 -8.21709E+01 -6.49245E+01 -4.52249E+01 -2.82606E+01 -1.85329E+01 -1.01053E+01 -2.48889E+00  4.51900E+00
   1.09491E+01  1.73477E+01  2.41659E+01  3.15827E+01  4.03508E+01  5.02994E+01  6.21632E+01  8.26901E+01  1.07971E+02  1.35657E+02
   1.64972E+02  1.68313E+02  8.71142E+01 -3.35814E+01 -6.58360E+01 -6.15701E+01 -6.55709E+01 -5.64553E+01 -4.84010E+01 -4.61373E+01
  -4.49969E+01 -4.46527E+01 -4.48608E+01 -4.47552E+01 -4.43923E+01 -4.45476E+01 -4.31335E+01 -4.04133E+01 -3.78430E+01 -3.50312E+01
  -3.25205E+01 -2.99920E+01 -2.78169E+01 -2.58375E+01 -2.31389E+01 -1.97828E+01 -1.73635E+01 -1.69711E+01 -1.72428E+01 -1.60634E+01
  -1.28162E+01 -9.53778E+00 -9.36977E+00 -1.29996E+01 -1.55384E+01 -1.50605E+01 -1.38678E+01 -1.32562E+01 -1.38100E+01 -1.28881E+01
  -6.35885E+00  7.23891E+00  2.03073E+01  1.98115E+01  9.86831E+00  8.73179E+00  1.99145E+01  2.71377E+01  2.07101E+01  5.27411E+00
  -7.70238E+00 -1.32537E+01 -1.86912E+01 -2.29633E+01 -2.48379E+01 -2.62373E+01 -2.69140E+01 -2.66057E+01 -2.59130E+01 -2.53219E+01
  -2.35433E+01 -2.02107E+01 -1.79764E+01 -1.40438E+01 -2.55232E+00  3.23198E+00 -2.63665E+00  1.58548E+00  8.08026E+00  7.09379E+00
   6.54080E+00  3.93720E+00  8.33406E+00  1.19218E+01  4.88916E+00 -2.13350E+00 -8.55536E+00 -1.57289E+01 -2.41537E+01 -3.07206E+01
  -3.62011E+01 -4.05901E+01 -3.98602E+01 -3.15927E+01 -1.72676E+01  3.52590E+00  3.07671E+01  4.07508E+01  4.22229E+01  4.37303E+01
   2.79627E+01  1.90351E+01  1.76976E+01  1.67729E+01  1.94616E+01  1.97885E+01  1.87841E+01  1.52524E+01  7.96648E+00 -3.17396E-01
  -9.78054E+00 -2.05614E+01 -3.08414E+01 -3.97015E+01 -4.85265E+01 -5.67020E+01 -6.06740E+01 -6.34632E+01 -6.47329E+01 -6.00441E+01
  -5.56480E+01 -5.21542E+01 -4.40561E+01 -3.88543E+01 -3.39628E+01 -2.91632E+01 -3.02000E+01 -3.04333E+01 -3.52953E+01 -4.37219E+01
  -4.84867E+01 -5.47536E+01 -7.00595E+01 -7.89149E+01 -8.50475E+01 -1.10073E+02 -1.36570E+02 -5.58356E+01  8.96338E+01  1.22283E+02
   1.18119E+02  1.20622E+02  1.05012E+02  9.26160E+01  8.56727E+01  8.02695E+01  7.49801E+01  6.95836E+01  6.47098E+01  6.07100E+01
   5.77908E+01  5.64580E+01  5.58831E+01  5.65458E+01  5.67737E+01  5.71344E+01  5.70053E+01  5.58111E+01  5.51518E+01  5.39348E+01
   5.23374E+01  5.03050E+01  4.80086E+01  4.59923E+01  4.42073E+01  4.20666E+01  3.97792E+01  3.77609E+01  3.55599E+01  3.29816E+01
   3.01199E+01  2.66353E+01  2.31574E+01  1.97166E+01  1.62186E+01  1.39021E+01  1.29470E+01  1.34230E+01  1.51721E+01  1.75529E+01
   1.99392E+01  2.25949E+01  2.56836E+01  2.86876E+01  3.13849E+01  3.39829E+01  3.64382E+01  3.88658E+01  4.16186E+01  4.48378E+01
   4.79316E+01  5.05413E+01  5.29005E+01  5.50801E+01  5.74529E+01  5.94669E+01  6.07342E+01  6.18442E+01  6.25048E+01  6.20020E+01
   6.10258E+01  6.00861E+01  5.86331E+01  5.65356E+01  5.44201E+01  5.18220E+01  4.83673E+01  4.35677E+01  3.66045E+01  2.90490E+01
   2.20965E+01  1.59729E+01  1.11658E+01  8.57671E+00  8.64464E+00  1.12583E+01  1.63394E+01  2.24323E+01  2.82820E+01  3.38120E+01
   3.75229E+01  3.75866E+01  3.41230E+01  3.20978E+01  3.17620E+01  3.23667E+01  3.88706E+01  4.32521E+01  4.57553E+01  4.85143E+01
   4.96958E+01  4.95601E+01  4.82745E+01  4.60587E+01  4.25186E+01  3.87153E+01  3.62285E+01  3.51102E+01  3.49818E+01  3.62836E+01
   3.85201E+01  4.13164E+01  4.47377E+01  4.83218E+01  5.20665E+01  5.56457E+01  5.86419E+01  6.16678E+01  6.44042E+01  6.72201E+01
   7.02819E+01  7.29669E+01  7.56597E+01  7.84776E+01  8.14673E+01  8.49842E+01  8.90365E+01  9.31984E+01  9.75571E+01  1.03170E+02
   1.09021E+02  1.14696E+02  1.21040E+02  1.28234E+02  1.35397E+02  1.41703E+02  1.46400E+02  1.47963E+02  1.45504E+02  1.38782E+02
   1.28722E+02  1.18238E+02  1.08775E+02  1.00761E+02  9.37932E+01  8.79856E+01  8.21298E+01  7.46949E+01  6.61725E+01  5.75439E+01
   4.89292E+01  4.09777E+01  3.49142E+01  3.02576E+01  2.64575E+01  2.34497E+01  2.15430E+01  1.99681E+01  1.85053E+01  1.69961E+01
   1.55820E+01  1.43724E+01  1.35647E+01  1.31217E+01  1.25627E+01  1.18281E+01  1.14084E+01  1.12284E+01  1.05704E+01  9.69181E+00
   9.43658E+00  9.58487E+00  9.08716E+00  8.34090E+00  8.08629E+00  7.83638E+00  7.33101E+00  6.69460E+00  6.36033E+00  6.35473E+00
   6.37045E+00  6.08073E+00  5.59937E+00  5.01318E+00  4.46231E+00  4.04872E+00  3.83268E+00  3.86237E+00  3.65159E+00  3.57398E+00
   3.33993E+00  3.01550E+00  2.82733E+00  2.57790E+00  2.08622E+00  1.50780E+00  1.14618E+00  8.53999E-01  8.34292E-01  6.86503E-01
   4.30620E-01  2.86000E-01 -2.07525E-01 -5.33495E-01 -4.81285E-01 -5.51833E-01 -6.60201E-01 -7.45767E-01 -9.14443E-01 -1.13951E+00
  -1.19383E+00 -1.31635E+00 -1.58873E+00 -2.14128E+00 -2.45222E+00 -2.67036E+00 -2.93447E+00 -2.88573E+00 -2.56543E+00 -2.25930E+00
  -2.26766E+00 -2.73376E+00 -3.30312E+00 -3.79429E+00 -3.87353E+00 -3.91299E+00 -4.04985E+00 -4.04563E+00 -4.03900E+00 -4.39300E+00
 NY background values follow
     9.187E+00    9.208E+00    9.229E+00    9.252E+00    9.276E+00    9.302E+00    9.330E+00    9.360E+00    9.393E+00    9.429E+00
     9.468E+00    9.511E+00    9.558E+00    9.609E+00    9.665E+00    9.726E+00    9.792E+00    9.864E+00    9.941E+00    1.003E+01
     1.012E+01    1.021E+01    1.032E+01    1.043E+01    1.055E+01    1.068E+01    1.082E+01    1.096E+01    1.112E+01    1.128E+01
     1.146E+01    1.164E+01    1.184E+01    1.204E+01    1.225E+01    1.248E+01    1.271E+01    1.294E+01    1.319E+01    1.344E+01
     1.370E+01    1.397E+01    1.424E+01    1.451E+01    1.480E+01    1.508E+01    1.538E+01    1.567E+01    1.597E+01    1.627E+01
     1.658E+01    1.689E+01    1.720E+01    1.751E+01    1.782E+01    1.814E+01    1.845E+01    1.877E+01    1.908E+01    1.940E+01
     1.971E+01    2.002E+01    2.033E+01    2.064E+01    2.095E+01    2.125E+01    2.155E+01    2.185E+01    2.215E+01    2.244E+01
     2.273E+01    2.301E+01    2.329E+01    2.356E+01    2.383E+01    2.409E+01    2.435E+01    2.460E+01    2.485E+01    2.509E+01
     2.532E+01    2.554E+01    2.576E+01    2.596E+01    2.616E+01    2.636E+01    2.654E+01    2.671E+01    2.687E+01    2.703E+01
     2.717E+01    2.731E+01    2.743E+01    2.754E+01    2.765E+01    2.774E+01    2.783E+01    2.790E+01    2.797E+01    2.803E+01
     2.808E+01    2.812E+01    2.815E+01    2.818E+01    2.819E+01    2.820E+01    2.820E+01    2.819E+01    2.818E+01    2.816E+01
     2.813E+01    2.809E+01    2.805E+01    2.800E+01    2.794E+01    2.788E+01    2.781E+01    2.774E+01    2.766E+01    2.757E+01
     2.748E+01    2.739E+01    2.729E+01    2.718E+01    2.707E+01    2.696E+01    2.684E+01    2.671E+01    2.658E+01    2.645E+01
     2.631E+01    2.617E+01    2.602E+01    2.587E+01    2.572E+01    2.556E+01    2.540E+01    2.524E+01    2.507E+01    2.490E+01
     2.473E+01    2.455E+01    2.437E+01    2.419E+01    2.400E+01    2.381E+01    2.362E+01    2.343E+01    2.324E+01    2.304E+01
     2.284E+01    2.264E+01    2.244E+01    2.223E+01    2.203E+01    2.182E+01    2.161E+01    2.140E+01    2.119E+01    2.098E+01
     2.076E+01    2.054E+01    2.033E+01    2.011E+01    1.989E+01    1.967E+01    1.945E+01    1.923E+01    1.900E+01    1.878E+01
     1.855E+01    1.833E+01    1.810E+01    1.787E+01    1.765E+01    1.742E+01    1.719E+01    1.696E+01    1.674E+01    1.651E+01
     1.628E+01    1.605E+01    1.582E+01    1.559E+01    1.536E+01    1.514E+01    1.491E+01    1.468E+01    1.446E+01    1.424E+01
     1.401E+01    1.379E+01    1.358E+01    1.336E+01    1.314E+01    1.293E+01    1.272E+01    1.251E+01    1.231E+01    1.210E+01
     1.190E+01    1.171E+01    1.152E+01    1.133E+01    1.114E+01    1.096E+01    1.078E+01    1.060E+01    1.043E+01    1.027E+01
     1.010E+01    9.947E+00    9.794E+00    9.644E+00    9.497E+00    9.353E+00    9.211E+00    9.070E+00    8.931E+00    8.792E+00
     8.653E+00    8.515E+00    8.375E+00    8.235E+00    8.092E+00    7.948E+00    7.801E+00    7.651E+00    7.498E+00    7.341E+00
     7.179E+00    7.013E+00    6.841E+00    6.664E+00    6.480E+00    6.289E+00    6.092E+00    5.886E+00    5.673E+00    5.451E+00
     5.221E+00    4.981E+00    4.732E+00    4.475E+00    4.209E+00    3.935E+00    3.654E+00    3.365E+00    3.069E+00    2.766E+00
     2.456E+00    2.139E+00    1.817E+00    1.488E+00    1.154E+00    8.147E-01    4.700E-01    1.205E-01   -2.337E-01   -5.921E-01
    -9.547E-01   -1.321E+00   -1.691E+00   -2.064E+00   -2.440E+00   -2.819E+00   -3.201E+00   -3.584E+00   -3.970E+00   -4.357E+00
    -4.746E+00   -5.135E+00   -5.523E+00   -5.907E+00   -6.287E+00   -6.660E+00   -7.024E+00   -7.379E+00   -7.721E+00   -8.050E+00
    -8.363E+00   -8.659E+00   -8.937E+00   -9.193E+00   -9.427E+00   -9.638E+00   -9.822E+00   -9.978E+00   -1.011E+01   -1.020E+01
    -1.027E+01   -1.029E+01   -1.029E+01   -1.024E+01   -1.015E+01   -1.003E+01   -9.856E+00   -9.640E+00   -9.377E+00   -9.066E+00
    -8.704E+00   -8.293E+00   -7.834E+00   -7.329E+00   -6.781E+00   -6.190E+00   -5.560E+00   -4.892E+00   -4.189E+00   -3.451E+00
    -2.682E+00   -1.883E+00   -1.056E+00   -2.039E-01    6.723E-01    1.570E+00    2.488E+00    3.424E+00    4.375E+00    5.340E+00
     6.317E+00    7.304E+00    8.298E+00    9.298E+00    1.030E+01    1.131E+01    1.231E+01    1.332E+01    1.432E+01    1.531E+01
     1.629E+01    1.727E+01    1.823E+01    1.919E+01    2.013E+01    2.106E+01    2.198E+01    2.289E+01    2.378E+01    2.466E+01
     2.552E+01    2.636E+01    2.719E+01    2.800E+01    2.880E+01    2.957E+01    3.033E+01    3.106E+01    3.177E+01    3.247E+01
     3.314E+01    3.378E+01    3.441E+01    3.501E+01    3.558E+01    3.613E+01    3.666E+01    3.715E+01    3.762E+01    3.806E+01
     3.848E+01    3.886E+01    3.922E+01    3.954E+01    3.984E+01    4.011E+01    4.035E+01    4.057E+01    4.076E+01    4.092E+01
     4.106E+01    4.117E+01    4.126E+01    4.131E+01    4.135E+01    4.136E+01    4.134E+01    4.130E+01    4.124E+01    4.115E+01
     4.104E+01    4.091E+01    4.075E+01    4.057E+01    4.037E+01    4.014E+01    3.990E+01    3.963E+01    3.934E+01    3.903E+01
     3.870E+01    3.835E+01    3.798E+01    3.759E+01    3.718E+01    3.676E+01    3.632E+01    3.587E+01    3.540E+01    3.492E+01
     3.443E+01    3.392E+01    3.341E+01    3.288E+01    3.235E+01    3.180E+01    3.125E+01    3.069E+01    3.013E+01    2.956E+01
     2.898E+01    2.841E+01    2.783E+01    2.724E+01    2.666E+01    2.608E+01    2.549E+01    2.491E+01    2.433E+01    2.376E+01
     2.318E+01    2.262E+01    2.205E+01    2.149E+01    2.094E+01    2.038E+01    1.984E+01    1.929E+01    1.875E+01    1.822E+01
     1.769E+01    1.716E+01    1.664E+01    1.612E+01    1.560E+01    1.509E+01    1.459E+01    1.408E+01    1.359E+01    1.309E+01
     1.261E+01    1.212E+01    1.164E+01    1.117E+01    1.070E+01    1.023E+01    9.769E+00    9.312E+00    8.859E+00    8.411E+00
     7.967E+00    7.528E+00    7.093E+00    6.662E+00    6.235E+00    5.812E+00    5.393E+00    4.976E+00    4.564E+00    4.154E+00
     3.747E+00    3.343E+00    2.942E+00    2.543E+00    2.146E+00    1.752E+00    1.359E+00    9.684E-01    5.793E-01    1.917E-01
    -1.946E-01   -5.798E-01   -9.639E-01   -1.347E+00   -1.730E+00   -2.112E+00   -2.494E+00   -2.876E+00   -3.257E+00   -3.640E+00
 Mac      Conc. = 2.51E-04
  -8.34577E+00 -8.97540E+00 -9.10369E+00 -9.23239E+00 -9.42791E+00 -9.88562E+00 -1.07555E+01 -1.21959E+01 -1.39538E+01 -1.55372E+01
  -1.66167E+01 -1.69544E+01 -1.68877E+01 -1.69517E+01 -1.73399E+01 -1.86077E+01 -2.06065E+01 -2.18532E+01 -2.01316E+01 -1.54785E+01
  -1.12930E+01 -8.34815E+00 -4.58618E+00 -1.63851E+00 -4.19574E-01  5.45078E-01  1.75538E+00  3.24134E+00  4.84262E+00  6.95847E+00
   8.94685E+00  1.02835E+01  1.13576E+01  1.23376E+01  1.27154E+01  1.24101E+01  1.23051E+01  1.31222E+01  1.53738E+01  1.81411E+01
   1.97987E+01  1.99559E+01  1.97939E+01  2.04814E+01  2.17664E+01  2.34358E+01  2.47530E+01  2.50745E+01  2.50178E+01  2.44445E+01
   2.34576E+01  2.24108E+01  2.18036E+01  2.13523E+01  2.08817E+01  2.09200E+01  2.10858E+01  2.17132E+01  2.32665E+01  2.48574E+01
   2.60597E+01  2.76196E+01  2.93715E+01  3.00372E+01  2.98640E+01  2.94670E+01  2.87182E+01  2.83954E+01  2.83599E+01  2.81409E+01
   2.81886E+01  2.96218E+01  3.24363E+01  3.50901E+01  3.67740E+01  3.80198E+01  3.85519E+01  3.82853E+01  3.79192E+01  3.71384E+01
   3.67310E+01  3.66038E+01  3.63157E+01  3.63761E+01  3.70533E+01  3.80485E+01  3.88816E+01  3.97015E+01  4.05995E+01  4.13644E+01
   4.18098E+01  4.24410E+01  4.29439E+01  4.31419E+01  4.32677E+01  4.28113E+01  4.13379E+01  3.93006E+01  3.71061E+01  3.48258E+01
   3.31038E+01  3.17961E+01  3.01605E+01  2.78096E+01  2.50275E+01  2.12030E+01  1.58086E+01  9.36449E+00  3.38713E+00  8.26501E-02
