 
 $NMID
 ID=''
 FMTDAT='(2E13.5)'
 TRAMP=   1.00000E+0
 VOLUME=   1.00000E+0
 $END
  -1.31246E+4   3.72614E+3
  -9.39261E+3  -3.52169E+3
  -7.57532E+3   7.38287E+3
   6.71004E+3   1.44383E+4
   1.34155E+4   2.39824E+3
   6.98353E+3  -1.32725E+4
  -4.78054E+3  -1.29019E+4
  -1.16587E+4   6.34125E+2
  -4.38708E+3   1.31657E+4
   9.29457E+3   1.16566E+4
   9.82882E+3  -1.60573E+3
  -1.43478E+2  -1.04702E+4
  -6.60372E+3  -4.83507E+3
  -8.12142E+3   5.10742E+3
  -2.59786E+3   6.39434E+3
   7.19697E+3   4.19584E+2
   7.43042E+3  -4.20712E+3
  -2.14787E+3  -4.42353E+3
  -6.62588E+3  -1.98733E+3
  -2.28031E+3   3.01778E+3
   2.57632E+3   4.80775E+3
   4.77586E+3   1.25019E+2
   2.78330E+3  -4.01354E+3
  -2.74682E+3  -2.40618E+3
  -4.80862E+3   7.30193E+2
  -4.63893E+2   2.39965E+3
   3.48111E+3   3.32917E+3
   1.95705E+3   3.17066E+2
  -1.29700E+3  -3.72610E+3
  -2.07598E+3  -2.58775E+3
  -1.14272E+3   1.89489E+3
   5.65911E+1   3.31787E+3
   2.59269E+2   1.12181E+3
   1.21126E+2  -2.20842E+3
   3.24934E+2  -3.41753E+3
   6.29885E+2  -6.11147E+2
  -6.22055E+2   2.43325E+3
  -7.03517E+2   2.02882E+3
   1.13695E+3  -3.25874E+2
   7.40860E+2  -9.32856E+2
  -1.59456E+3  -3.08514E+2
  -1.13119E+3  -7.79663E+2
   1.19543E+3   3.12909E+1
   1.47149E+3   9.50280E+2
   6.36284E+2   7.02569E+1
   8.64345E+1   1.51568E+2
  -7.81138E+2   1.04619E+3
  -1.77717E+3   7.29252E+2
  -8.24069E+2  -9.67804E+2
   1.24201E+3  -7.72904E+2
   7.26414E+2  -2.93799E+2
  -2.67773E+2  -4.49795E+2
   2.14941E+1  -2.14424E+2
   5.50317E+2   8.93716E+2
   6.06390E+2   8.28759E+2
  -3.05396E+1   1.46037E+1
  -4.92683E+2  -1.20737E+3
  -1.00858E+2  -1.16829E+3
   4.75736E+2   8.91223E+1
   3.08613E+2   9.28299E+2
   5.27975E+2   8.10810E+2
   8.03961E+2   6.88306E+2
  -4.48355E+0   5.23150E+2
  -1.84265E+3  -1.58698E+2
  -1.74920E+3  -9.22626E+2
  -1.74975E+2  -7.02254E+2
   7.92021E+2  -5.69104E+1
   1.18503E+3  -8.26946E+1
   9.91579E+2  -1.67008E+2
  -1.81657E+2   1.24320E+2
  -5.01808E+2  -1.17856E+1
   5.14269E+2   3.86697E+1
   1.00376E+3   8.52100E+2
   2.07821E+2   7.78580E+2
  -7.99849E+2  -2.22459E+2
  -2.50551E+2  -6.18166E+2
  -6.25790E+0   1.40740E+2
  -1.53525E+2   6.03014E+2
  -6.12429E+2   2.27991E+2
  -1.03635E+2  -3.62996E+2
   2.99202E+2  -7.56549E+2
   2.50419E+0  -1.62856E+2
   1.30369E+2   1.96616E+2
   3.56458E+2   2.28852E+2
   6.68455E+2  -4.37051E+2
   3.27333E+2  -2.44061E+2
   2.12282E+2   5.72948E+2
  -1.58144E+2   5.24835E+2
   1.67223E+2   5.67778E+1
   3.88651E+2   9.50665E+1
   2.67411E+2   1.61242E+2
  -4.43206E+2   7.68717E+1
  -8.18313E+2   3.29870E+1
  -5.88188E+2  -5.02551E+2
   6.42700E+2  -6.23268E+2
   9.34900E+2  -1.54889E+2
   4.25887E+2   7.78049E+1
  -3.55243E+2  -1.23562E+2
   8.79017E+0  -2.32954E+2
   4.38169E+2   3.89943E+2
   1.44552E+2   6.78483E+2
  -8.02616E+2   1.70521E+2
  -2.02093E+2  -9.82686E+2
   5.14555E+2  -4.95199E+2
   2.95102E+2   3.33845E+2
  -2.24467E+2   7.64360E+2
  -6.36799E+2   2.08570E+2
  -2.72767E+2  -7.00598E+2
   1.54437E+2  -8.49431E+2
   3.93527E+2  -1.04802E+2
   4.75779E+2   4.77748E+2
  -3.88802E+2   4.58480E+2
  -5.40649E+2   6.64199E+1
  -7.63643E+1  -1.26688E+2
  -1.87035E+2  -1.97196E+2
  -4.18376E+2  -4.24394E+2
  -3.28263E+2  -2.18999E+2
   8.65545E+1  -8.28153E+2
   7.10424E+2  -3.15730E+2
   6.33287E+2   5.39899E+2
  -1.12120E+2   4.28391E+2
  -2.13156E+2   9.92065E+1
  -2.94366E+2   2.65362E+2
  -1.67173E+2   1.74639E+2
  -4.64014E+2  -1.13987E+2
  -3.88060E+2  -5.07243E+2
   2.42379E+2  -1.69902E+2
   1.55101E+2   3.02058E+2
  -2.46872E+2   3.00681E+2
  -4.59603E+2   1.53748E+2
  -4.21456E+2  -2.17739E+2
   1.14616E+2  -3.46065E+2
   1.51063E+2  -3.57272E+1
   1.30821E+2   1.85911E+2
   3.73488E+2  -1.43071E+2
   5.20795E+1  -1.29542E+2
   2.78657E+2   1.57835E+2
  -1.00183E+2   2.90497E+2
  -3.44484E+2   7.85625E+1
  -3.72854E+2  -2.26484E+2
   1.14791E+1  -3.57366E+2
   5.12304E+2   1.79697E+2
   1.56462E+2   5.36588E+2
  -4.24389E+2   3.37446E+2
  -6.29765E+2  -3.00971E+2
  -2.22617E+1  -5.70567E+2
   1.92165E+2  -4.36959E+2
   6.46320E+1   8.07204E+1
   2.90551E+2  -4.49090E+2
   1.11665E+2  -3.23233E+2
   3.02050E+2   9.51492E+1
   2.16885E+2   3.93879E+2
  -3.07693E+2   4.41935E+2
  -2.88731E+2   1.60765E+2
  -4.07928E+1   3.63640E+1
   1.20103E+2   6.02161E+1
  -3.23097E+2   4.87952E+1
  -3.86711E+2  -1.06193E+2
  -1.53647E+2  -3.66778E+2
  -2.40149E+2  -1.77928E+2
  -2.35499E+2  -1.56219E+2
  -3.45975E+1  -9.36488E+1
   1.11904E+2  -4.76347E+1
   1.16781E+2  -1.79049E+2
   4.14210E+2   3.47731E+2
  -2.70700E+1   2.40027E+2
  -4.13697E+2   1.47186E+2
  -5.64923E+1   5.02381E+1
   2.69150E+1  -2.84090E+2
   2.22996E+2  -8.33227E+1
   1.92408E+1   2.34923E+2
  -8.71049E+1   3.24227E+1
  -7.75939E+1  -9.90148E+0
   2.87393E+2   2.95794E+1
   2.16539E+0   3.10863E+2
  -3.46790E+2  -4.24478E+1
  -2.82527E+2  -3.40351E+2
   9.90956E+1  -3.94138E+2
   3.97283E+2   2.45479E+2
  -6.85681E+1   5.37694E+2
  -4.12788E+2   2.16013E+2
  -2.15346E+2  -2.78143E+2
   2.51066E+1  -2.98692E+2
   3.22543E+2   1.10200E+2
   2.37967E+2   3.01900E+1
  -1.23296E+2  -3.30553E+1
   1.16497E+2  -7.90581E-1
   2.55560E+2   2.44476E+2
   9.70408E+0   2.98468E+2
  -4.20273E+2   4.51347E+2
  -3.15853E+2  -2.61727E+2
   1.53158E+1  -8.45043E+2
   2.70986E+2  -2.30603E+2
   1.80504E+2   1.42244E+2
  -1.48313E+2   2.55366E+2
   6.64621E+1  -6.61164E+1
  -5.72518E+1  -1.25265E+2
   4.53031E+1   1.46554E+2
  -1.71662E+2  -2.30028E+2
  -1.60411E+2  -2.31828E+2
   9.25113E+1  -3.70469E+2
   3.63450E+2   6.93057E+1
   1.51012E+2   3.08145E+2
  -1.82365E+2   3.60896E+2
  -1.87662E+2  -1.51161E+2
  -4.10746E+0  -3.37409E+2
  -3.98634E+1  -3.27062E+1
  -1.26035E+2  -2.63327E+1
  -2.00587E+2   1.26362E+2
  -9.08177E+1  -2.09373E+2
   9.92615E+1   1.90201E+2
   7.41256E+1  -3.68309E+1
  -2.49738E+2   1.48642E+2
  -4.87674E+2  -2.37374E+2
  -9.11582E+1  -5.53849E+2
   4.81767E+2  -2.68542E+2
   1.79966E+2   4.95383E+1
  -2.13289E+2   1.90890E+2
   2.47882E+2   4.44982E+1
   9.04572E+1   1.50619E+1
   8.14634E+1   3.07595E+2
  -2.36209E+2   9.29993E+1
  -4.11060E+2  -1.18245E+2
   7.41195E+1  -3.21926E+1
   3.83275E+2  -3.50745E+2
   1.42065E+1   3.61280E+2
  -2.24826E+2   1.66501E+2
  -2.60529E+2  -1.14689E+2
  -2.69991E+1  -1.79546E+2
   7.67384E+1  -1.69973E+2
   7.40003E+1   1.58307E+2
  -3.35740E+1  -5.46187E+1
  -1.54549E+2  -1.12162E+2
   3.54162E+1  -1.42564E+2
   1.02193E+2   4.19305E+1
  -1.36259E+2   7.43500E+1
  -5.25402E+1  -1.28309E+2
  -1.75716E+1   4.98172E+1
   1.81216E+2   2.67705E+2
  -4.40729E+0   6.97730E+1
  -9.96178E+1   1.37936E+2
  -5.58591E+1  -1.83628E+1
  -1.66281E+2  -7.40458E+1
   1.70764E+2   1.38592E+2
   2.99161E+2  -1.47113E+1
  -1.02652E+2   2.36660E+2
  -8.61396E+1  -2.02760E+2
   2.21654E+2  -1.13226E+2
  -2.09651E+1   1.44421E+2
  -1.48136E+2   2.76264E+2
  -8.29747E+1   1.00494E+1
   1.93197E+1  -3.46561E+2
   1.18926E+2   4.76277E+1
   3.88876E+1   2.28444E+2
   1.88039E+1   2.38805E+2
  -1.13334E+2   2.67309E+2
  -2.08601E+2  -2.73607E+1
   4.74672E+1   5.39026E+1
  -3.92209E-1  -4.04684E+0
  -7.47878E+1   4.53363E+1
  -1.23598E+1   4.14918E+1
   1.31063E+2  -1.15595E+2
   2.69088E+2   2.00594E+2
  -3.22832E+1   1.26235E+2
  -3.34445E+2   7.45072E+1
  -7.98732E+0  -3.62918E+1
   6.42243E+1  -1.35630E+2
   1.51833E+2   1.23890E+2
   6.19446E+1   4.08256E+2
   4.09568E+1  -1.92164E+2
   2.35018E+2  -2.28687E+0
  -1.02923E+1   2.04814E+2
   8.93472E+1   2.34821E+1
  -4.13960E+1  -1.81393E+2
   2.42399E+0  -2.01721E+2
   1.14972E+2   2.52567E+1
   4.43930E+1   1.80478E+1
   5.81537E+1  -1.04495E+2
  -1.45228E+1  -7.16802E+1
   1.66289E+2  -4.24912E+1
   1.07348E+2  -1.45016E+2
   1.08730E+2   2.84454E+2
   4.47800E+1  -2.64679E+2
   1.43007E+1  -2.18053E+1
   2.05212E+2  -1.56143E+2
   1.32141E+2   1.61453E+2
   1.69950E+2   7.31020E+1
  -8.24998E+1   1.08680E+2
  -1.42087E+2   8.81939E+1
   3.20133E+1   2.20945E+2
   1.33956E+2  -1.77821E+2
  -3.80184E+1   1.60329E+1
   6.13873E+1   2.15213E+2
   1.76301E+2  -9.68423E+1
   1.67017E+2  -1.62793E+1
  -1.19084E+2  -6.08756E+1
  -1.08817E+2  -4.52365E+1
  -2.06755E+2  -7.77875E+1
  -5.33520E+1  -2.07361E+2
   2.12241E+2  -9.81508E+1
   5.25449E+1   1.52734E+2
  -9.38967E+1   5.94058E+1
  -7.76222E+1   2.41525E+1
   1.79679E+2  -1.08051E+2
   1.66983E+2   2.17780E+2
   1.64242E+2  -1.54163E+1
   1.37979E+2   5.87765E+1
  -3.46685E+2   8.29777E+1
  -1.09690E+0  -3.89672E+1
  -9.58570E+1   2.35260E+2
   1.04605E+1  -4.23268E+1
  -7.99460E+1  -1.25794E+2
   5.47137E+1  -5.23126E+1
  -1.00912E+2   7.43296E+1
   1.50918E+2   7.51518E+1
   3.72938E+1   6.17921E+1
  -9.87821E+1  -2.47464E+1
  -1.30283E+2   1.43157E+2
  -2.01007E+1  -1.57021E+2
   1.32952E+2   1.01208E+2
  -1.37539E+2  -3.70556E+1
   2.33261E+2   3.84205E+2
  -3.46826E+1   7.11050E+1
  -5.09489E+1  -8.80592E+1
  -1.00849E+2   1.56185E+2
  -1.66188E+2   1.79260E+2
  -1.18143E+2   7.17193E+0
   1.80013E+2   5.92005E+1
   1.16961E+2   8.65259E-1
   9.34456E+1   2.51972E+2
   7.02920E+1   2.53030E+2
   1.09329E+2  -1.06403E+2
   1.09952E+1   3.26852E+1
   4.23310E+1  -5.70091E+1
  -4.55880E+1  -4.74444E+1
  -1.23655E+2  -4.74876E+1
   5.22558E+1  -8.09334E+1
   4.42138E+2  -1.67928E+2
   5.48281E+1  -7.57984E+0
  -7.33327E+1   2.46760E+2
  -1.42353E+2   7.80957E+1
   1.34334E+2   8.48143E+1
   1.91905E+2  -4.74943E+1
  -1.85197E+1   6.67893E+1
  -1.70650E+2  -4.22990E+1
  -2.28198E+2  -1.16054E+2
  -1.28399E+2   8.09320E+1
   7.94350E+1   6.93916E+1
  -3.46302E+1   1.82791E+2
   5.97256E+1   1.80756E+1
   3.48226E+1  -1.56991E+1
   6.36758E+0  -3.73858E+1
  -1.48760E+2  -3.04720E+1
   7.04274E+1   1.47168E+2
  -2.93281E+1   2.73845E+2
  -3.38770E+1  -1.84053E+1
   1.36024E+2   1.25284E+1
  -8.14673E+1   9.79943E+1
  -1.27629E+2   4.75922E+1
   1.59255E+2  -6.82000E+1
   2.25791E+2  -1.12706E+2
  -7.71897E+1   2.35227E+2
   1.41030E+2   3.99850E+1
  -2.16805E+2  -1.10469E+2
  -4.72978E+1  -2.97041E+2
  -1.62212E+2  -8.90804E+1
   4.83572E+1  -3.19074E+2
