 LCModel (Version 6.3-1N) Copyright: S.W. Provencher.          Ref.: Magn. Reson. Med. 30:672-679 (1993).                
 Slice_N1@14_19  28-Feb-2025 11:40:30
 27 lines in following concentration table = NCONC+1
    Conc.  %SD /Cr+PCr  Metabolite                                         
 2.02E-04   5% 1.8E-04 Mac                                                 
    4.947  29%   4.487 Cr                                                  
    3.874  37%   3.513 PCr                                                 
    5.946  13%   5.393 Ins                                                 
    9.852   7%   8.935 NAA                                                 
    6.846  12%   6.209 Tau                                                 
    0.996  97%   0.903 PCho                                                
    1.538  59%   1.395 GPC                                                 
    7.758  11%   7.036 Glu                                                 
    2.969  24%   2.692 Gln                                                 
    0.000 999%   0.000 Ala                                                 
    3.086  37%   2.799 Asc                                                 
    2.544  38%   2.307 Asp                                                 
    0.990  51%   0.898 GABA                                                
    0.330 215%   0.300 Glc                                                 
    1.400  31%   1.270 GSH                                                 
    5.980  10%   5.423 Lac                                                 
    0.958  58%   0.869 NAAG                                                
    1.345  76%   1.220 PE                                                  
    2.534  11%   2.298 GPC+PCho                                            
   10.810   6%   9.804 NAA+NAAG                                            
   10.727  10%   9.728 Glu+Gln                                             
    8.821   7%   8.000 Cr+PCr                                              
   10.810   6%   9.804 NAA+NAAG                                            
    8.821   7%   8.000 Cr+PCr                                              
   10.727  10%   9.728 Glu+Gln                                             
   6 lines in following misc. output table
  FWHM = 0.033 ppm    S/N =   4                                            
  Data shift = 0.024 ppm                                                   
  Ph:-110 deg       0.0 deg/ppm                                            
  alphaB,S = 2.8E-01,   1.8E+01                                            
   19 spline knots.   Ns = 5(1)                                            
  ( 4) 4 infls.   ( 3) 1 extrs.                                            
  480 points on ppm-axis = NY
      4.100000     4.091866     4.083733     4.075600     4.067466     4.059333     4.051199     4.043066     4.034933     4.026799
      4.018666     4.010532     4.002399     3.994265     3.986132     3.977998     3.969864     3.961731     3.953597     3.945463
      3.937330     3.929196     3.921062     3.912929     3.904795     3.896662     3.888528     3.880394     3.872261     3.864127
      3.855993     3.847860     3.839726     3.831592     3.823459     3.815325     3.807191     3.799058     3.790924     3.782790
      3.774657     3.766523     3.758389     3.750256     3.742122     3.733989     3.725855     3.717721     3.709588     3.701454
      3.693320     3.685187     3.677053     3.668919     3.660786     3.652652     3.644518     3.636385     3.628251     3.620117
      3.611984     3.603850     3.595716     3.587583     3.579449     3.571316     3.563182     3.555048     3.546915     3.538781
      3.530647     3.522514     3.514380     3.506246     3.498113     3.489979     3.481845     3.473712     3.465578     3.457444
      3.449311     3.441177     3.433043     3.424910     3.416776     3.408643     3.400509     3.392375     3.384242     3.376108
      3.367974     3.359841     3.351707     3.343573     3.335440     3.327306     3.319172     3.311039     3.302905     3.294771
      3.286638     3.278504     3.270370     3.262237     3.254103     3.245970     3.237836     3.229702     3.221569     3.213435
      3.205301     3.197168     3.189034     3.180900     3.172767     3.164633     3.156499     3.148366     3.140232     3.132098
      3.123965     3.115831     3.107697     3.099564     3.091430     3.083297     3.075163     3.067029     3.058896     3.050762
      3.042628     3.034495     3.026361     3.018227     3.010094     3.001960     2.993826     2.985693     2.977559     2.969425
      2.961292     2.953158     2.945024     2.936891     2.928757     2.920624     2.912490     2.904356     2.896223     2.888089
      2.879955     2.871822     2.863688     2.855554     2.847421     2.839287     2.831153     2.823020     2.814886     2.806752
      2.798619     2.790485     2.782351     2.774218     2.766084     2.757951     2.749817     2.741683     2.733550     2.725416
      2.717282     2.709149     2.701015     2.692881     2.684748     2.676614     2.668480     2.660347     2.652213     2.644079
      2.635946     2.627812     2.619678     2.611545     2.603411     2.595278     2.587144     2.579010     2.570877     2.562743
      2.554609     2.546476     2.538342     2.530208     2.522075     2.513941     2.505807     2.497674     2.489540     2.481406
      2.473273     2.465139     2.457006     2.448872     2.440738     2.432605     2.424471     2.416337     2.408204     2.400070
      2.391936     2.383803     2.375669     2.367535     2.359402     2.351268     2.343134     2.335001     2.326867     2.318733
      2.310600     2.302466     2.294333     2.286199     2.278065     2.269932     2.261798     2.253664     2.245531     2.237397
      2.229263     2.221130     2.212996     2.204862     2.196729     2.188595     2.180461     2.172328     2.164194     2.156060
      2.147927     2.139793     2.131660     2.123526     2.115392     2.107259     2.099125     2.090991     2.082858     2.074724
      2.066590     2.058457     2.050323     2.042189     2.034056     2.025922     2.017788     2.009655     2.001521     1.993387
      1.985254     1.977120     1.968987     1.960853     1.952719     1.944586     1.936452     1.928318     1.920185     1.912051
      1.903917     1.895784     1.887650     1.879516     1.871383     1.863249     1.855115     1.846982     1.838848     1.830714
      1.822581     1.814447     1.806314     1.798180     1.790046     1.781913     1.773779     1.765645     1.757512     1.749378
      1.741244     1.733111     1.724977     1.716843     1.708710     1.700576     1.692442     1.684309     1.676175     1.668041
      1.659908     1.651774     1.643641     1.635507     1.627373     1.619240     1.611106     1.602972     1.594839     1.586705
      1.578571     1.570438     1.562304     1.554170     1.546037     1.537903     1.529769     1.521636     1.513502     1.505368
      1.497235     1.489101     1.480968     1.472834     1.464700     1.456567     1.448433     1.440299     1.432166     1.424032
      1.415898     1.407765     1.399631     1.391497     1.383364     1.375230     1.367096     1.358963     1.350829     1.342695
      1.334562     1.326428     1.318295     1.310161     1.302027     1.293894     1.285760     1.277626     1.269493     1.261359
      1.253225     1.245092     1.236958     1.228824     1.220691     1.212557     1.204423     1.196290     1.188156     1.180022
      1.171889     1.163755     1.155622     1.147488     1.139354     1.131221     1.123087     1.114953     1.106820     1.098686
      1.090552     1.082419     1.074285     1.066151     1.058018     1.049884     1.041750     1.033617     1.025483     1.017349
      1.009216     1.001082     0.992949     0.984815     0.976681     0.968548     0.960414     0.952280     0.944147     0.936013
      0.927879     0.919746     0.911612     0.903478     0.895345     0.887211     0.879077     0.870944     0.862810     0.854676
      0.846543     0.838409     0.830276     0.822142     0.814008     0.805875     0.797741     0.789607     0.781474     0.773340
      0.765206     0.757073     0.748939     0.740805     0.732672     0.724538     0.716404     0.708271     0.700137     0.692003
      0.683870     0.675736     0.667603     0.659469     0.651335     0.643202     0.635068     0.626934     0.618801     0.610667
      0.602533     0.594400     0.586266     0.578132     0.569999     0.561865     0.553731     0.545598     0.537464     0.529330
      0.521197     0.513063     0.504930     0.496796     0.488662     0.480529     0.472395     0.464261     0.456128     0.447994
      0.439861     0.431727     0.423593     0.415460     0.407326     0.399192     0.391059     0.382925     0.374792     0.366658
      0.358524     0.350391     0.342257     0.334124     0.325990     0.317856     0.309723     0.301589     0.293455     0.285322
      0.277188     0.269055     0.260921     0.252787     0.244654     0.236520     0.228386     0.220253     0.212119     0.203986
 NY phased data points follow
  -5.38543E+01 -6.42828E+01 -5.96254E+01 -7.12674E+01 -8.05879E+01 -5.55587E+01 -6.58328E+01 -6.24944E+01 -5.97411E+01 -6.41767E+01
  -5.16078E+01 -7.01791E+01 -7.90811E+01 -7.48432E+01 -7.21213E+01 -7.11418E+01 -8.42544E+01 -8.18622E+01 -6.69747E+01 -9.18969E+01
  -1.25539E+02 -1.02205E+02 -9.35722E+01 -9.71949E+01 -5.24837E+01 -5.30202E+01 -4.47264E+01 -2.58279E+01 -2.94807E+01 -2.28423E+01
  -2.93706E+01 -1.22303E+01 -1.28873E+01 -2.71925E+01 -3.17555E+01 -1.30217E+01 -1.75815E+00 -2.80687E+01 -2.89034E+01 -4.40308E+01
  -5.90759E+01 -7.03779E+01 -5.80450E+01 -7.11040E+01 -8.30127E+01 -4.03625E+01 -2.40387E+01 -3.00419E+00 -8.71410E+00 -6.53856E-01
   3.60989E-01 -1.16643E+01  7.15074E+00 -1.82249E+01 -1.58506E+01 -1.50194E+01 -2.68199E+01 -3.51896E+01 -5.47638E+01 -5.58878E+01
  -3.86271E+01 -3.09052E+01 -5.60951E+01 -2.35724E+01  1.99374E+00 -8.78460E+00  1.96491E+01  8.69407E+00 -9.83341E+00 -3.26563E+01
  -3.85205E+01 -1.83352E+01 -3.85087E+01 -2.06663E+01 -1.55941E+00  3.19621E+00  1.82882E+01  7.95527E+00  2.20450E+01  1.88019E+01
   1.50740E+01  1.88173E+01  3.26489E+00 -1.03682E+01 -2.59414E+01 -2.04043E+01 -1.97209E+01 -2.83737E+01 -1.90384E+01  6.38283E+00
   2.03195E+01  1.63661E+01  2.86700E+01  3.11547E+01  3.43575E+01  4.17224E+01  3.17802E+01  4.98720E+01  5.26827E+01  2.49813E+01
   3.90480E+01  3.42698E+01  1.89597E+01  1.64758E+01  7.97427E+00  3.88948E+00 -1.39345E+01 -2.07420E+01 -2.57595E+01 -5.23602E+01
  -1.11114E+02 -1.51895E+02 -1.46798E+02 -1.31874E+02 -1.00980E+02 -8.29428E+01 -6.10098E+01 -4.55583E+01 -4.20118E+01 -3.96958E+01
  -4.42214E+01 -4.23769E+01 -3.84937E+01 -2.00342E+01 -1.00306E+01 -6.14949E+00  5.24204E+00  6.95058E+00  1.17175E+01  3.21454E+01
   7.74561E+01  9.85851E+01  3.85570E+01 -3.70898E+01 -5.94457E+01 -7.44579E+01 -1.05774E+02 -1.14611E+02 -8.88713E+01 -8.88036E+01
  -9.26137E+01 -8.13997E+01 -8.79296E+01 -7.90125E+01 -7.47525E+01 -7.43074E+01 -7.02020E+01 -8.53303E+01 -8.30350E+01 -6.62645E+01
  -7.44571E+01 -6.74943E+01 -5.08353E+01 -6.65065E+01 -4.83177E+01 -4.93909E+01 -6.00690E+01 -4.04164E+01 -5.41881E+01 -4.78063E+01
  -3.62580E+01 -4.11501E+01 -4.47830E+01 -5.41911E+01 -4.78666E+01 -4.07215E+01 -3.21937E+01 -3.55551E+01 -4.12961E+01 -4.14320E+01
  -4.98693E+01 -3.21770E+01 -1.14009E+01 -1.99458E+01 -1.88270E+01 -2.34380E+01 -1.86468E+01  6.64196E+00 -4.90618E+00 -2.87706E+01
  -3.11854E+01 -2.77269E+01 -3.43557E+01 -3.77416E+01 -4.21551E+01 -6.10306E+01 -5.74764E+01 -5.98355E+01 -6.17224E+01 -4.54821E+01
  -4.09363E+01 -3.55688E+01 -4.13829E+01 -4.02463E+01 -2.37320E+01 -3.29200E+01 -3.17795E+01 -2.65776E+01 -3.05126E+01 -1.96114E+01
  -2.32208E+01 -2.27921E+01 -1.17940E+01 -4.91729E+00 -1.56693E+00 -1.76549E+01 -2.11710E+01 -1.89741E+01 -3.48907E+01 -5.39047E+01
  -4.84815E+01 -5.23747E+01 -6.01672E+01 -3.98464E+01 -4.99584E+01 -3.40720E+01  5.74993E+00 -5.52397E-01  6.30151E+00  1.36056E+00
  -7.97557E+00  5.00658E+00 -1.27814E+01 -2.48181E+01 -2.22082E+01 -2.41694E+01 -1.40296E+01 -1.68794E+01 -1.05258E+01 -2.21611E-01
   1.41341E+00 -8.05642E+00 -2.37752E+01 -1.48660E+01 -3.16805E+01 -4.85737E+01 -4.30833E+01 -5.48769E+01 -5.44285E+01 -6.01308E+01
  -6.22269E+01 -5.39891E+01 -5.50504E+01 -4.58274E+01 -4.16718E+01 -2.65124E+01 -1.78158E+01 -2.84518E+01 -2.06025E+01 -5.00686E+01
  -6.51977E+01 -5.06682E+01 -4.46564E+01 -3.39413E+01 -6.22897E+01 -7.00976E+01 -1.06378E+02 -9.79040E+01  4.28183E+01  7.11580E+01
   4.83996E+01  8.45353E+01  9.61342E+01  9.20091E+01  7.72809E+01  7.14974E+01  7.01110E+01  6.25728E+01  5.10248E+01  5.53968E+01
   7.00912E+01  5.30871E+01  5.20099E+01  5.37598E+01  4.92918E+01  4.81238E+01  3.81661E+01  4.00243E+01  3.76975E+01  4.64362E+01
   4.58252E+01  5.53446E+01  5.94791E+01  4.00660E+01  5.11756E+01  3.46888E+01  3.00058E+01  3.36919E+01  3.10313E+01  4.16545E+01
   3.77183E+01  3.82334E+01  2.52045E+01  1.45581E+01  2.36646E+01  2.81444E+01  1.25324E+01  2.23935E+01  1.64821E+01 -1.13508E+01
  -2.79302E+00  1.03807E+01  1.67519E+01 -2.42416E+00  2.36823E+01  2.68534E+01  1.12519E+01  3.32499E+01  2.46735E+01  2.98173E+01
   2.04472E+01  2.28840E+01  3.52727E+01  3.23221E+01  2.71774E+01  2.69209E+01  3.33258E+01  1.95145E+01  2.22408E+01  1.01701E+01
   4.91504E+00  9.70251E+00 -4.16919E+00 -2.04365E+01 -7.57836E+00  1.23499E+01  5.59103E+00  4.85346E+00  8.11419E+00  3.01417E+01
   1.78231E+01  1.29133E+01  2.56011E+01  1.19882E+01  2.44211E+01  2.10252E+01  2.52391E+01  1.73903E+01  1.01920E+01  3.12593E+01
   1.96614E+01  9.40520E+00  5.74200E+00 -1.54278E+01 -2.65063E+01 -2.43727E+01 -3.26368E+01 -2.92295E+01 -2.02980E+01 -3.48244E+01
  -3.64605E+01 -3.27857E+01 -3.81161E+01 -3.40689E+01 -3.82220E+01 -3.40249E+01 -2.73302E+01 -3.97765E+01 -4.25297E+01 -4.21423E+01
  -4.10485E+01 -4.25349E+01 -3.20534E+01 -2.09188E+01 -2.38915E+01 -2.16577E+01 -1.36754E+01 -1.42885E+01 -1.58826E+01 -6.45030E+00
  -1.11398E+01  5.65324E+00  1.17152E+01  8.98979E+00  2.30905E+01  9.08750E+00  2.01654E+01  2.60118E+01  2.67334E+01  3.35291E+01
   2.73079E+01  3.25551E+01  4.01087E+01  3.78797E+01  3.37285E+01  4.85593E+01  5.26752E+01  6.00968E+01  6.19023E+01  5.73092E+01
   6.54612E+01  6.98778E+01  7.41928E+01  4.56766E+01  2.77176E+01  2.17242E+01  2.85643E+01  3.79486E+01  1.63437E+01  1.36589E+01
   5.00414E+00 -4.52841E+00 -1.08873E+01 -2.56501E+01 -2.78168E+01 -2.76735E+01 -3.02714E+01 -4.52296E+01 -4.15585E+01 -3.55058E+01
  -3.76064E+01 -3.01023E+01 -3.65714E+01 -3.42633E+01 -2.94545E+01 -4.34268E+01 -3.78644E+01 -2.33469E+01 -2.99342E+01 -3.26140E+01
  -3.28443E+01 -3.50686E+01 -2.92748E+01 -3.00465E+01 -3.22824E+01 -4.05477E+01 -3.53698E+01 -2.11121E+01 -1.71834E+01 -2.18459E+01
  -3.68069E+01 -3.63319E+01 -3.45782E+01 -4.29174E+01 -4.41547E+01 -3.78805E+01 -3.47160E+01 -2.60338E+01 -2.40761E+01 -4.07118E+01
  -3.06197E+01 -2.68159E+01 -3.44953E+01 -2.77843E+01 -2.07422E+01 -2.51257E+01 -3.91064E+01 -3.67839E+01 -3.05265E+01 -2.85160E+01
  -3.15496E+01 -3.42700E+01 -3.84653E+01 -3.58484E+01 -1.58236E+01 -2.30772E+01 -4.00677E+01 -3.43012E+01 -2.69515E+01 -2.38285E+01
  -2.44849E+01 -2.94828E+01 -2.67036E+01 -2.78298E+01 -1.50196E+01 -1.54659E+01 -3.31655E+01 -1.83158E+01 -1.88525E+01 -1.90859E+01
  -2.02980E+01 -2.92153E+01 -1.40395E+01 -3.44090E+01 -3.80350E+01 -1.09818E+01 -2.86815E+01 -2.55923E+01 -1.12729E+01 -2.25300E+01
 NY points of the fit to the data follow
  -7.31788E+01 -7.07220E+01 -7.05498E+01 -7.23068E+01 -7.20402E+01 -6.62044E+01 -5.81690E+01 -5.43543E+01 -5.59422E+01 -5.94060E+01
  -6.30891E+01 -6.67771E+01 -6.95369E+01 -7.13552E+01 -7.33549E+01 -7.55941E+01 -7.58655E+01 -7.67639E+01 -8.14760E+01 -9.14063E+01
  -1.03019E+02 -1.07212E+02 -1.00113E+02 -8.31396E+01 -5.93130E+01 -3.83072E+01 -2.55693E+01 -1.66809E+01 -9.26050E+00 -5.69837E+00
  -5.17950E+00 -5.44447E+00 -6.25192E+00 -8.16823E+00 -1.10919E+01 -1.47204E+01 -1.77256E+01 -2.13350E+01 -2.87528E+01 -4.10307E+01
  -5.51784E+01 -6.45116E+01 -6.65049E+01 -6.38823E+01 -5.75036E+01 -4.62214E+01 -3.27177E+01 -2.15214E+01 -1.38075E+01 -8.83936E+00
  -6.55401E+00 -6.73606E+00 -9.81606E+00 -1.72235E+01 -2.66064E+01 -3.27161E+01 -3.53646E+01 -3.76155E+01 -4.15683E+01 -4.41169E+01
  -4.03651E+01 -3.48153E+01 -3.11868E+01 -2.45791E+01 -1.48550E+01 -6.55201E+00 -1.81827E+00 -3.33463E+00 -1.29280E+01 -2.50364E+01
  -3.05359E+01 -2.97248E+01 -2.87637E+01 -2.56223E+01 -1.64419E+01 -5.90111E+00  1.02651E+00  6.59728E+00  1.09252E+01  1.39595E+01
   1.30831E+01  7.04888E+00 -3.75600E+00 -1.78075E+01 -3.03559E+01 -3.61727E+01 -3.48310E+01 -2.74827E+01 -1.74630E+01 -7.95551E+00
   1.62925E-01  7.43843E+00  1.33974E+01  1.82186E+01  2.20997E+01  2.61728E+01  3.04672E+01  3.36510E+01  3.52234E+01  3.72047E+01
   3.92693E+01  4.12734E+01  3.80093E+01  2.99487E+01  1.57489E+01 -1.54475E+00 -8.70073E+00 -5.51457E+00 -1.50718E+01 -5.57904E+01
  -1.08691E+02 -1.34774E+02 -1.31172E+02 -1.21038E+02 -1.10584E+02 -9.51480E+01 -7.91303E+01 -6.68277E+01 -5.69816E+01 -4.84989E+01
  -4.06827E+01 -3.30776E+01 -2.54510E+01 -1.74345E+01 -8.30370E+00  2.58028E+00  1.47594E+01  1.93478E+01  2.55696E+01  4.60108E+01
   7.54516E+01  8.31897E+01  4.20640E+01 -2.23955E+01 -6.16072E+01 -7.66654E+01 -8.84883E+01 -9.55579E+01 -9.30385E+01 -8.83544E+01
  -8.47942E+01 -8.23935E+01 -8.09584E+01 -7.97803E+01 -7.84836E+01 -7.71514E+01 -7.54086E+01 -7.29820E+01 -7.03301E+01 -6.79253E+01
  -6.57005E+01 -6.35815E+01 -6.15891E+01 -5.95685E+01 -5.71169E+01 -5.41307E+01 -5.11921E+01 -4.95839E+01 -4.94621E+01 -4.90373E+01
  -4.68795E+01 -4.38867E+01 -4.24272E+01 -4.33343E+01 -4.47375E+01 -4.50263E+01 -4.46033E+01 -4.45562E+01 -4.50410E+01 -4.43874E+01
  -3.95526E+01 -3.01378E+01 -2.09034E+01 -1.79033E+01 -2.03625E+01 -2.00489E+01 -1.42968E+01 -9.32503E+00 -1.08720E+01 -1.80127E+01
  -2.59224E+01 -3.21891E+01 -3.78705E+01 -4.27010E+01 -4.55275E+01 -4.66643E+01 -4.70714E+01 -4.72440E+01 -4.69724E+01 -4.56307E+01
  -4.47533E+01 -4.45557E+01 -4.31948E+01 -3.88913E+01 -3.18682E+01 -2.75843E+01 -2.65530E+01 -2.27323E+01 -1.73563E+01 -1.54135E+01
  -1.65255E+01 -1.66185E+01 -1.42874E+01 -1.24284E+01 -1.37155E+01 -1.67630E+01 -2.01399E+01 -2.46567E+01 -2.96464E+01 -3.44558E+01
  -3.87026E+01 -4.20883E+01 -4.42428E+01 -4.14066E+01 -3.42544E+01 -2.30345E+01 -8.80082E+00  3.12999E+00  1.07750E+01  1.42622E+01
   1.22940E+01  8.39152E+00  6.05099E+00  4.99062E+00  3.97491E+00  2.72101E+00  2.49688E-01 -3.82515E+00 -9.56487E+00 -1.65885E+01
  -2.41534E+01 -3.18394E+01 -3.95497E+01 -4.67776E+01 -5.31171E+01 -5.88260E+01 -6.30749E+01 -6.56430E+01 -6.65849E+01 -6.50912E+01
  -6.27176E+01 -5.92657E+01 -5.40625E+01 -4.86082E+01 -4.34847E+01 -3.86676E+01 -3.59393E+01 -3.50888E+01 -3.58266E+01 -3.75164E+01
  -4.15837E+01 -4.93313E+01 -4.86866E+01 -4.60152E+01 -5.83379E+01 -8.85822E+01 -1.05663E+02 -6.98633E+01 -7.53207E-01  4.51657E+01
   6.28099E+01  7.49254E+01  8.18665E+01  7.84459E+01  7.20723E+01  6.64929E+01  6.16035E+01  5.72520E+01  5.33888E+01  5.00316E+01
   4.75350E+01  4.57495E+01  4.46427E+01  4.42257E+01  4.40600E+01  4.39721E+01  4.40130E+01  4.39163E+01  4.34392E+01  4.25472E+01
   4.13530E+01  3.99748E+01  3.85505E+01  3.69697E+01  3.52220E+01  3.34705E+01  3.17106E+01  2.97788E+01  2.76028E+01  2.52006E+01
   2.26760E+01  2.00839E+01  1.74165E+01  1.49692E+01  1.32244E+01  1.24425E+01  1.25287E+01  1.32565E+01  1.43752E+01  1.57892E+01
   1.74658E+01  1.92755E+01  2.10748E+01  2.28047E+01  2.44151E+01  2.59205E+01  2.74526E+01  2.91624E+01  3.09178E+01  3.24784E+01
   3.38279E+01  3.50837E+01  3.62292E+01  3.72070E+01  3.79282E+01  3.83507E+01  3.83898E+01  3.79248E+01  3.69620E+01  3.57731E+01
   3.42882E+01  3.22778E+01  2.99072E+01  2.74414E+01  2.46729E+01  2.11351E+01  1.65792E+01  1.13208E+01  5.97535E+00  9.82098E-01
  -3.32069E+00 -6.48681E+00 -7.97854E+00 -7.44925E+00 -4.84094E+00 -4.36294E-01  3.78782E+00  9.03024E+00  1.67352E+01  2.44779E+01
   2.80104E+01  2.04661E+01  2.90072E+00 -1.75197E+01 -3.60192E+01 -4.63531E+01 -4.58390E+01 -4.10164E+01 -3.63924E+01 -3.15074E+01
  -2.72648E+01 -2.52702E+01 -2.49777E+01 -2.57592E+01 -2.68479E+01 -2.76389E+01 -2.78953E+01 -2.74890E+01 -2.63830E+01 -2.46431E+01
  -2.23944E+01 -1.97734E+01 -1.69636E+01 -1.41506E+01 -1.14283E+01 -8.82157E+00 -6.32643E+00 -3.89025E+00 -1.49005E+00  8.93983E-01
   3.24344E+00  5.63902E+00  8.15883E+00  1.08611E+01  1.38077E+01  1.70593E+01  2.06237E+01  2.46252E+01  2.90269E+01  3.36063E+01
   3.83397E+01  4.34509E+01  4.87081E+01  5.36438E+01  5.78491E+01  6.08321E+01  6.17404E+01  5.99037E+01  5.55011E+01  4.94275E+01
   4.27328E+01  3.61203E+01  3.00216E+01  2.46244E+01  1.96692E+01  1.45659E+01  8.98623E+00  3.06025E+00 -3.00031E+00 -8.95278E+00
  -1.42289E+01 -1.85854E+01 -2.21756E+01 -2.50486E+01 -2.71050E+01 -2.84959E+01 -2.95342E+01 -3.04000E+01 -3.11515E+01 -3.17510E+01
  -3.21528E+01 -3.23817E+01 -3.25630E+01 -3.26949E+01 -3.26368E+01 -3.24850E+01 -3.24655E+01 -3.25895E+01 -3.25677E+01 -3.23089E+01
  -3.21184E+01 -3.21107E+01 -3.20418E+01 -3.18380E+01 -3.17064E+01 -3.16928E+01 -3.16518E+01 -3.14556E+01 -3.11525E+01 -3.09035E+01
  -3.07938E+01 -3.07614E+01 -3.07405E+01 -3.07116E+01 -3.05928E+01 -3.03975E+01 -3.01958E+01 -2.99807E+01 -2.97541E+01 -2.95670E+01
  -2.93641E+01 -2.91431E+01 -2.90335E+01 -2.90620E+01 -2.90982E+01 -2.90434E+01 -2.88748E+01 -2.86871E+01 -2.85038E+01 -2.83470E+01
  -2.82718E+01 -2.82309E+01 -2.80404E+01 -2.77869E+01 -2.75671E+01 -2.73739E+01 -2.71699E+01 -2.69888E+01 -2.67822E+01 -2.65852E+01
  -2.64725E+01 -2.64194E+01 -2.63637E+01 -2.63134E+01 -2.62304E+01 -2.60414E+01 -2.56768E+01 -2.52197E+01 -2.48600E+01 -2.47275E+01
  -2.47307E+01 -2.47055E+01 -2.45972E+01 -2.44311E+01 -2.42458E+01 -2.40429E+01 -2.37951E+01 -2.35842E+01 -2.34417E+01 -2.31781E+01
 NY background values follow
    -4.667E+01   -4.641E+01   -4.615E+01   -4.590E+01   -4.564E+01   -4.538E+01   -4.513E+01   -4.487E+01   -4.461E+01   -4.435E+01
    -4.409E+01   -4.384E+01   -4.358E+01   -4.332E+01   -4.306E+01   -4.280E+01   -4.255E+01   -4.229E+01   -4.203E+01   -4.177E+01
    -4.151E+01   -4.125E+01   -4.099E+01   -4.073E+01   -4.047E+01   -4.021E+01   -3.995E+01   -3.969E+01   -3.943E+01   -3.917E+01
    -3.891E+01   -3.865E+01   -3.839E+01   -3.813E+01   -3.787E+01   -3.761E+01   -3.735E+01   -3.709E+01   -3.683E+01   -3.657E+01
    -3.631E+01   -3.605E+01   -3.579E+01   -3.554E+01   -3.528E+01   -3.502E+01   -3.477E+01   -3.452E+01   -3.426E+01   -3.401E+01
    -3.376E+01   -3.351E+01   -3.326E+01   -3.302E+01   -3.277E+01   -3.253E+01   -3.229E+01   -3.205E+01   -3.181E+01   -3.157E+01
    -3.133E+01   -3.110E+01   -3.087E+01   -3.064E+01   -3.041E+01   -3.019E+01   -2.996E+01   -2.974E+01   -2.952E+01   -2.931E+01
    -2.909E+01   -2.888E+01   -2.867E+01   -2.846E+01   -2.825E+01   -2.805E+01   -2.784E+01   -2.764E+01   -2.745E+01   -2.725E+01
    -2.706E+01   -2.687E+01   -2.668E+01   -2.649E+01   -2.631E+01   -2.613E+01   -2.595E+01   -2.577E+01   -2.560E+01   -2.543E+01
    -2.526E+01   -2.509E+01   -2.493E+01   -2.476E+01   -2.460E+01   -2.445E+01   -2.429E+01   -2.414E+01   -2.399E+01   -2.384E+01
    -2.369E+01   -2.355E+01   -2.340E+01   -2.326E+01   -2.312E+01   -2.298E+01   -2.285E+01   -2.271E+01   -2.258E+01   -2.245E+01
    -2.232E+01   -2.219E+01   -2.206E+01   -2.193E+01   -2.181E+01   -2.168E+01   -2.156E+01   -2.144E+01   -2.132E+01   -2.120E+01
    -2.108E+01   -2.096E+01   -2.084E+01   -2.072E+01   -2.060E+01   -2.049E+01   -2.037E+01   -2.026E+01   -2.014E+01   -2.003E+01
    -1.992E+01   -1.980E+01   -1.969E+01   -1.958E+01   -1.947E+01   -1.936E+01   -1.925E+01   -1.914E+01   -1.904E+01   -1.893E+01
    -1.882E+01   -1.871E+01   -1.861E+01   -1.850E+01   -1.840E+01   -1.829E+01   -1.819E+01   -1.809E+01   -1.798E+01   -1.788E+01
    -1.778E+01   -1.767E+01   -1.757E+01   -1.747E+01   -1.737E+01   -1.727E+01   -1.717E+01   -1.707E+01   -1.697E+01   -1.687E+01
    -1.677E+01   -1.667E+01   -1.658E+01   -1.648E+01   -1.638E+01   -1.628E+01   -1.619E+01   -1.609E+01   -1.600E+01   -1.590E+01
    -1.581E+01   -1.571E+01   -1.562E+01   -1.553E+01   -1.543E+01   -1.534E+01   -1.525E+01   -1.516E+01   -1.507E+01   -1.498E+01
    -1.489E+01   -1.480E+01   -1.471E+01   -1.462E+01   -1.453E+01   -1.444E+01   -1.436E+01   -1.427E+01   -1.418E+01   -1.410E+01
    -1.401E+01   -1.393E+01   -1.384E+01   -1.376E+01   -1.367E+01   -1.359E+01   -1.351E+01   -1.343E+01   -1.334E+01   -1.326E+01
    -1.318E+01   -1.310E+01   -1.302E+01   -1.294E+01   -1.286E+01   -1.278E+01   -1.271E+01   -1.263E+01   -1.255E+01   -1.247E+01
    -1.240E+01   -1.232E+01   -1.225E+01   -1.217E+01   -1.210E+01   -1.202E+01   -1.195E+01   -1.188E+01   -1.181E+01   -1.174E+01
    -1.167E+01   -1.160E+01   -1.154E+01   -1.147E+01   -1.141E+01   -1.135E+01   -1.129E+01   -1.123E+01   -1.117E+01   -1.111E+01
    -1.106E+01   -1.101E+01   -1.096E+01   -1.091E+01   -1.087E+01   -1.082E+01   -1.078E+01   -1.074E+01   -1.071E+01   -1.067E+01
    -1.064E+01   -1.061E+01   -1.059E+01   -1.057E+01   -1.054E+01   -1.053E+01   -1.051E+01   -1.050E+01   -1.049E+01   -1.048E+01
    -1.048E+01   -1.048E+01   -1.048E+01   -1.048E+01   -1.049E+01   -1.050E+01   -1.051E+01   -1.052E+01   -1.054E+01   -1.056E+01
    -1.059E+01   -1.061E+01   -1.064E+01   -1.067E+01   -1.071E+01   -1.075E+01   -1.079E+01   -1.083E+01   -1.088E+01   -1.093E+01
    -1.099E+01   -1.104E+01   -1.110E+01   -1.116E+01   -1.123E+01   -1.130E+01   -1.137E+01   -1.144E+01   -1.151E+01   -1.159E+01
    -1.167E+01   -1.175E+01   -1.183E+01   -1.192E+01   -1.201E+01   -1.209E+01   -1.218E+01   -1.228E+01   -1.237E+01   -1.246E+01
    -1.256E+01   -1.266E+01   -1.275E+01   -1.285E+01   -1.295E+01   -1.305E+01   -1.315E+01   -1.325E+01   -1.336E+01   -1.346E+01
    -1.356E+01   -1.366E+01   -1.376E+01   -1.387E+01   -1.397E+01   -1.407E+01   -1.418E+01   -1.428E+01   -1.438E+01   -1.449E+01
    -1.459E+01   -1.469E+01   -1.479E+01   -1.490E+01   -1.500E+01   -1.510E+01   -1.520E+01   -1.530E+01   -1.540E+01   -1.550E+01
    -1.560E+01   -1.570E+01   -1.580E+01   -1.590E+01   -1.600E+01   -1.609E+01   -1.619E+01   -1.628E+01   -1.638E+01   -1.647E+01
    -1.656E+01   -1.665E+01   -1.675E+01   -1.684E+01   -1.692E+01   -1.701E+01   -1.710E+01   -1.719E+01   -1.727E+01   -1.736E+01
    -1.744E+01   -1.752E+01   -1.760E+01   -1.768E+01   -1.776E+01   -1.784E+01   -1.791E+01   -1.799E+01   -1.806E+01   -1.814E+01
    -1.821E+01   -1.828E+01   -1.835E+01   -1.841E+01   -1.848E+01   -1.855E+01   -1.861E+01   -1.867E+01   -1.873E+01   -1.879E+01
    -1.885E+01   -1.891E+01   -1.896E+01   -1.902E+01   -1.907E+01   -1.912E+01   -1.917E+01   -1.922E+01   -1.927E+01   -1.932E+01
    -1.937E+01   -1.941E+01   -1.946E+01   -1.950E+01   -1.955E+01   -1.959E+01   -1.963E+01   -1.968E+01   -1.972E+01   -1.976E+01
    -1.980E+01   -1.984E+01   -1.988E+01   -1.992E+01   -1.996E+01   -2.000E+01   -2.004E+01   -2.008E+01   -2.012E+01   -2.016E+01
    -2.020E+01   -2.024E+01   -2.028E+01   -2.032E+01   -2.037E+01   -2.041E+01   -2.045E+01   -2.049E+01   -2.053E+01   -2.057E+01
    -2.062E+01   -2.066E+01   -2.070E+01   -2.074E+01   -2.079E+01   -2.083E+01   -2.087E+01   -2.092E+01   -2.096E+01   -2.100E+01
    -2.105E+01   -2.109E+01   -2.113E+01   -2.118E+01   -2.122E+01   -2.127E+01   -2.131E+01   -2.136E+01   -2.140E+01   -2.145E+01
    -2.149E+01   -2.154E+01   -2.158E+01   -2.163E+01   -2.168E+01   -2.172E+01   -2.177E+01   -2.181E+01   -2.186E+01   -2.191E+01
    -2.195E+01   -2.200E+01   -2.204E+01   -2.209E+01   -2.214E+01   -2.218E+01   -2.223E+01   -2.227E+01   -2.232E+01   -2.236E+01
    -2.241E+01   -2.245E+01   -2.250E+01   -2.254E+01   -2.259E+01   -2.263E+01   -2.267E+01   -2.272E+01   -2.276E+01   -2.280E+01
    -2.284E+01   -2.289E+01   -2.293E+01   -2.297E+01   -2.301E+01   -2.305E+01   -2.309E+01   -2.313E+01   -2.317E+01   -2.321E+01
    -2.325E+01   -2.329E+01   -2.333E+01   -2.337E+01   -2.341E+01   -2.345E+01   -2.349E+01   -2.353E+01   -2.357E+01   -2.361E+01
    -2.364E+01   -2.368E+01   -2.372E+01   -2.376E+01   -2.380E+01   -2.384E+01   -2.388E+01   -2.391E+01   -2.395E+01   -2.399E+01
 Mac      Conc. = 2.02E-04
  -6.12106E+01 -6.12501E+01 -6.12499E+01 -6.12765E+01 -6.14979E+01 -6.20148E+01 -6.27905E+01 -6.36329E+01 -6.43876E+01 -6.49334E+01
  -6.52140E+01 -6.52260E+01 -6.50322E+01 -6.51188E+01 -6.57893E+01 -6.64603E+01 -6.61023E+01 -6.43143E+01 -6.18106E+01 -5.92612E+01
  -5.64974E+01 -5.36820E+01 -5.14864E+01 -4.99935E+01 -4.87061E+01 -4.73822E+01 -4.59948E+01 -4.44923E+01 -4.29752E+01 -4.16128E+01
  -4.03844E+01 -3.92426E+01 -3.83496E+01 -3.79108E+01 -3.77926E+01 -3.74667E+01 -3.64660E+01 -3.49047E+01 -3.33821E+01 -3.24183E+01
  -3.19211E+01 -3.14149E+01 -3.06616E+01 -2.97122E+01 -2.87893E+01 -2.81086E+01 -2.77571E+01 -2.77266E+01 -2.80063E+01 -2.85505E+01
  -2.91513E+01 -2.95953E+01 -2.98680E+01 -3.00796E+01 -3.01694E+01 -2.99454E+01 -2.93194E+01 -2.84247E+01 -2.74856E+01 -2.64717E+01
  -2.52806E+01 -2.43180E+01 -2.38868E+01 -2.38780E+01 -2.40302E+01 -2.41622E+01 -2.42529E+01 -2.44299E+01 -2.45443E+01 -2.41061E+01
  -2.28478E+01 -2.12420E+01 -1.98154E+01 -1.86609E+01 -1.77779E+01 -1.73067E+01 -1.72572E+01 -1.74259E+01 -1.75917E+01 -1.77590E+01
  -1.79259E+01 -1.80153E+01 -1.78263E+01 -1.73799E+01 -1.68134E+01 -1.61740E+01 -1.54458E+01 -1.47683E+01 -1.41866E+01 -1.37050E+01
  -1.32714E+01 -1.29398E+01 -1.27537E+01 -1.28262E+01 -1.33044E+01 -1.42630E+01 -1.55702E+01 -1.70722E+01 -1.85571E+01 -1.98875E+01
  -2.12406E+01 -2.28597E+01 -2.46825E+01 -2.68226E+01 -2.97385E+01 -3.35278E+01 -3.75570E+01 -4.08482E+01 -4.28602E+01 -4.35945E+01
