 
 $NMID
 ID=''
 FMTDAT='(2E13.5)'
 TRAMP=   1.00000E+0
 VOLUME=   1.00000E+0
 $END
   4.76732E+5   5.96746E+5
   5.58461E+5   1.93307E+6
   7.10299E+5   1.85579E+6
   5.84822E+5   1.82434E+6
   5.71269E+5   1.88973E+6
   5.50966E+5   1.82397E+6
   4.59352E+5   1.83243E+6
   4.76638E+5   1.89089E+6
   4.78239E+5   1.82188E+6
   3.75568E+5   1.81028E+6
   3.51100E+5   1.85809E+6
   3.52919E+5   1.81943E+6
   2.93197E+5   1.79873E+6
   2.63211E+5   1.81698E+6
   2.40925E+5   1.78905E+6
   1.97925E+5   1.77466E+6
   1.77061E+5   1.78721E+6
   1.42494E+5   1.76440E+6
   9.13856E+4   1.75270E+6
   7.44654E+4   1.75359E+6
   4.35910E+4   1.73160E+6
  -2.59368E+3   1.72061E+6
  -2.46201E+4   1.71593E+6
  -5.18180E+4   1.69638E+6
  -9.26118E+4   1.68269E+6
  -1.07767E+5   1.67145E+6
  -1.33700E+5   1.65342E+6
  -1.67124E+5   1.64434E+6
  -1.88769E+5   1.62854E+6
  -2.10993E+5   1.60654E+6
  -2.43773E+5   1.59640E+6
  -2.65446E+5   1.58263E+6
  -2.92634E+5   1.56179E+6
  -3.20412E+5   1.54723E+6
  -3.40826E+5   1.52936E+6
  -3.63133E+5   1.51172E+6
  -3.90409E+5   1.50137E+6
  -4.15373E+5   1.48361E+6
  -4.38109E+5   1.46016E+6
  -4.59407E+5   1.44603E+6
  -4.79484E+5   1.42775E+6
  -5.00851E+5   1.40568E+6
  -5.17439E+5   1.38804E+6
  -5.34539E+5   1.37171E+6
  -5.54895E+5   1.35174E+6
  -5.74601E+5   1.33476E+6
  -5.93857E+5   1.31666E+6
  -6.16330E+5   1.29483E+6
  -6.35777E+5   1.27189E+6
  -6.53105E+5   1.25204E+6
  -6.72207E+5   1.23317E+6
  -6.91809E+5   1.21336E+6
  -7.09758E+5   1.19272E+6
  -7.28051E+5   1.17328E+6
  -7.45339E+5   1.15287E+6
  -7.62171E+5   1.13134E+6
  -7.78657E+5   1.10964E+6
  -7.92916E+5   1.08834E+6
  -8.04605E+5   1.06790E+6
  -8.18110E+5   1.04870E+6
  -8.33258E+5   1.02817E+6
  -8.47085E+5   1.00752E+6
  -8.60782E+5   9.87407E+5
  -8.74421E+5   9.65355E+5
  -8.86808E+5   9.41954E+5
  -8.97233E+5   9.19996E+5
  -9.07030E+5   8.98283E+5
  -9.17087E+5   8.76595E+5
  -9.28627E+5   8.56469E+5
  -9.39825E+5   8.35519E+5
  -9.48921E+5   8.12903E+5
  -9.56258E+5   7.91159E+5
  -9.64381E+5   7.71768E+5
  -9.73160E+5   7.51515E+5
  -9.80995E+5   7.29079E+5
  -9.86827E+5   7.07223E+5
  -9.93139E+5   6.86569E+5
  -9.99834E+5   6.65607E+5
  -1.00602E+6   6.43586E+5
  -1.01124E+6   6.21230E+5
  -1.01606E+6   5.99198E+5
  -1.01982E+6   5.77611E+5
  -1.02363E+6   5.56312E+5
  -1.02743E+6   5.34139E+5
  -1.03034E+6   5.12182E+5
  -1.03199E+6   4.91307E+5
  -1.03361E+6   4.71309E+5
  -1.03550E+6   4.50707E+5
  -1.03653E+6   4.30378E+5
  -1.03610E+6   4.10924E+5
  -1.03562E+6   3.92387E+5
  -1.03573E+6   3.73454E+5
  -1.03590E+6   3.53379E+5
  -1.03397E+6   3.33596E+5
  -1.03114E+6   3.14423E+5
  -1.02849E+6   2.96858E+5
  -1.02640E+6   2.79262E+5
  -1.02446E+6   2.60614E+5
  -1.02153E+6   2.42136E+5
  -1.01791E+6   2.24702E+5
  -1.01499E+6   2.08084E+5
  -1.01215E+6   1.89858E+5
  -1.00758E+6   1.71333E+5
  -1.00162E+6   1.54661E+5
  -9.96107E+5   1.39087E+5
  -9.92006E+5   1.24510E+5
  -9.87620E+5   1.08666E+5
  -9.81796E+5   9.23050E+4
  -9.74690E+5   7.64113E+4
  -9.67834E+5   6.29905E+4
  -9.62217E+5   4.94532E+4
  -9.56888E+5   3.40831E+4
  -9.50837E+5   1.81263E+4
  -9.43800E+5   3.05211E+3
  -9.36891E+5  -1.12914E+4
  -9.29933E+5  -2.60898E+4
  -9.22836E+5  -4.12944E+4
  -9.14187E+5  -5.57943E+4
  -9.05161E+5  -6.81329E+4
  -8.97444E+5  -7.98436E+4
  -8.90386E+5  -9.23293E+4
  -8.82895E+5  -1.04941E+5
  -8.74863E+5  -1.17408E+5
  -8.66762E+5  -1.29950E+5
  -8.58116E+5  -1.42797E+5
  -8.48590E+5  -1.54817E+5
  -8.39062E+5  -1.65757E+5
  -8.30336E+5  -1.77409E+5
  -8.21408E+5  -1.88819E+5
  -8.12412E+5  -2.00719E+5
  -8.03166E+5  -2.13394E+5
  -7.92578E+5  -2.25944E+5
  -7.82110E+5  -2.36412E+5
  -7.72552E+5  -2.46700E+5
  -7.62581E+5  -2.57646E+5
  -7.51991E+5  -2.68488E+5
  -7.41719E+5  -2.78153E+5
  -7.31967E+5  -2.87255E+5
  -7.22020E+5  -2.97188E+5
  -7.11399E+5  -3.07404E+5
  -6.99903E+5  -3.16469E+5
  -6.88990E+5  -3.24232E+5
  -6.78521E+5  -3.31939E+5
  -6.68564E+5  -3.40366E+5
  -6.58466E+5  -3.49280E+5
  -6.46954E+5  -3.57255E+5
  -6.35351E+5  -3.64521E+5
  -6.24366E+5  -3.71334E+5
  -6.13110E+5  -3.78115E+5
  -6.02351E+5  -3.84551E+5
  -5.91065E+5  -3.90591E+5
  -5.80403E+5  -3.95819E+5
  -5.70501E+5  -4.01062E+5
  -5.60144E+5  -4.06756E+5
  -5.49113E+5  -4.12423E+5
  -5.38208E+5  -4.17098E+5
  -5.28182E+5  -4.20809E+5
  -5.18047E+5  -4.25353E+5
  -5.07296E+5  -4.29475E+5
  -4.96874E+5  -4.33407E+5
  -4.86806E+5  -4.37058E+5
  -4.76667E+5  -4.40342E+5
  -4.65592E+5  -4.43723E+5
  -4.55120E+5  -4.46534E+5
  -4.45100E+5  -4.49058E+5
  -4.35344E+5  -4.50853E+5
  -4.26040E+5  -4.53375E+5
  -4.16248E+5  -4.56440E+5
  -4.06200E+5  -4.58557E+5
  -3.96570E+5  -4.59770E+5
  -3.87368E+5  -4.61096E+5
  -3.78202E+5  -4.62651E+5
  -3.68853E+5  -4.64225E+5
  -3.59297E+5  -4.65381E+5
  -3.50146E+5  -4.66207E+5
  -3.41022E+5  -4.67098E+5
  -3.31774E+5  -4.68679E+5
  -3.21860E+5  -4.69782E+5
  -3.11780E+5  -4.69358E+5
  -3.02666E+5  -4.69424E+5
  -2.94281E+5  -4.70122E+5
  -2.85214E+5  -4.71250E+5
  -2.75780E+5  -4.71632E+5
  -2.66288E+5  -4.71358E+5
  -2.57393E+5  -4.70796E+5
  -2.48670E+5  -4.70397E+5
  -2.40041E+5  -4.69968E+5
  -2.31219E+5  -4.68775E+5
  -2.23423E+5  -4.67864E+5
  -2.15816E+5  -4.67404E+5
  -2.07086E+5  -4.67248E+5
  -1.97868E+5  -4.66944E+5
  -1.88637E+5  -4.65911E+5
  -1.80021E+5  -4.64456E+5
  -1.71946E+5  -4.63036E+5
  -1.63492E+5  -4.62361E+5
  -1.54991E+5  -4.61215E+5
  -1.46661E+5  -4.59509E+5
  -1.38209E+5  -4.58186E+5
  -1.29510E+5  -4.56926E+5
  -1.20586E+5  -4.55191E+5
  -1.12191E+5  -4.52719E+5
  -1.04329E+5  -4.50292E+5
  -9.71404E+4  -4.48230E+5
  -8.91574E+4  -4.46779E+5
  -8.09237E+4  -4.44610E+5
  -7.28535E+4  -4.42113E+5
  -6.55202E+4  -4.39608E+5
  -5.78427E+4  -4.36883E+5
  -5.03294E+4  -4.34452E+5
  -4.20702E+4  -4.31827E+5
  -3.49517E+4  -4.28551E+5
  -2.83361E+4  -4.26013E+5
  -2.09995E+4  -4.23429E+5
  -1.31664E+4  -4.20847E+5
  -5.92497E+3  -4.16984E+5
   6.95800E+2  -4.13640E+5
   6.59410E+3  -4.09940E+5
   1.29142E+4  -4.06710E+5
   1.90448E+4  -4.03355E+5
   2.56655E+4  -4.00018E+5
   3.12285E+4  -3.96072E+5
   3.68742E+4  -3.92875E+5
   4.31289E+4  -3.89660E+5
   4.89604E+4  -3.85783E+5
   5.45627E+4  -3.81016E+5
   5.91935E+4  -3.77109E+5
   6.39075E+4  -3.73859E+5
   6.96070E+4  -3.70141E+5
   7.51056E+4  -3.65997E+5
   8.00201E+4  -3.61709E+5
   8.38088E+4  -3.57502E+5
   8.83052E+4  -3.53636E+5
   9.28446E+4  -3.49672E+5
   9.69122E+4  -3.45256E+5
   1.00658E+5  -3.41208E+5
   1.04545E+5  -3.37403E+5
   1.08471E+5  -3.33277E+5
   1.12457E+5  -3.28955E+5
   1.15756E+5  -3.24441E+5
   1.19076E+5  -3.20153E+5
   1.22439E+5  -3.16290E+5
   1.25687E+5  -3.12386E+5
   1.29618E+5  -3.08005E+5
   1.32343E+5  -3.03224E+5
   1.35148E+5  -2.99168E+5
   1.38307E+5  -2.95087E+5
   1.41458E+5  -2.90812E+5
   1.43956E+5  -2.85981E+5
   1.46049E+5  -2.81605E+5
   1.48448E+5  -2.78014E+5
   1.51173E+5  -2.74039E+5
   1.54371E+5  -2.69207E+5
   1.56382E+5  -2.64431E+5
   1.58120E+5  -2.59895E+5
   1.60535E+5  -2.56171E+5
   1.62927E+5  -2.51823E+5
   1.65468E+5  -2.47654E+5
   1.67434E+5  -2.42894E+5
   1.70003E+5  -2.38614E+5
   1.72426E+5  -2.34125E+5
   1.74460E+5  -2.29253E+5
   1.76272E+5  -2.24496E+5
   1.77726E+5  -2.19915E+5
   1.79004E+5  -2.16239E+5
   1.80944E+5  -2.12102E+5
   1.83300E+5  -2.07355E+5
   1.84720E+5  -2.02633E+5
   1.85717E+5  -1.98134E+5
   1.87280E+5  -1.93857E+5
   1.88354E+5  -1.89755E+5
   1.89958E+5  -1.85248E+5
   1.90962E+5  -1.80857E+5
   1.91962E+5  -1.76948E+5
   1.93641E+5  -1.72779E+5
   1.94767E+5  -1.68257E+5
   1.95473E+5  -1.63077E+5
   1.96213E+5  -1.59103E+5
   1.96759E+5  -1.55008E+5
   1.97983E+5  -1.50933E+5
   1.98612E+5  -1.46297E+5
   1.99143E+5  -1.42179E+5
   1.99618E+5  -1.38218E+5
   2.00149E+5  -1.34043E+5
   2.00554E+5  -1.30043E+5
   2.00963E+5  -1.25609E+5
   2.00684E+5  -1.21553E+5
   2.00480E+5  -1.17918E+5
   2.00652E+5  -1.14680E+5
   2.01238E+5  -1.10833E+5
   2.01554E+5  -1.06610E+5
   2.01045E+5  -1.02331E+5
   2.00494E+5  -9.88526E+4
   2.00373E+5  -9.50827E+4
   2.00190E+5  -9.13640E+4
   1.99802E+5  -8.77317E+4
   1.99269E+5  -8.41326E+4
   1.98849E+5  -8.09011E+4
   1.98693E+5  -7.68686E+4
   1.97997E+5  -7.32251E+4
   1.96934E+5  -6.97174E+4
   1.96128E+5  -6.67772E+4
   1.95586E+5  -6.34652E+4
   1.95119E+5  -5.98563E+4
   1.94277E+5  -5.64120E+4
   1.92884E+5  -5.27372E+4
   1.91917E+5  -4.97148E+4
   1.91126E+5  -4.66972E+4
   1.90136E+5  -4.34977E+4
   1.89183E+5  -4.05645E+4
   1.87583E+5  -3.75081E+4
   1.86961E+5  -3.45863E+4
   1.85715E+5  -3.15884E+4
   1.84789E+5  -2.81946E+4
   1.83223E+5  -2.49866E+4
   1.81729E+5  -2.24467E+4
   1.80268E+5  -1.98206E+4
   1.79134E+5  -1.70225E+4
   1.77798E+5  -1.41582E+4
   1.76377E+5  -1.12310E+4
   1.74691E+5  -8.70459E+3
   1.73556E+5  -6.33437E+3
   1.71846E+5  -3.24346E+3
   1.70211E+5  -6.39812E+2
   1.68494E+5   1.72536E+3
   1.67073E+5   3.68664E+3
   1.65658E+5   6.36681E+3
   1.64249E+5   9.17593E+3
   1.62346E+5   1.18763E+4
   1.59961E+5   1.40018E+4
   1.58486E+5   1.58639E+4
   1.56758E+5   1.80216E+4
   1.54925E+5   2.02004E+4
   1.53303E+5   2.22271E+4
   1.51590E+5   2.42966E+4
   1.49978E+5   2.65794E+4
   1.48019E+5   2.91092E+4
   1.46145E+5   3.10754E+4
   1.43681E+5   3.27679E+4
   1.42016E+5   3.45615E+4
   1.40231E+5   3.62359E+4
   1.38292E+5   3.83551E+4
   1.36260E+5   4.04790E+4
   1.34207E+5   4.19223E+4
   1.32554E+5   4.34419E+4
   1.30363E+5   4.52754E+4
   1.28278E+5   4.65955E+4
   1.26139E+5   4.81457E+4
   1.24407E+5   4.94720E+4
   1.22546E+5   5.07932E+4
   1.20881E+5   5.25594E+4
   1.18644E+5   5.40800E+4
   1.16040E+5   5.53120E+4
   1.14315E+5   5.62529E+4
   1.12481E+5   5.73349E+4
   1.10421E+5   5.88839E+4
   1.08174E+5   5.96759E+4
   1.06327E+5   6.05405E+4
   1.04592E+5   6.17238E+4
   1.02555E+5   6.31560E+4
   1.00239E+5   6.41431E+4
   9.79700E+4   6.50031E+4
   9.59333E+4   6.53689E+4
   9.43908E+4   6.61099E+4
   9.26192E+4   6.71930E+4
   9.03052E+4   6.81273E+4
   8.84002E+4   6.86733E+4
