 LCModel (Version 6.3-1N) Copyright: S.W. Provencher.          Ref.: Magn. Reson. Med. 30:672-679 (1993).                
 Slice_N1@19_22  28-Feb-2025 11:41:58
 27 lines in following concentration table = NCONC+1
    Conc.  %SD /Cr+PCr  Metabolite                                         
 3.46E-04   4% 3.4E-04 Mac                                                 
    2.410  90%   2.363 Cr                                                  
    5.747  38%   5.636 PCr                                                 
    9.708  11%   9.522 Ins                                                 
   11.224   8%  11.009 NAA                                                 
    7.655  14%   7.508 Tau                                                 
 2.94E-02 999% 2.9E-02 PCho                                                
    1.277  78%   1.252 GPC                                                 
   12.459   9%  12.220 Glu                                                 
    4.331  21%   4.248 Gln                                                 
    2.393  34%   2.347 Ala                                                 
    1.355 108%   1.329 Asc                                                 
    1.765  63%   1.731 Asp                                                 
    0.616  97%   0.604 GABA                                                
    0.523 145%   0.513 Glc                                                 
    1.521  37%   1.492 GSH                                                 
    3.668  22%   3.597 Lac                                                 
    3.024  26%   2.966 NAAG                                                
    1.662  83%   1.630 PE                                                  
    1.306  28%   1.281 GPC+PCho                                            
   14.248   6%  13.975 NAA+NAAG                                            
   16.790   9%  16.468 Glu+Gln                                             
    8.156  10%   8.000 Cr+PCr                                              
   14.248   6%  13.975 NAA+NAAG                                            
    8.156  10%   8.000 Cr+PCr                                              
   16.790   9%  16.468 Glu+Gln                                             
   6 lines in following misc. output table
  FWHM = 0.041 ppm    S/N =   4                                            
  Data shift = 0.024 ppm                                                   
  Ph: -48 deg       0.0 deg/ppm                                            
  alphaB,S = 1.6E-01,   3.2E+00                                            
   19 spline knots.   Ns = 6(1)                                            
  ( 6) 2 infls.   ( 1) 1 extrs.                                            
  480 points on ppm-axis = NY
      4.100000     4.091866     4.083733     4.075600     4.067466     4.059333     4.051199     4.043066     4.034933     4.026799
      4.018666     4.010532     4.002399     3.994265     3.986132     3.977998     3.969864     3.961731     3.953597     3.945463
      3.937330     3.929196     3.921062     3.912929     3.904795     3.896662     3.888528     3.880394     3.872261     3.864127
      3.855993     3.847860     3.839726     3.831592     3.823459     3.815325     3.807191     3.799058     3.790924     3.782790
      3.774657     3.766523     3.758389     3.750256     3.742122     3.733989     3.725855     3.717721     3.709588     3.701454
      3.693320     3.685187     3.677053     3.668919     3.660786     3.652652     3.644518     3.636385     3.628251     3.620117
      3.611984     3.603850     3.595716     3.587583     3.579449     3.571316     3.563182     3.555048     3.546915     3.538781
      3.530647     3.522514     3.514380     3.506246     3.498113     3.489979     3.481845     3.473712     3.465578     3.457444
      3.449311     3.441177     3.433043     3.424910     3.416776     3.408643     3.400509     3.392375     3.384242     3.376108
      3.367974     3.359841     3.351707     3.343573     3.335440     3.327306     3.319172     3.311039     3.302905     3.294771
      3.286638     3.278504     3.270370     3.262237     3.254103     3.245970     3.237836     3.229702     3.221569     3.213435
      3.205301     3.197168     3.189034     3.180900     3.172767     3.164633     3.156499     3.148366     3.140232     3.132098
      3.123965     3.115831     3.107697     3.099564     3.091430     3.083297     3.075163     3.067029     3.058896     3.050762
      3.042628     3.034495     3.026361     3.018227     3.010094     3.001960     2.993826     2.985693     2.977559     2.969425
      2.961292     2.953158     2.945024     2.936891     2.928757     2.920624     2.912490     2.904356     2.896223     2.888089
      2.879955     2.871822     2.863688     2.855554     2.847421     2.839287     2.831153     2.823020     2.814886     2.806752
      2.798619     2.790485     2.782351     2.774218     2.766084     2.757951     2.749817     2.741683     2.733550     2.725416
      2.717282     2.709149     2.701015     2.692881     2.684748     2.676614     2.668480     2.660347     2.652213     2.644079
      2.635946     2.627812     2.619678     2.611545     2.603411     2.595278     2.587144     2.579010     2.570877     2.562743
      2.554609     2.546476     2.538342     2.530208     2.522075     2.513941     2.505807     2.497674     2.489540     2.481406
      2.473273     2.465139     2.457006     2.448872     2.440738     2.432605     2.424471     2.416337     2.408204     2.400070
      2.391936     2.383803     2.375669     2.367535     2.359402     2.351268     2.343134     2.335001     2.326867     2.318733
      2.310600     2.302466     2.294333     2.286199     2.278065     2.269932     2.261798     2.253664     2.245531     2.237397
      2.229263     2.221130     2.212996     2.204862     2.196729     2.188595     2.180461     2.172328     2.164194     2.156060
      2.147927     2.139793     2.131660     2.123526     2.115392     2.107259     2.099125     2.090991     2.082858     2.074724
      2.066590     2.058457     2.050323     2.042189     2.034056     2.025922     2.017788     2.009655     2.001521     1.993387
      1.985254     1.977120     1.968987     1.960853     1.952719     1.944586     1.936452     1.928318     1.920185     1.912051
      1.903917     1.895784     1.887650     1.879516     1.871383     1.863249     1.855115     1.846982     1.838848     1.830714
      1.822581     1.814447     1.806314     1.798180     1.790046     1.781913     1.773779     1.765645     1.757512     1.749378
      1.741244     1.733111     1.724977     1.716843     1.708710     1.700576     1.692442     1.684309     1.676175     1.668041
      1.659908     1.651774     1.643641     1.635507     1.627373     1.619240     1.611106     1.602972     1.594839     1.586705
      1.578571     1.570438     1.562304     1.554170     1.546037     1.537903     1.529769     1.521636     1.513502     1.505368
      1.497235     1.489101     1.480968     1.472834     1.464700     1.456567     1.448433     1.440299     1.432166     1.424032
      1.415898     1.407765     1.399631     1.391497     1.383364     1.375230     1.367096     1.358963     1.350829     1.342695
      1.334562     1.326428     1.318295     1.310161     1.302027     1.293894     1.285760     1.277626     1.269493     1.261359
      1.253225     1.245092     1.236958     1.228824     1.220691     1.212557     1.204423     1.196290     1.188156     1.180022
      1.171889     1.163755     1.155622     1.147488     1.139354     1.131221     1.123087     1.114953     1.106820     1.098686
      1.090552     1.082419     1.074285     1.066151     1.058018     1.049884     1.041750     1.033617     1.025483     1.017349
      1.009216     1.001082     0.992949     0.984815     0.976681     0.968548     0.960414     0.952280     0.944147     0.936013
      0.927879     0.919746     0.911612     0.903478     0.895345     0.887211     0.879077     0.870944     0.862810     0.854676
      0.846543     0.838409     0.830276     0.822142     0.814008     0.805875     0.797741     0.789607     0.781474     0.773340
      0.765206     0.757073     0.748939     0.740805     0.732672     0.724538     0.716404     0.708271     0.700137     0.692003
      0.683870     0.675736     0.667603     0.659469     0.651335     0.643202     0.635068     0.626934     0.618801     0.610667
      0.602533     0.594400     0.586266     0.578132     0.569999     0.561865     0.553731     0.545598     0.537464     0.529330
      0.521197     0.513063     0.504930     0.496796     0.488662     0.480529     0.472395     0.464261     0.456128     0.447994
      0.439861     0.431727     0.423593     0.415460     0.407326     0.399192     0.391059     0.382925     0.374792     0.366658
      0.358524     0.350391     0.342257     0.334124     0.325990     0.317856     0.309723     0.301589     0.293455     0.285322
      0.277188     0.269055     0.260921     0.252787     0.244654     0.236520     0.228386     0.220253     0.212119     0.203986
 NY phased data points follow
  -4.30229E+01 -5.49732E+01 -4.10130E+01 -3.67623E+01 -4.44659E+01 -4.15690E+01 -3.96802E+01 -4.93833E+01 -4.15378E+01 -4.37766E+01
  -4.81886E+01 -6.35074E+01 -7.04052E+01 -4.73548E+01 -7.34749E+01 -8.07299E+01 -5.85545E+01 -7.99430E+01 -9.26580E+01 -9.11015E+01
  -8.81929E+01 -9.08421E+01 -7.70554E+01 -5.21117E+01 -5.24510E+01 -3.87331E+00  9.15262E+00 -1.96255E+01  1.77872E+00 -9.16581E+00
   6.62149E+00  9.57759E+00 -1.37025E+01 -1.07160E+00 -2.39347E+01 -2.03105E+01 -1.72712E+01 -3.75553E+01 -3.56013E+01 -5.17551E+01
  -6.00390E+01 -6.63519E+01 -7.67474E+01 -6.28300E+01 -4.14166E+01 -1.28286E+01 -9.80751E+00  2.73981E+00  3.71699E+01  1.84926E+01
   1.52309E+01  1.76759E+01  8.94947E+00  1.76731E+01  6.14616E+00 -6.55364E+00 -1.83495E+01 -2.58723E+01 -3.39506E+01 -3.24881E+01
  -4.20518E+01 -4.13246E+01 -2.76247E+01 -2.37895E+01  5.67229E+00 -5.16463E+00  3.00074E+00  1.77361E+01 -8.25086E+00 -2.18055E+01
  -4.27245E+01 -4.07300E+01 -3.81337E+01 -2.87654E+01 -1.71829E+01 -1.83324E+00  1.23308E+01  1.39229E+01  3.21693E+01  2.11059E+01
   1.60578E+01  2.94045E+00  2.20175E+00  1.36643E+01 -1.67785E+00 -1.63170E+00 -1.75729E+01 -8.74631E+00 -1.64721E+00  6.33834E+00
   2.69505E+01  3.10189E+01  4.87730E+01  4.55973E+01  6.32983E+01  5.79972E+01  4.23275E+01  7.38661E+01  6.65702E+01  4.77572E+01
   4.35149E+01  3.34180E+01  2.89831E+01  1.06361E+01 -1.35663E+01 -2.27225E+01 -5.04951E+01 -6.64881E+01 -7.61224E+01 -9.10663E+01
  -1.02602E+02 -1.28557E+02 -1.22137E+02 -1.18497E+02 -9.88116E+01 -7.45545E+01 -7.50581E+01 -5.24668E+01 -3.93018E+01 -3.76358E+01
  -2.62410E+01 -5.34736E+00 -2.31485E+00  3.93070E+00 -3.96013E+00 -7.09038E+00  2.26789E+01  3.62766E+01  5.88673E+01  7.14538E+01
   6.61843E+01  5.60840E+01  4.34982E+01 -3.33889E+00 -5.80854E+01 -8.31608E+01 -1.01174E+02 -9.22444E+01 -9.60739E+01 -1.03728E+02
  -9.18942E+01 -8.07998E+01 -8.48897E+01 -7.52680E+01 -7.63503E+01 -8.77272E+01 -6.95458E+01 -8.26386E+01 -7.39041E+01 -6.20030E+01
  -7.58546E+01 -6.46686E+01 -6.02843E+01 -7.13134E+01 -6.25757E+01 -5.10884E+01 -5.64548E+01 -4.72201E+01 -5.38741E+01 -4.50451E+01
  -4.45891E+01 -5.51451E+01 -4.20524E+01 -4.06734E+01 -3.38737E+01 -4.68387E+01 -4.08432E+01 -3.05993E+01 -3.13026E+01 -1.91767E+01
  -1.28223E+01 -1.23656E+01 -2.61627E+01 -1.41868E+01 -2.04772E+00  1.32077E+00  7.95300E+00  5.57176E-01 -6.31025E+00 -4.99198E+00
  -2.20545E+01 -4.51208E+01 -3.88888E+01 -4.21562E+01 -4.78097E+01 -5.39454E+01 -4.83865E+01 -3.47049E+01 -3.70480E+01 -3.51929E+01
  -3.83820E+01 -3.18847E+01 -3.42025E+01 -3.57997E+01 -2.07158E+01 -2.04263E+01 -2.89692E+01 -2.53830E+01 -1.50750E+01 -2.73936E+01
  -2.65860E+01 -2.26217E+01 -3.44932E+01 -1.18459E+01  3.64317E+00 -1.37163E+01 -2.89145E+01 -3.53596E+01 -3.16084E+01 -4.26556E+01
  -4.96161E+01 -4.36655E+01 -4.42622E+01 -2.14633E+01 -1.46708E+01 -1.26094E+01  8.94806E+00  2.42478E+01  3.90340E+01  3.20387E+01
   3.20700E+01  1.61488E+01  4.25444E+00  6.65305E+00 -1.44260E+01 -4.12435E+00 -8.12221E+00 -7.53489E+00  3.85968E+00  3.75538E+00
  -4.11371E+00 -2.67354E+01 -6.72716E+00 -2.82883E+01 -5.17434E+01 -4.25855E+01 -6.79904E+01 -6.94887E+01 -6.87485E+01 -6.93876E+01
  -6.99359E+01 -7.24655E+01 -6.27589E+01 -6.21333E+01 -5.49192E+01 -4.92767E+01 -4.81754E+01 -4.27795E+01 -3.96582E+01 -3.82041E+01
  -5.39453E+01 -5.99612E+01 -5.19124E+01 -6.07778E+01 -5.48881E+01 -5.04856E+01 -4.99930E+01 -3.39557E+01  1.15356E+01  8.79895E+01
   1.37487E+02  1.61319E+02  1.54854E+02  1.30210E+02  1.18920E+02  1.17190E+02  1.13969E+02  9.78140E+01  9.13602E+01  9.21351E+01
   8.73252E+01  9.06142E+01  9.09459E+01  9.03417E+01  1.00525E+02  9.19533E+01  9.04146E+01  8.66377E+01  8.47318E+01  9.22513E+01
   9.41559E+01  1.05770E+02  8.34322E+01  1.01402E+02  1.05718E+02  8.51854E+01  1.09536E+02  9.27658E+01  9.25487E+01  9.07654E+01
   7.47913E+01  7.95464E+01  7.66909E+01  6.60670E+01  5.89636E+01  5.05215E+01  4.09902E+01  4.99078E+01  2.77864E+01  6.64054E+00
  -3.20341E+00  3.87574E+00  2.25874E+01  4.03102E+00 -3.43621E+00 -3.89361E+00 -1.61801E+01 -2.78722E+01 -5.60832E+00  9.82063E+00
   6.36801E+00  2.21074E+01  1.23009E+01  2.16502E+01  5.31029E+01  5.66004E+01  5.85793E+01  4.95533E+01  3.92132E+01  4.28433E+01
   3.86800E+01  3.80239E+01  2.64202E+01  1.07137E+01  6.75304E+00  6.07421E+00  7.67426E+00 -3.60282E+00 -9.52084E+00 -8.98196E+00
  -8.55372E+00 -1.50131E+01 -2.05800E+01 -2.04708E+01 -3.43516E+01 -3.69682E+01 -3.90010E+01 -4.51430E+01 -3.33812E+01 -3.95647E+01
  -5.47877E+01 -4.45105E+01 -4.11644E+01 -5.43093E+01 -5.91734E+01 -6.11619E+01 -5.74797E+01 -3.58070E+01 -4.02940E+01 -4.09983E+01
  -2.92887E+01 -3.13910E+01 -1.46971E+01 -3.13194E+01 -3.21025E+01 -2.73721E+01 -4.19840E+01 -4.35135E+01 -5.28123E+01 -3.20741E+01
  -3.24941E+01 -3.65808E+01 -3.57144E+01 -2.72689E+01 -1.68704E+01 -2.65052E+01 -1.55928E+01 -1.47169E+01 -1.59149E+01 -2.43000E+01
  -1.89447E+01 -1.83981E+00  1.28831E+01  1.66015E+01  2.23648E+01  2.90555E+01  2.23214E+01  2.87898E+01  2.89405E+01  5.27346E+01
   5.77414E+01  7.45767E+01  6.68039E+01  5.02588E+01  8.19783E+01  8.75780E+01  1.05268E+02  9.00247E+01  1.04691E+02  1.04563E+02
   1.03444E+02  1.21259E+02  8.42844E+01  8.70143E+01  6.81266E+01  6.63867E+01  5.40407E+01  4.32720E+01  5.12281E+01  3.28582E+01
   3.79391E+01  9.21526E+00  1.59819E+00 -5.56877E+00 -2.85866E+01 -2.12225E+01 -1.79412E+01 -2.74621E+01 -2.68318E+01 -3.28869E+01
  -4.15710E+01 -2.99324E+01 -3.37033E+01 -2.74337E+01 -3.82611E+01 -3.85475E+01 -3.15941E+01 -3.74147E+01 -2.42711E+01 -4.02163E+01
  -4.42771E+01 -3.09230E+01 -2.21736E+01 -2.90740E+01 -3.07167E+01 -2.22203E+01 -3.34478E+01 -3.26049E+01 -3.30485E+01 -3.22379E+01
  -3.59596E+01 -4.39840E+01 -4.11979E+01 -3.90546E+01 -3.34977E+01 -3.22301E+01 -2.34248E+01 -2.46814E+01 -3.21063E+01 -2.04452E+01
  -3.53071E+01 -4.16696E+01 -2.87360E+01 -2.88464E+01 -2.14108E+01 -2.23335E+01 -1.87014E+01 -3.23897E+01 -4.06251E+01 -2.61665E+01
  -2.69405E+01 -2.85374E+01 -3.13038E+01 -1.23770E+01 -2.02322E+01 -3.56666E+01 -2.17278E+01 -2.68514E+01 -2.42590E+01 -2.60130E+01
  -3.63795E+01 -2.90763E+01 -2.03596E+01 -2.35378E+01 -2.15304E+01 -2.79231E+01 -2.50491E+01 -2.00148E+01 -3.74937E+01 -2.13649E+01
  -1.83071E+01 -3.27432E+01 -2.69128E+01 -2.12536E+01 -1.82019E+01 -1.43466E+01 -1.97085E+01 -3.25570E+01 -1.82098E+01 -2.25748E+01
 NY points of the fit to the data follow
  -5.60123E+01 -5.71401E+01 -5.92482E+01 -6.05758E+01 -6.22429E+01 -5.95750E+01 -5.24499E+01 -4.13490E+01 -3.52171E+01 -3.61964E+01
  -4.27837E+01 -5.04705E+01 -5.63216E+01 -6.14913E+01 -6.64272E+01 -6.86854E+01 -7.24367E+01 -7.72864E+01 -8.22412E+01 -8.78932E+01
  -9.05131E+01 -8.95914E+01 -7.52315E+01 -5.25505E+01 -3.24763E+01 -1.39264E+01 -7.53756E+00 -1.96023E+00  1.00672E+00  2.66125E+00
   4.09905E+00  4.27784E+00  2.81296E+00  8.25916E-01 -3.21449E+00 -7.51819E+00 -1.41581E+01 -2.29382E+01 -3.29444E+01 -4.42545E+01
  -5.47419E+01 -6.39260E+01 -6.47529E+01 -5.56503E+01 -4.15135E+01 -2.28705E+01 -6.95737E+00  7.48937E+00  1.56242E+01  1.96123E+01
   1.90436E+01  1.72834E+01  1.23950E+01  5.20477E+00 -6.30772E-01 -9.52716E+00 -1.80259E+01 -2.40641E+01 -2.88126E+01 -3.38369E+01
  -3.98548E+01 -3.48891E+01 -2.73921E+01 -2.09712E+01 -7.66802E+00  5.89024E-02  5.00701E+00  5.01995E+00 -4.75239E+00 -1.73584E+01
  -3.37975E+01 -4.19663E+01 -3.79462E+01 -3.05509E+01 -1.88624E+01 -6.29136E+00  6.72872E+00  1.75443E+01  2.34254E+01  2.36826E+01
   2.18285E+01  1.60006E+01  4.71878E+00 -6.25879E+00 -1.89610E+01 -2.51600E+01 -2.30239E+01 -1.80387E+01 -3.37020E+00  5.54554E+00
   1.69351E+01  2.39296E+01  3.02303E+01  3.57465E+01  4.13351E+01  4.62728E+01  4.92919E+01  5.22966E+01  5.42278E+01  5.19017E+01
   4.80497E+01  4.17560E+01  3.48360E+01  1.84157E+01  1.03009E+00 -1.48924E+01 -3.64259E+01 -5.15941E+01 -6.52861E+01 -8.16034E+01
  -9.82111E+01 -1.18229E+02 -1.16701E+02 -1.08536E+02 -9.00401E+01 -7.76574E+01 -6.69796E+01 -5.68407E+01 -4.78094E+01 -3.96046E+01
  -3.15686E+01 -2.36478E+01 -1.53666E+01 -6.37836E+00  3.99199E+00  1.62985E+01  2.39412E+01  3.86800E+01  5.39057E+01  6.45359E+01
   7.09781E+01  6.64052E+01  5.10952E+01  3.71504E+00 -4.83942E+01 -7.50408E+01 -9.05221E+01 -8.13935E+01 -8.35319E+01 -8.32632E+01
  -8.17250E+01 -8.15230E+01 -8.19918E+01 -8.26325E+01 -8.25451E+01 -8.20393E+01 -8.12474E+01 -7.95742E+01 -7.73489E+01 -7.42452E+01
  -7.10551E+01 -6.78605E+01 -6.46576E+01 -6.15090E+01 -5.87962E+01 -5.62607E+01 -5.38261E+01 -5.16846E+01 -4.97338E+01 -4.81306E+01
  -4.63751E+01 -4.44800E+01 -4.28298E+01 -4.18608E+01 -4.16546E+01 -4.04780E+01 -3.84282E+01 -3.60576E+01 -3.35213E+01 -3.09005E+01
  -2.74918E+01 -2.27233E+01 -1.62324E+01 -1.00344E+01 -7.36733E+00 -9.98205E+00 -1.27392E+01 -1.26879E+01 -1.06534E+01 -1.21926E+01
  -2.09726E+01 -3.08600E+01 -3.83251E+01 -4.28295E+01 -4.47123E+01 -4.71160E+01 -4.84134E+01 -4.83565E+01 -4.70490E+01 -4.54012E+01
  -4.28749E+01 -3.90924E+01 -3.45854E+01 -3.09820E+01 -2.71270E+01 -2.14177E+01 -1.71536E+01 -1.57041E+01 -1.47116E+01 -1.32884E+01
  -1.08559E+01 -9.89750E+00 -1.07291E+01 -9.28521E+00 -8.64349E+00 -1.06086E+01 -1.58160E+01 -2.28173E+01 -3.05135E+01 -3.61352E+01
  -4.22201E+01 -4.53088E+01 -4.27133E+01 -3.59144E+01 -2.14187E+01 -5.44505E+00  1.50008E+01  3.39046E+01  4.06907E+01  4.63301E+01
   3.89853E+01  3.05178E+01  2.37637E+01  1.63097E+01  1.53423E+01  1.36921E+01  1.13362E+01  8.64908E+00  2.84204E+00 -4.50584E+00
  -1.39810E+01 -2.54810E+01 -3.69320E+01 -4.86675E+01 -5.86992E+01 -6.76332E+01 -7.44289E+01 -7.84368E+01 -8.11046E+01 -8.09289E+01
  -7.83068E+01 -7.46408E+01 -6.88598E+01 -6.11028E+01 -5.41019E+01 -4.74285E+01 -4.28071E+01 -4.27866E+01 -4.24727E+01 -5.08202E+01
  -5.90072E+01 -6.15119E+01 -6.61331E+01 -7.08284E+01 -6.76934E+01 -5.42690E+01 -4.04672E+01 -2.84370E+01  1.05007E+01  7.21988E+01
   1.19266E+02  1.42639E+02  1.37157E+02  1.26610E+02  1.22410E+02  1.14260E+02  1.07252E+02  1.01139E+02  9.57429E+01  9.11426E+01
   8.71450E+01  8.45276E+01  8.28074E+01  8.21203E+01  8.20971E+01  8.17750E+01  8.17835E+01  8.10704E+01  7.99620E+01  7.85938E+01
   7.66089E+01  7.47290E+01  7.22958E+01  6.95409E+01  6.66223E+01  6.36290E+01  6.07369E+01  5.75264E+01  5.41695E+01  5.06220E+01
   4.68355E+01  4.28746E+01  3.84640E+01  3.39919E+01  2.97459E+01  2.57657E+01  2.26476E+01  2.06786E+01  2.00187E+01  2.07790E+01
   2.23947E+01  2.46125E+01  2.70531E+01  2.97821E+01  3.26313E+01  3.54170E+01  3.81780E+01  4.06625E+01  4.31445E+01  4.56025E+01
   4.81609E+01  5.08321E+01  5.33579E+01  5.56123E+01  5.75161E+01  5.91582E+01  6.00999E+01  6.10247E+01  6.07700E+01  5.91662E+01
   5.65318E+01  5.11783E+01  4.35384E+01  3.20368E+01  2.04545E+01  1.07896E+01  1.90112E+00 -2.11997E+00 -6.26987E+00 -1.08463E+01
  -1.65075E+01 -2.39642E+01 -3.00424E+01 -3.45622E+01 -3.71863E+01 -3.84234E+01 -3.56328E+01 -3.20258E+01 -2.67801E+01 -2.19004E+01
  -1.99545E+01 -2.11574E+01 -2.98035E+01 -3.81915E+01 -4.49107E+01 -4.87660E+01 -4.28118E+01 -3.81015E+01 -3.01947E+01 -2.60973E+01
  -2.37531E+01 -2.22943E+01 -2.22371E+01 -2.35411E+01 -2.58780E+01 -2.90397E+01 -3.23909E+01 -3.54338E+01 -3.73297E+01 -3.77546E+01
  -3.69088E+01 -3.46633E+01 -3.17021E+01 -2.78356E+01 -2.35234E+01 -1.91057E+01 -1.45192E+01 -1.01292E+01 -5.88047E+00 -1.73733E+00
   2.25427E+00  6.41212E+00  1.05507E+01  1.48275E+01  1.93776E+01  2.40620E+01  2.91584E+01  3.49270E+01  4.13489E+01  4.81694E+01
   5.55725E+01  6.36506E+01  7.19078E+01  8.03536E+01  8.85691E+01  9.63906E+01  1.03092E+02  1.07753E+02  1.09493E+02  1.07707E+02
   1.02330E+02  9.34873E+01  8.26259E+01  7.14057E+01  6.08732E+01  5.12354E+01  4.24305E+01  3.39782E+01  2.52221E+01  1.59254E+01
   6.19852E+00 -3.21617E+00 -1.21418E+01 -1.95979E+01 -2.56719E+01 -3.03076E+01 -3.36419E+01 -3.62100E+01 -3.77973E+01 -3.90312E+01
  -3.98701E+01 -4.06249E+01 -4.12134E+01 -4.15589E+01 -4.16110E+01 -4.13443E+01 -4.11135E+01 -4.08719E+01 -4.04770E+01 -4.00997E+01
  -3.97583E+01 -3.95662E+01 -3.90177E+01 -3.84455E+01 -3.79672E+01 -3.76340E+01 -3.73344E+01 -3.68272E+01 -3.64232E+01 -3.60671E+01
  -3.56628E+01 -3.50423E+01 -3.45142E+01 -3.40984E+01 -3.38062E+01 -3.36321E+01 -3.32686E+01 -3.28901E+01 -3.23361E+01 -3.18186E+01
  -3.12514E+01 -3.06811E+01 -3.02857E+01 -2.98451E+01 -2.95780E+01 -2.92219E+01 -2.91124E+01 -2.89301E+01 -2.86463E+01 -2.82454E+01
  -2.77694E+01 -2.73816E+01 -2.69766E+01 -2.66607E+01 -2.63648E+01 -2.59002E+01 -2.54239E+01 -2.49042E+01 -2.44118E+01 -2.40072E+01
  -2.36049E+01 -2.32306E+01 -2.28793E+01 -2.25515E+01 -2.22767E+01 -2.20782E+01 -2.17736E+01 -2.13424E+01 -2.08643E+01 -2.01954E+01
  -1.96037E+01 -1.90481E+01 -1.86463E+01 -1.85131E+01 -1.83505E+01 -1.81435E+01 -1.76518E+01 -1.72790E+01 -1.67679E+01 -1.62472E+01
 NY background values follow
    -2.045E+01   -2.039E+01   -2.033E+01   -2.027E+01   -2.021E+01   -2.016E+01   -2.010E+01   -2.004E+01   -1.998E+01   -1.992E+01
    -1.986E+01   -1.980E+01   -1.973E+01   -1.967E+01   -1.961E+01   -1.954E+01   -1.947E+01   -1.941E+01   -1.934E+01   -1.927E+01
    -1.919E+01   -1.912E+01   -1.904E+01   -1.897E+01   -1.889E+01   -1.881E+01   -1.872E+01   -1.864E+01   -1.855E+01   -1.846E+01
    -1.837E+01   -1.827E+01   -1.818E+01   -1.808E+01   -1.798E+01   -1.787E+01   -1.777E+01   -1.766E+01   -1.755E+01   -1.744E+01
    -1.732E+01   -1.721E+01   -1.709E+01   -1.697E+01   -1.685E+01   -1.673E+01   -1.661E+01   -1.649E+01   -1.636E+01   -1.623E+01
    -1.611E+01   -1.598E+01   -1.585E+01   -1.572E+01   -1.559E+01   -1.545E+01   -1.532E+01   -1.519E+01   -1.505E+01   -1.492E+01
    -1.478E+01   -1.465E+01   -1.451E+01   -1.437E+01   -1.424E+01   -1.410E+01   -1.396E+01   -1.383E+01   -1.369E+01   -1.355E+01
    -1.341E+01   -1.328E+01   -1.314E+01   -1.300E+01   -1.287E+01   -1.273E+01   -1.259E+01   -1.246E+01   -1.232E+01   -1.219E+01
    -1.205E+01   -1.192E+01   -1.179E+01   -1.165E+01   -1.152E+01   -1.139E+01   -1.126E+01   -1.113E+01   -1.100E+01   -1.088E+01
    -1.075E+01   -1.062E+01   -1.050E+01   -1.038E+01   -1.025E+01   -1.013E+01   -1.001E+01   -9.889E+00   -9.768E+00   -9.647E+00
    -9.527E+00   -9.407E+00   -9.287E+00   -9.167E+00   -9.046E+00   -8.926E+00   -8.805E+00   -8.683E+00   -8.561E+00   -8.439E+00
    -8.316E+00   -8.192E+00   -8.067E+00   -7.941E+00   -7.814E+00   -7.686E+00   -7.556E+00   -7.426E+00   -7.294E+00   -7.160E+00
    -7.025E+00   -6.888E+00   -6.749E+00   -6.609E+00   -6.468E+00   -6.325E+00   -6.180E+00   -6.035E+00   -5.888E+00   -5.740E+00
    -5.590E+00   -5.440E+00   -5.289E+00   -5.137E+00   -4.983E+00   -4.829E+00   -4.675E+00   -4.519E+00   -4.363E+00   -4.207E+00
    -4.050E+00   -3.892E+00   -3.734E+00   -3.576E+00   -3.417E+00   -3.258E+00   -3.099E+00   -2.940E+00   -2.781E+00   -2.622E+00
    -2.463E+00   -2.304E+00   -2.145E+00   -1.987E+00   -1.829E+00   -1.671E+00   -1.514E+00   -1.358E+00   -1.203E+00   -1.048E+00
    -8.941E-01   -7.412E-01   -5.895E-01   -4.389E-01   -2.895E-01   -1.414E-01    5.217E-03    1.504E-01    2.940E-01    4.359E-01
     5.761E-01    7.145E-01    8.510E-01    9.855E-01    1.118E+00    1.248E+00    1.376E+00    1.502E+00    1.625E+00    1.746E+00
     1.864E+00    1.980E+00    2.093E+00    2.203E+00    2.311E+00    2.417E+00    2.520E+00    2.620E+00    2.718E+00    2.813E+00
     2.906E+00    2.997E+00    3.085E+00    3.171E+00    3.254E+00    3.335E+00    3.414E+00    3.491E+00    3.565E+00    3.637E+00
     3.707E+00    3.774E+00    3.839E+00    3.902E+00    3.963E+00    4.022E+00    4.079E+00    4.134E+00    4.186E+00    4.237E+00
     4.285E+00    4.331E+00    4.375E+00    4.417E+00    4.456E+00    4.492E+00    4.525E+00    4.554E+00    4.581E+00    4.603E+00
     4.622E+00    4.637E+00    4.647E+00    4.653E+00    4.655E+00    4.652E+00    4.644E+00    4.630E+00    4.612E+00    4.588E+00
     4.558E+00    4.522E+00    4.480E+00    4.432E+00    4.377E+00    4.315E+00    4.247E+00    4.172E+00    4.089E+00    3.999E+00
     3.902E+00    3.796E+00    3.683E+00    3.562E+00    3.432E+00    3.294E+00    3.148E+00    2.993E+00    2.830E+00    2.658E+00
     2.476E+00    2.286E+00    2.087E+00    1.878E+00    1.660E+00    1.432E+00    1.195E+00    9.480E-01    6.909E-01    4.238E-01
     1.466E-01   -1.410E-01   -4.390E-01   -7.475E-01   -1.067E+00   -1.397E+00   -1.738E+00   -2.090E+00   -2.453E+00   -2.827E+00
    -3.213E+00   -3.610E+00   -4.018E+00   -4.437E+00   -4.865E+00   -5.302E+00   -5.748E+00   -6.203E+00   -6.666E+00   -7.136E+00
    -7.613E+00   -8.097E+00   -8.587E+00   -9.082E+00   -9.583E+00   -1.009E+01   -1.060E+01   -1.111E+01   -1.163E+01   -1.215E+01
    -1.267E+01   -1.319E+01   -1.372E+01   -1.425E+01   -1.477E+01   -1.530E+01   -1.583E+01   -1.635E+01   -1.688E+01   -1.740E+01
    -1.792E+01   -1.844E+01   -1.895E+01   -1.946E+01   -1.997E+01   -2.047E+01   -2.097E+01   -2.146E+01   -2.195E+01   -2.243E+01
    -2.291E+01   -2.338E+01   -2.384E+01   -2.429E+01   -2.474E+01   -2.518E+01   -2.561E+01   -2.603E+01   -2.644E+01   -2.684E+01
    -2.723E+01   -2.761E+01   -2.798E+01   -2.834E+01   -2.869E+01   -2.902E+01   -2.934E+01   -2.965E+01   -2.995E+01   -3.023E+01
    -3.049E+01   -3.075E+01   -3.099E+01   -3.121E+01   -3.142E+01   -3.162E+01   -3.180E+01   -3.197E+01   -3.213E+01   -3.227E+01
    -3.241E+01   -3.252E+01   -3.263E+01   -3.272E+01   -3.280E+01   -3.287E+01   -3.292E+01   -3.297E+01   -3.300E+01   -3.302E+01
    -3.302E+01   -3.302E+01   -3.300E+01   -3.298E+01   -3.294E+01   -3.289E+01   -3.283E+01   -3.276E+01   -3.268E+01   -3.258E+01
    -3.248E+01   -3.237E+01   -3.224E+01   -3.211E+01   -3.197E+01   -3.182E+01   -3.166E+01   -3.149E+01   -3.132E+01   -3.113E+01
    -3.094E+01   -3.075E+01   -3.054E+01   -3.033E+01   -3.012E+01   -2.990E+01   -2.967E+01   -2.944E+01   -2.921E+01   -2.897E+01
    -2.873E+01   -2.848E+01   -2.823E+01   -2.798E+01   -2.772E+01   -2.747E+01   -2.721E+01   -2.695E+01   -2.669E+01   -2.643E+01
    -2.617E+01   -2.590E+01   -2.564E+01   -2.538E+01   -2.512E+01   -2.486E+01   -2.460E+01   -2.434E+01   -2.408E+01   -2.382E+01
    -2.357E+01   -2.332E+01   -2.306E+01   -2.281E+01   -2.257E+01   -2.232E+01   -2.208E+01   -2.184E+01   -2.161E+01   -2.138E+01
    -2.115E+01   -2.092E+01   -2.070E+01   -2.049E+01   -2.027E+01   -2.006E+01   -1.986E+01   -1.966E+01   -1.947E+01   -1.928E+01
    -1.910E+01   -1.892E+01   -1.875E+01   -1.858E+01   -1.842E+01   -1.826E+01   -1.811E+01   -1.797E+01   -1.782E+01   -1.769E+01
    -1.755E+01   -1.742E+01   -1.730E+01   -1.718E+01   -1.706E+01   -1.695E+01   -1.684E+01   -1.673E+01   -1.663E+01   -1.653E+01
    -1.643E+01   -1.634E+01   -1.625E+01   -1.616E+01   -1.608E+01   -1.600E+01   -1.592E+01   -1.584E+01   -1.577E+01   -1.570E+01
    -1.563E+01   -1.556E+01   -1.550E+01   -1.543E+01   -1.537E+01   -1.531E+01   -1.525E+01   -1.519E+01   -1.514E+01   -1.509E+01
    -1.503E+01   -1.498E+01   -1.493E+01   -1.488E+01   -1.483E+01   -1.479E+01   -1.474E+01   -1.469E+01   -1.465E+01   -1.460E+01
    -1.456E+01   -1.452E+01   -1.447E+01   -1.443E+01   -1.439E+01   -1.434E+01   -1.430E+01   -1.426E+01   -1.421E+01   -1.417E+01
 Mac      Conc. = 3.46E-04
  -4.38927E+01 -4.44557E+01 -4.51077E+01 -4.58053E+01 -4.63306E+01 -4.68923E+01 -4.75342E+01 -4.86513E+01 -4.99687E+01 -5.16065E+01
  -5.32687E+01 -5.47209E+01 -5.58331E+01 -5.62992E+01 -5.66891E+01 -5.71189E+01 -5.73408E+01 -5.77800E+01 -5.77534E+01 -5.68440E+01
  -5.38312E+01 -4.93450E+01 -4.50197E+01 -4.09311E+01 -3.74892E+01 -3.47043E+01 -3.23751E+01 -3.06592E+01 -2.88248E+01 -2.67738E+01
  -2.47280E+01 -2.26079E+01 -2.08602E+01 -1.93004E+01 -1.82684E+01 -1.74487E+01 -1.69199E+01 -1.64229E+01 -1.56605E+01 -1.43895E+01
  -1.23659E+01 -1.04050E+01 -8.95516E+00 -8.33166E+00 -7.87808E+00 -7.18732E+00 -6.18344E+00 -5.06413E+00 -4.67054E+00 -4.79228E+00
  -5.48314E+00 -6.53411E+00 -7.62935E+00 -8.82385E+00 -9.62333E+00 -1.02306E+01 -1.03463E+01 -1.02425E+01 -9.85927E+00 -8.81651E+00
  -7.42659E+00 -5.95126E+00 -4.70194E+00 -3.52994E+00 -2.82563E+00 -2.59183E+00 -2.77211E+00 -3.43270E+00 -3.97687E+00 -4.13456E+00
  -4.02279E+00 -3.46667E+00 -2.54519E+00 -7.26460E-01  1.44720E+00  3.53909E+00  4.85721E+00  5.57426E+00  5.69583E+00  5.49130E+00
   4.96865E+00  4.36039E+00  4.00006E+00  3.79137E+00  3.79658E+00  4.12322E+00  4.87861E+00  5.77233E+00  6.80584E+00  7.75282E+00
   8.49425E+00  9.22894E+00  9.58108E+00  9.94871E+00  9.84157E+00  9.52425E+00  8.67096E+00  7.19260E+00  5.08739E+00  2.66558E+00
  -2.11972E-01 -3.00842E+00 -5.81839E+00 -8.64479E+00 -1.19544E+01 -1.60278E+01 -2.06801E+01 -2.60655E+01 -3.16794E+01 -3.72538E+01
