 
 $NMID
 ID=''
 FMTDAT='(2E13.5)'
 TRAMP=   1.00000E+0
 VOLUME=   1.00000E+0
 $END
   1.70053E+5   6.85024E+5
  -2.80533E+5   1.86725E+6
  -7.59134E+4   1.84118E+6
  -1.30944E+5   1.72751E+6
  -1.27147E+5   1.79471E+6
  -3.76744E+3   1.76576E+6
   1.22786E+4   1.70818E+6
   1.34220E+4   1.73919E+6
   5.76283E+4   1.70756E+6
   4.10163E+4   1.66119E+6
   4.10519E+4   1.66890E+6
   6.96922E+4   1.63814E+6
   5.84416E+4   1.60222E+6
   5.43983E+4   1.59960E+6
   6.30626E+4   1.56509E+6
   5.10431E+4   1.53207E+6
   5.88129E+4   1.52673E+6
   8.08759E+4   1.49819E+6
   8.61612E+4   1.46792E+6
   1.09960E+5   1.45476E+6
   1.30989E+5   1.42348E+6
   1.32574E+5   1.39494E+6
   1.44824E+5   1.37881E+6
   1.57951E+5   1.34935E+6
   1.55101E+5   1.32063E+6
   1.65653E+5   1.29820E+6
   1.68012E+5   1.27124E+6
   1.55740E+5   1.24681E+6
   1.53450E+5   1.22268E+6
   1.60049E+5   1.19191E+6
   1.60826E+5   1.16961E+6
   1.67946E+5   1.14676E+6
   1.74750E+5   1.11616E+6
   1.80152E+5   1.09096E+6
   1.92307E+5   1.06662E+6
   2.05391E+5   1.03783E+6
   2.13943E+5   1.01415E+6
   2.21969E+5   9.91392E+5
   2.25311E+5   9.63314E+5
   2.26324E+5   9.39122E+5
   2.27791E+5   9.15077E+5
   2.27286E+5   8.88954E+5
   2.25971E+5   8.64508E+5
   2.25980E+5   8.41654E+5
   2.23928E+5   8.17218E+5
   2.22235E+5   7.95475E+5
   2.22188E+5   7.73549E+5
   2.20824E+5   7.50531E+5
   2.20601E+5   7.26882E+5
   2.23526E+5   7.04803E+5
   2.25215E+5   6.83892E+5
   2.26033E+5   6.62778E+5
   2.26776E+5   6.41672E+5
   2.26957E+5   6.21433E+5
   2.25736E+5   6.02244E+5
   2.24549E+5   5.82650E+5
   2.22303E+5   5.62987E+5
   2.19660E+5   5.44290E+5
   2.17097E+5   5.25038E+5
   2.15270E+5   5.06776E+5
   2.13265E+5   4.90079E+5
   2.11344E+5   4.72966E+5
   2.08956E+5   4.56398E+5
   2.06190E+5   4.40097E+5
   2.04372E+5   4.23708E+5
   2.02988E+5   4.07741E+5
   2.01022E+5   3.92380E+5
   1.98297E+5   3.77113E+5
   1.96766E+5   3.63151E+5
   1.94318E+5   3.50303E+5
   1.90910E+5   3.37004E+5
   1.88064E+5   3.23534E+5
   1.85976E+5   3.10202E+5
   1.83033E+5   2.98766E+5
   1.79527E+5   2.87370E+5
   1.76382E+5   2.75514E+5
   1.74551E+5   2.64476E+5
   1.71587E+5   2.54116E+5
   1.68668E+5   2.43886E+5
   1.66022E+5   2.33770E+5
   1.63301E+5   2.24705E+5
   1.60496E+5   2.15477E+5
   1.57656E+5   2.06812E+5
   1.55074E+5   1.98334E+5
   1.52092E+5   1.90305E+5
   1.48892E+5   1.82504E+5
   1.46143E+5   1.75226E+5
   1.43587E+5   1.67914E+5
   1.40686E+5   1.61120E+5
   1.38344E+5   1.54558E+5
   1.36137E+5   1.48010E+5
   1.33847E+5   1.42130E+5
   1.31456E+5   1.36410E+5
   1.29072E+5   1.31126E+5
   1.26515E+5   1.25732E+5
   1.24535E+5   1.20645E+5
   1.22304E+5   1.16647E+5
   1.20003E+5   1.12457E+5
   1.17727E+5   1.08605E+5
   1.15600E+5   1.04632E+5
   1.13652E+5   1.01252E+5
   1.11043E+5   9.79916E+4
   1.08763E+5   9.47080E+4
   1.06785E+5   9.14069E+4
   1.04937E+5   8.83082E+4
   1.02852E+5   8.60147E+4
   1.00831E+5   8.32313E+4
   9.90284E+4   8.14219E+4
   9.68447E+4   7.95387E+4
   9.47899E+4   7.74896E+4
   9.33889E+4   7.53073E+4
   9.16241E+4   7.42773E+4
   8.96590E+4   7.33648E+4
   8.76873E+4   7.19469E+4
   8.60273E+4   7.11744E+4
   8.43599E+4   7.02812E+4
   8.28619E+4   6.98712E+4
   8.07910E+4   6.89707E+4
   7.91071E+4   6.83846E+4
   7.76920E+4   6.78000E+4
   7.64284E+4   6.77162E+4
   7.47352E+4   6.75442E+4
   7.34677E+4   6.70700E+4
   7.21760E+4   6.74586E+4
   7.06736E+4   6.75291E+4
   6.91255E+4   6.75702E+4
   6.78137E+4   6.76519E+4
   6.68188E+4   6.79279E+4
   6.51331E+4   6.86678E+4
   6.42042E+4   6.90056E+4
   6.30355E+4   6.93510E+4
   6.16580E+4   6.99165E+4
   6.02572E+4   7.04775E+4
   5.92186E+4   7.11907E+4
   5.80125E+4   7.18913E+4
   5.67863E+4   7.24305E+4
   5.55306E+4   7.30318E+4
   5.45744E+4   7.36542E+4
   5.36455E+4   7.44813E+4
   5.23437E+4   7.53878E+4
   5.10526E+4   7.55830E+4
   5.01737E+4   7.62950E+4
   4.90150E+4   7.67923E+4
   4.81959E+4   7.76277E+4
   4.71361E+4   7.79709E+4
   4.60550E+4   7.84814E+4
   4.49393E+4   7.86922E+4
   4.37839E+4   7.96059E+4
   4.30357E+4   7.97228E+4
   4.19332E+4   8.01639E+4
   4.09995E+4   8.07184E+4
   3.99931E+4   8.07998E+4
   3.90566E+4   8.13134E+4
   3.80669E+4   8.15996E+4
   3.72010E+4   8.19036E+4
   3.60333E+4   8.18335E+4
   3.53183E+4   8.20187E+4
   3.44006E+4   8.21392E+4
   3.32940E+4   8.25169E+4
   3.22324E+4   8.24648E+4
   3.14758E+4   8.26847E+4
   3.05467E+4   8.25776E+4
   2.93001E+4   8.23524E+4
   2.87004E+4   8.21249E+4
   2.77502E+4   8.22755E+4
   2.65173E+4   8.22565E+4
   2.56341E+4   8.21908E+4
   2.48661E+4   8.19796E+4
   2.37472E+4   8.15097E+4
   2.30271E+4   8.15784E+4
   2.20988E+4   8.13185E+4
   2.09431E+4   8.11286E+4
   1.99728E+4   8.07881E+4
   1.90850E+4   8.04785E+4
   1.80281E+4   8.01218E+4
   1.72290E+4   8.00492E+4
   1.60570E+4   7.99549E+4
   1.49673E+4   7.95206E+4
   1.40069E+4   7.89359E+4
   1.31941E+4   7.92055E+4
   1.22433E+4   7.87779E+4
   1.12255E+4   7.86681E+4
   1.02387E+4   7.82991E+4
   9.41088E+3   7.78782E+4
   8.54380E+3   7.76391E+4
   7.60707E+3   7.73031E+4
   7.03940E+3   7.71732E+4
   6.21012E+3   7.69512E+4
   5.67312E+3   7.65466E+4
   4.88147E+3   7.63593E+4
   4.44417E+3   7.64392E+4
   3.37185E+3   7.61101E+4
   2.60713E+3   7.55370E+4
   2.12736E+3   7.50285E+4
   1.52570E+3   7.47262E+4
   8.84363E+2   7.46008E+4
   2.60374E+2   7.42709E+4
  -3.80991E+2   7.41412E+4
  -7.07694E+2   7.35243E+4
  -1.40646E+3   7.35249E+4
  -2.04615E+3   7.28952E+4
  -2.33031E+3   7.23330E+4
  -2.61804E+3   7.19543E+4
  -3.20427E+3   7.16594E+4
  -3.70490E+3   7.15103E+4
  -4.09198E+3   7.09904E+4
  -4.50253E+3   7.05810E+4
  -4.90695E+3   6.97975E+4
  -5.43805E+3   6.94469E+4
  -5.42766E+3   6.90223E+4
  -5.79055E+3   6.85344E+4
  -6.11978E+3   6.82289E+4
  -6.36024E+3   6.78820E+4
  -6.34705E+3   6.72344E+4
  -6.85998E+3   6.66379E+4
  -7.16756E+3   6.59657E+4
  -7.22928E+3   6.52370E+4
  -7.10066E+3   6.48211E+4
  -7.29169E+3   6.42806E+4
  -7.23568E+3   6.35855E+4
  -7.32179E+3   6.27053E+4
  -7.24973E+3   6.24810E+4
  -7.42244E+3   6.19265E+4
  -7.43201E+3   6.13059E+4
  -7.70520E+3   6.05200E+4
  -7.55597E+3   5.96932E+4
  -7.39512E+3   5.93405E+4
  -7.57872E+3   5.87165E+4
  -7.64632E+3   5.79425E+4
  -7.93905E+3   5.71932E+4
  -7.81194E+3   5.64655E+4
  -7.78504E+3   5.58507E+4
  -7.77611E+3   5.47605E+4
  -7.75997E+3   5.43684E+4
  -8.06705E+3   5.35187E+4
  -7.63010E+3   5.26609E+4
  -7.92559E+3   5.21441E+4
  -8.01592E+3   5.14283E+4
  -7.87538E+3   5.06162E+4
  -7.76513E+3   4.96182E+4
  -7.79238E+3   4.90571E+4
  -7.80881E+3   4.85648E+4
  -7.88261E+3   4.78009E+4
  -7.83730E+3   4.71320E+4
  -8.03357E+3   4.65527E+4
  -7.92246E+3   4.56976E+4
  -7.82015E+3   4.51410E+4
  -7.92365E+3   4.44455E+4
  -8.03136E+3   4.37289E+4
  -7.75069E+3   4.29516E+4
  -7.94697E+3   4.23327E+4
  -7.83408E+3   4.16429E+4
  -8.18009E+3   4.11615E+4
  -8.13552E+3   4.07424E+4
  -8.02260E+3   3.97802E+4
  -7.82865E+3   3.94566E+4
  -8.25084E+3   3.88843E+4
  -7.99995E+3   3.80659E+4
  -8.29546E+3   3.78206E+4
  -8.16077E+3   3.69781E+4
  -8.43431E+3   3.64366E+4
  -8.35519E+3   3.59879E+4
  -8.39764E+3   3.52071E+4
  -8.52420E+3   3.47267E+4
  -8.68036E+3   3.44419E+4
  -8.27025E+3   3.38668E+4
  -8.51916E+3   3.36910E+4
  -8.64205E+3   3.28465E+4
  -8.49703E+3   3.24223E+4
  -8.14844E+3   3.19867E+4
  -8.41424E+3   3.12744E+4
  -8.42568E+3   3.10056E+4
  -8.25922E+3   3.04397E+4
  -8.16221E+3   3.02006E+4
  -8.24103E+3   2.96076E+4
  -8.29173E+3   2.92725E+4
  -8.02609E+3   2.87785E+4
  -7.93796E+3   2.82599E+4
  -7.75951E+3   2.79926E+4
  -7.76531E+3   2.72866E+4
  -7.41101E+3   2.75282E+4
  -7.58943E+3   2.68144E+4
  -7.40996E+3   2.62141E+4
  -7.02767E+3   2.60423E+4
  -7.41086E+3   2.55800E+4
  -7.33361E+3   2.52565E+4
  -6.97634E+3   2.47224E+4
  -6.66309E+3   2.44887E+4
  -6.45480E+3   2.42600E+4
  -6.58154E+3   2.37501E+4
  -6.30721E+3   2.34116E+4
  -6.07533E+3   2.30902E+4
  -5.83666E+3   2.24924E+4
  -5.70369E+3   2.22524E+4
  -5.58184E+3   2.16490E+4
  -5.40415E+3   2.16516E+4
  -5.14873E+3   2.12739E+4
  -5.30615E+3   2.10128E+4
  -5.24410E+3   2.05159E+4
  -4.84039E+3   2.01197E+4
  -4.48906E+3   1.96756E+4
  -4.79498E+3   1.93111E+4
  -4.32802E+3   1.91004E+4
  -4.23092E+3   1.84884E+4
  -4.12981E+3   1.81692E+4
  -3.84151E+3   1.77157E+4
  -3.73675E+3   1.73754E+4
  -3.46286E+3   1.70734E+4
  -3.43875E+3   1.66940E+4
  -3.67262E+3   1.64409E+4
  -3.34803E+3   1.62445E+4
  -3.43404E+3   1.57254E+4
  -3.21897E+3   1.51703E+4
  -3.24572E+3   1.49375E+4
  -3.02912E+3   1.44385E+4
  -2.78146E+3   1.42874E+4
  -2.79675E+3   1.39930E+4
  -3.03091E+3   1.35380E+4
  -2.64170E+3   1.31323E+4
  -2.54098E+3   1.29513E+4
  -2.70541E+3   1.26403E+4
  -2.53820E+3   1.24978E+4
  -2.53318E+3   1.17413E+4
  -2.40872E+3   1.15736E+4
  -2.34702E+3   1.10691E+4
  -2.24927E+3   1.09641E+4
  -2.24877E+3   1.07417E+4
  -2.63715E+3   1.04818E+4
  -2.40926E+3   1.02139E+4
  -2.55462E+3   9.72160E+3
  -2.25263E+3   9.61049E+3
  -2.37815E+3   9.20082E+3
  -2.28203E+3   9.19066E+3
  -2.40663E+3   8.72221E+3
  -2.48565E+3   8.49386E+3
  -2.44141E+3   8.39897E+3
  -2.50678E+3   8.20711E+3
  -2.39772E+3   7.64991E+3
  -2.31516E+3   7.45129E+3
  -2.48021E+3   7.44460E+3
  -2.58388E+3   7.07487E+3
  -2.37258E+3   6.65416E+3
  -2.43589E+3   6.72485E+3
  -2.55733E+3   6.33911E+3
  -2.62369E+3   6.29960E+3
  -2.58005E+3   6.02273E+3
  -2.60574E+3   5.80581E+3
  -2.58127E+3   5.85974E+3
  -2.80931E+3   5.59974E+3
  -2.46754E+3   5.21608E+3
  -2.74422E+3   5.13136E+3
  -2.51985E+3   5.22031E+3
  -2.85579E+3   4.80283E+3
  -2.68691E+3   4.77466E+3
  -2.40862E+3   4.75461E+3
  -2.46398E+3   4.49548E+3
  -2.46168E+3   4.40094E+3
  -2.61315E+3   3.88639E+3
  -2.40745E+3   4.09977E+3
  -2.75080E+3   3.65094E+3
  -2.59996E+3   3.62697E+3
  -2.32009E+3   3.78724E+3
  -2.36633E+3   3.38691E+3
  -2.31449E+3   3.38144E+3
  -2.48847E+3   2.96678E+3
  -2.32803E+3   3.03704E+3
  -2.37735E+3   2.66281E+3
