 
 $NMID
 ID=''
 FMTDAT='(2E13.5)'
 TRAMP=   1.00000E+0
 VOLUME=   1.00000E+0
 $END
   7.56399E+5   9.22736E+4
   1.75092E+6   9.33252E+5
   1.75936E+6   7.63885E+5
   1.62374E+6   8.44713E+5
   1.69760E+6   8.90636E+5
   1.68581E+6   7.96653E+5
   1.62703E+6   8.19334E+5
   1.65975E+6   8.56305E+5
   1.62717E+6   8.25796E+5
   1.57123E+6   8.68162E+5
   1.58125E+6   8.95267E+5
   1.54448E+6   8.79384E+5
   1.50295E+6   9.15657E+5
   1.50338E+6   9.41477E+5
   1.46038E+6   9.43269E+5
   1.42055E+6   9.77521E+5
   1.42209E+6   9.94029E+5
   1.39246E+6   9.90244E+5
   1.36400E+6   1.01085E+6
   1.36565E+6   1.01125E+6
   1.33597E+6   1.00787E+6
   1.30832E+6   1.02704E+6
   1.29849E+6   1.03230E+6
   1.26724E+6   1.03256E+6
   1.23489E+6   1.05062E+6
   1.21960E+6   1.05084E+6
   1.18631E+6   1.05824E+6
   1.15183E+6   1.08091E+6
   1.12426E+6   1.08623E+6
   1.09430E+6   1.08502E+6
   1.07226E+6   1.09764E+6
   1.05346E+6   1.09818E+6
   1.02493E+6   1.09614E+6
   1.00526E+6   1.10013E+6
   9.90367E+5   1.09499E+6
   9.72000E+5   1.08994E+6
   9.57023E+5   1.09291E+6
   9.39027E+5   1.09110E+6
   9.11783E+5   1.08916E+6
   8.89000E+5   1.09250E+6
   8.64952E+5   1.09224E+6
   8.36623E+5   1.09092E+6
   8.12157E+5   1.09079E+6
   7.88187E+5   1.08994E+6
   7.59449E+5   1.08907E+6
   7.34712E+5   1.08996E+6
   7.11606E+5   1.08850E+6
   6.86081E+5   1.08603E+6
   6.63376E+5   1.08036E+6
   6.43865E+5   1.07467E+6
   6.23915E+5   1.07084E+6
   6.03791E+5   1.06766E+6
   5.83888E+5   1.06223E+6
   5.63736E+5   1.05818E+6
   5.42255E+5   1.05401E+6
   5.19467E+5   1.04937E+6
   4.95337E+5   1.04447E+6
   4.72327E+5   1.03869E+6
   4.51069E+5   1.03174E+6
   4.29876E+5   1.02627E+6
   4.08274E+5   1.02054E+6
   3.87630E+5   1.01397E+6
   3.67594E+5   1.00766E+6
   3.47012E+5   1.00049E+6
   3.27193E+5   9.92070E+5
   3.09158E+5   9.81845E+5
   2.91769E+5   9.73353E+5
   2.73635E+5   9.64809E+5
   2.56075E+5   9.56917E+5
   2.37122E+5   9.49441E+5
   2.18325E+5   9.40430E+5
   1.99865E+5   9.30594E+5
   1.83248E+5   9.21644E+5
   1.65706E+5   9.13056E+5
   1.47618E+5   9.03245E+5
   1.30962E+5   8.92767E+5
   1.15295E+5   8.83066E+5
   9.94752E+4   8.72975E+5
   8.38739E+4   8.62309E+5
   6.88176E+4   8.51198E+5
   5.38290E+4   8.40313E+5
   3.93517E+4   8.29071E+5
   2.55515E+4   8.18797E+5
   1.03883E+4   8.07621E+5
  -4.69354E+3   7.96434E+5
  -1.91204E+4   7.84607E+5
  -3.28228E+4   7.73462E+5
  -4.70257E+4   7.62216E+5
  -6.08246E+4   7.50432E+5
  -7.29610E+4   7.38727E+5
  -8.41869E+4   7.26783E+5
  -9.54001E+4   7.15564E+5
  -1.06488E+5   7.04254E+5
  -1.16663E+5   6.92101E+5
  -1.25722E+5   6.79981E+5
  -1.34222E+5   6.68045E+5
  -1.42717E+5   6.57435E+5
  -1.51727E+5   6.46606E+5
  -1.60116E+5   6.35509E+5
  -1.67871E+5   6.23757E+5
  -1.76086E+5   6.12788E+5
  -1.84696E+5   6.02000E+5
  -1.93135E+5   5.89712E+5
  -2.00101E+5   5.77379E+5
  -2.06539E+5   5.65822E+5
  -2.12793E+5   5.55327E+5
  -2.18932E+5   5.44360E+5
  -2.25475E+5   5.32401E+5
  -2.30859E+5   5.20592E+5
  -2.34791E+5   5.09594E+5
  -2.38857E+5   4.99042E+5
  -2.43976E+5   4.88284E+5
  -2.48999E+5   4.77252E+5
  -2.53029E+5   4.66358E+5
  -2.56964E+5   4.55528E+5
  -2.61032E+5   4.44974E+5
  -2.65026E+5   4.34309E+5
  -2.68101E+5   4.23066E+5
  -2.70794E+5   4.12234E+5
  -2.73004E+5   4.02252E+5
  -2.75684E+5   3.92382E+5
  -2.78268E+5   3.82326E+5
  -2.80431E+5   3.72307E+5
  -2.82400E+5   3.62102E+5
  -2.84454E+5   3.52024E+5
  -2.85901E+5   3.41443E+5
  -2.86850E+5   3.31173E+5
  -2.88060E+5   3.21026E+5
  -2.89662E+5   3.11397E+5
  -2.90790E+5   3.01302E+5
  -2.92168E+5   2.91114E+5
  -2.93080E+5   2.80270E+5
  -2.93893E+5   2.70622E+5
  -2.94190E+5   2.60809E+5
  -2.94527E+5   2.51155E+5
  -2.95002E+5   2.41711E+5
  -2.94988E+5   2.32595E+5
  -2.94546E+5   2.23994E+5
  -2.95029E+5   2.15270E+5
  -2.94736E+5   2.05910E+5
  -2.94257E+5   1.97131E+5
  -2.93062E+5   1.88367E+5
  -2.91952E+5   1.80419E+5
  -2.91212E+5   1.72399E+5
  -2.90905E+5   1.64045E+5
  -2.89481E+5   1.55830E+5
  -2.88330E+5   1.47596E+5
  -2.87009E+5   1.39869E+5
  -2.85504E+5   1.32055E+5
  -2.83968E+5   1.24849E+5
  -2.81889E+5   1.17455E+5
  -2.80496E+5   1.10545E+5
  -2.78502E+5   1.04056E+5
  -2.76889E+5   9.73452E+4
  -2.74911E+5   9.06949E+4
  -2.72478E+5   8.44873E+4
  -2.70098E+5   7.84859E+4
  -2.68400E+5   7.28470E+4
  -2.65916E+5   6.70544E+4
  -2.63639E+5   6.11082E+4
  -2.61223E+5   5.60523E+4
  -2.58589E+5   5.04584E+4
  -2.56041E+5   4.52036E+4
  -2.53400E+5   4.01662E+4
  -2.50656E+5   3.55700E+4
  -2.47804E+5   3.12357E+4
  -2.44973E+5   2.68440E+4
  -2.42846E+5   2.24438E+4
  -2.39825E+5   1.82529E+4
  -2.37010E+5   1.45084E+4
  -2.33977E+5   1.06371E+4
  -2.31038E+5   6.88621E+3
  -2.28052E+5   3.13959E+3
  -2.24780E+5  -3.57030E+2
  -2.21890E+5  -3.62414E+3
  -2.19001E+5  -7.11443E+3
  -2.15998E+5  -1.04546E+4
  -2.12642E+5  -1.36174E+4
  -2.09245E+5  -1.64813E+4
  -2.06175E+5  -1.93319E+4
  -2.03392E+5  -2.21239E+4
  -2.00254E+5  -2.51145E+4
  -1.97132E+5  -2.78944E+4
  -1.93438E+5  -3.03372E+4
  -1.90204E+5  -3.26952E+4
  -1.86878E+5  -3.48443E+4
  -1.83553E+5  -3.71520E+4
  -1.80300E+5  -3.93020E+4
  -1.77247E+5  -4.10153E+4
  -1.74330E+5  -4.29184E+4
  -1.70951E+5  -4.50831E+4
  -1.67990E+5  -4.72706E+4
  -1.64184E+5  -4.92586E+4
  -1.61022E+5  -5.07895E+4
  -1.57982E+5  -5.23840E+4
  -1.54774E+5  -5.42196E+4
  -1.51253E+5  -5.58080E+4
  -1.47896E+5  -5.73788E+4
  -1.44776E+5  -5.87513E+4
  -1.41654E+5  -6.06057E+4
  -1.38306E+5  -6.19344E+4
  -1.34766E+5  -6.31266E+4
  -1.31468E+5  -6.37884E+4
  -1.28429E+5  -6.51125E+4
  -1.25633E+5  -6.61144E+4
  -1.22244E+5  -6.75891E+4
  -1.18805E+5  -6.85540E+4
  -1.15800E+5  -6.91554E+4
  -1.12606E+5  -6.99573E+4
  -1.09803E+5  -7.07030E+4
  -1.06612E+5  -7.16152E+4
  -1.03638E+5  -7.23044E+4
  -1.00594E+5  -7.29222E+4
  -9.76930E+4  -7.35588E+4
  -9.48547E+4  -7.41501E+4
  -9.17071E+4  -7.45372E+4
  -8.88730E+4  -7.47273E+4
  -8.61645E+4  -7.50181E+4
  -8.34824E+4  -7.50621E+4
  -8.09415E+4  -7.50409E+4
  -7.80742E+4  -7.53412E+4
  -7.55377E+4  -7.56630E+4
  -7.31363E+4  -7.54132E+4
  -7.05202E+4  -7.55259E+4
  -6.80236E+4  -7.54961E+4
  -6.56580E+4  -7.51573E+4
  -6.32304E+4  -7.50197E+4
  -6.10014E+4  -7.48041E+4
  -5.88447E+4  -7.48590E+4
  -5.66596E+4  -7.40319E+4
  -5.44080E+4  -7.37943E+4
  -5.21687E+4  -7.35456E+4
  -5.01528E+4  -7.28472E+4
  -4.82943E+4  -7.23596E+4
  -4.62129E+4  -7.18561E+4
  -4.46417E+4  -7.13980E+4
  -4.26322E+4  -7.08800E+4
  -4.08629E+4  -7.03845E+4
  -3.88692E+4  -6.97398E+4
  -3.71903E+4  -6.91979E+4
  -3.59180E+4  -6.80044E+4
  -3.42663E+4  -6.74463E+4
  -3.26104E+4  -6.71371E+4
  -3.07960E+4  -6.63678E+4
  -2.92051E+4  -6.52747E+4
  -2.79447E+4  -6.42212E+4
  -2.64659E+4  -6.38530E+4
  -2.49208E+4  -6.30771E+4
  -2.34684E+4  -6.21804E+4
  -2.21421E+4  -6.11101E+4
  -2.09203E+4  -6.03954E+4
  -1.96705E+4  -5.95310E+4
  -1.83481E+4  -5.85589E+4
  -1.71198E+4  -5.76690E+4
  -1.57733E+4  -5.68034E+4
  -1.46730E+4  -5.57089E+4
  -1.34022E+4  -5.50353E+4
  -1.23060E+4  -5.41483E+4
  -1.10682E+4  -5.30046E+4
  -1.00316E+4  -5.22562E+4
  -8.94487E+3  -5.12586E+4
  -7.89318E+3  -5.01381E+4
  -6.65375E+3  -4.93954E+4
  -5.84476E+3  -4.80201E+4
  -4.82397E+3  -4.72832E+4
  -3.84456E+3  -4.61741E+4
  -2.88172E+3  -4.55950E+4
  -1.96924E+3  -4.46249E+4
  -9.10343E+2  -4.33117E+4
  -2.40489E+2  -4.24382E+4
   7.82287E+2  -4.15548E+4
   1.46825E+3  -4.02447E+4
   2.43922E+3  -3.95349E+4
   3.10281E+3  -3.85043E+4
   3.80957E+3  -3.75999E+4
   4.54899E+3  -3.68000E+4
   5.36158E+3  -3.54181E+4
   6.01350E+3  -3.46346E+4
   6.56908E+3  -3.35289E+4
   7.29451E+3  -3.26895E+4
   7.88724E+3  -3.16860E+4
   8.47293E+3  -3.06768E+4
   9.04935E+3  -2.95505E+4
   9.53319E+3  -2.89017E+4
   9.93787E+3  -2.80605E+4
   1.05384E+4  -2.72224E+4
   1.07642E+4  -2.62224E+4
   1.12077E+4  -2.54407E+4
   1.16765E+4  -2.43995E+4
   1.21359E+4  -2.37938E+4
   1.23213E+4  -2.24837E+4
   1.27578E+4  -2.19921E+4
   1.29365E+4  -2.11023E+4
   1.31185E+4  -2.01354E+4
   1.35098E+4  -1.93855E+4
   1.36359E+4  -1.83588E+4
   1.38703E+4  -1.77279E+4
   1.42182E+4  -1.70161E+4
   1.40960E+4  -1.58922E+4
   1.44147E+4  -1.50910E+4
   1.46920E+4  -1.47872E+4
   1.44678E+4  -1.38682E+4
   1.46851E+4  -1.30864E+4
   1.47122E+4  -1.22640E+4
   1.48714E+4  -1.16307E+4
   1.48331E+4  -1.08457E+4
   1.47868E+4  -1.03281E+4
   1.48673E+4  -9.15363E+3
   1.47467E+4  -8.66908E+3
   1.46690E+4  -7.99508E+3
   1.47429E+4  -7.52308E+3
   1.46474E+4  -6.79367E+3
   1.46310E+4  -6.12190E+3
   1.44866E+4  -5.64360E+3
   1.42861E+4  -4.73309E+3
   1.44672E+4  -4.28591E+3
   1.40144E+4  -3.57951E+3
   1.40977E+4  -2.92804E+3
   1.38971E+4  -2.05426E+3
   1.37992E+4  -1.89787E+3
   1.35322E+4  -1.24602E+3
   1.34400E+4  -5.96400E+2
   1.33780E+4  -6.31434E+1
   1.30967E+4   7.84571E+2
   1.28219E+4   1.14634E+3
   1.25601E+4   1.71741E+3
   1.24957E+4   2.18228E+3
   1.22809E+4   2.75556E+3
   1.22477E+4   3.40665E+3
   1.18914E+4   3.63894E+3
   1.14889E+4   4.19785E+3
   1.13977E+4   4.24300E+3
   1.08963E+4   4.97595E+3
   1.07698E+4   5.65515E+3
   1.06843E+4   5.99949E+3
   1.02330E+4   6.45090E+3
   1.02686E+4   6.73628E+3
   9.91971E+3   7.26708E+3
   9.92400E+3   7.56204E+3
   9.37560E+3   7.92656E+3
   9.04311E+3   8.19629E+3
   8.78257E+3   8.64942E+3
   8.68787E+3   8.96690E+3
   8.62273E+3   9.30232E+3
   7.92050E+3   9.44631E+3
   7.76590E+3   9.65573E+3
   7.55344E+3   1.02661E+4
   7.13962E+3   1.04695E+4
   7.09932E+3   1.05710E+4
   6.76425E+3   1.07061E+4
   6.71665E+3   1.10203E+4
   6.09528E+3   1.13461E+4
   5.98711E+3   1.14246E+4
   5.76573E+3   1.18099E+4
   5.35082E+3   1.18729E+4
   5.00757E+3   1.22215E+4
   4.87011E+3   1.23663E+4
   4.84570E+3   1.25734E+4
   4.20593E+3   1.26652E+4
   4.22731E+3   1.27644E+4
   4.01734E+3   1.29220E+4
   3.41435E+3   1.31507E+4
   3.03490E+3   1.31110E+4
   2.79635E+3   1.32863E+4
   2.66369E+3   1.30726E+4
   2.72132E+3   1.34850E+4
   2.04050E+3   1.37332E+4
