 
 $NMID
 ID=''
 FMTDAT='(2E13.5)'
 TRAMP=   1.00000E+0
 VOLUME=   1.00000E+0
 $END
  -1.79053E+4  -4.13575E+3
  -3.60625E+4   7.41846E+3
  -8.97307E+3   3.47198E+4
   3.06800E+4   2.13059E+4
   2.67072E+4  -1.92091E+4
  -6.33051E+3  -3.53391E+4
  -2.61581E+4  -1.12615E+4
  -1.62375E+4   2.00774E+4
   1.26451E+4   2.36011E+4
   2.74584E+4   3.96379E+1
   9.15646E+3  -1.82408E+4
  -1.48301E+4  -1.32900E+4
  -1.58613E+4   5.45160E+3
  -2.30287E+3   1.75605E+4
   9.76599E+3   9.52714E+3
   1.06661E+4  -8.74399E+3
  -9.88246E+2  -1.43237E+4
  -1.18053E+4  -2.98462E+3
  -8.98028E+3   7.46176E+3
   3.41986E+3   8.02597E+3
   9.63307E+3  -3.66508E+2
   5.34858E+3  -9.37698E+3
  -3.14839E+3  -7.30015E+3
  -8.05343E+3   3.12934E+3
  -2.98544E+3   8.19991E+3
   6.95319E+3   4.51632E+3
   8.86396E+3  -8.12045E+2
  -1.03661E+3  -5.05980E+3
  -9.06292E+3  -4.33160E+3
  -5.44743E+3   2.26632E+3
   2.45575E+3   7.33733E+3
   5.35934E+3   3.39825E+3
   2.70198E+3  -4.46044E+3
  -2.91634E+3  -7.24880E+3
  -4.94214E+3  -2.21704E+3
  -1.05852E+3   4.34584E+3
   3.86871E+3   5.56826E+3
   4.70721E+3   2.77226E+2
   1.94865E+3  -4.45583E+3
  -2.82340E+3  -2.99286E+3
  -4.85864E+3   2.09422E+3
  -1.20567E+3   3.29972E+3
   4.12565E+3   1.30985E+3
   4.02817E+3  -1.61721E+3
  -9.38460E+1  -3.07995E+3
  -2.21942E+3  -9.36032E+2
  -1.91935E+3   3.16841E+3
  -8.82787E+2   3.11196E+3
   9.87483E+2  -4.04433E+2
   2.04295E+3  -2.90316E+3
   3.46603E+2  -2.07601E+3
  -1.56389E+3  -8.76549E+1
  -5.12661E+2   9.86113E+2
   1.37469E+3   1.61569E+3
   2.06157E+3   7.66191E+2
   5.48653E+2  -5.45152E+2
  -1.73826E+3  -1.57891E+3
  -1.51660E+3  -9.72702E+2
   4.26278E+2   6.66041E+2
   1.38434E+3   1.58091E+3
   1.26143E+3   5.12797E+2
   5.32778E+2  -5.78462E+2
  -2.57257E+2  -2.28763E+2
  -2.20277E+3   6.91317E+2
  -2.08978E+3   5.71072E+2
   1.72167E+1  -5.22247E+2
   1.75062E+3  -1.20613E+3
   1.34912E+3  -1.09208E+3
  -1.90752E+2  -3.45780E+2
  -9.20998E+2   3.31989E+2
  -3.26206E+2   8.85108E+2
   1.33009E+3   3.25712E+2
   1.62181E+3  -3.59349E+1
  -2.00554E+2  -3.12202E+2
  -1.23417E+3  -3.49202E+2
  -8.89016E+2   3.97572E+2
   6.34573E+1   9.44909E+2
   6.37314E+2   6.87530E+2
   2.52297E+2  -3.73606E+2
  -4.61615E+2  -8.42030E+2
  -8.55036E+2  -6.75597E+2
  -3.57547E+2   1.99819E+2
   4.71673E+2   6.43825E+2
   1.22895E+3   2.16420E+2
   4.81767E+2  -1.25185E+3
  -1.19400E+2  -9.70120E+2
  -1.99987E+2   3.48402E+2
  -3.90357E+2   8.67188E+2
   2.77367E+2   4.70740E+2
   9.70884E+2  -2.18642E+2
   5.46332E+2  -4.60714E+2
  -7.30155E+2   8.81145E+1
  -1.34608E+3   4.25405E+2
  -5.75434E+2   2.55415E+2
   9.67247E+2  -5.12639E+2
   9.86684E+2  -7.33678E+2
  -1.36804E+0  -8.27302E+2
  -8.97808E+2  -8.76689E+1
  -1.35185E+2   3.15408E+2
   7.39585E+2   7.51938E+2
   7.79764E+2   2.95511E+2
  -3.31120E+2  -3.87711E+2
  -9.14874E+2  -9.59836E+2
  -3.37371E+2  -5.16951E+2
   3.61588E+2   7.22764E+2
   6.25297E+2   8.33060E+2
   5.78846E+1   9.77155E+1
  -6.43367E+2  -1.30844E+3
  -6.33462E+2  -1.37213E+3
   3.15478E+2  -8.87246E+0
   8.84081E+2   9.98898E+2
   2.88671E+2   6.67190E+2
  -8.19862E+1  -4.00291E+2
  -2.15064E+2  -6.63652E+2
  -5.19148E+2  -1.31043E+2
  -6.58044E+2   3.02979E+2
  -2.14888E+2   2.36530E+2
   4.01667E+2  -1.00920E+3
   5.99074E+2  -9.57506E+2
   2.33271E+1  -1.59306E+2
  -3.75815E+2   4.83416E+2
  -2.72841E+2   5.56820E+2
   1.00232E+2   2.87296E+2
   2.24782E+2  -3.56724E+1
  -6.66290E+2  -6.19184E+2
  -5.96043E+2  -4.88890E+2
   6.45225E+1   1.37510E+1
   3.80574E+2   5.58893E+2
   2.73291E+2   2.75305E+2
  -1.74441E+2   7.17789E+0
  -7.01869E+2  -4.20396E+2
  -2.95146E+2  -3.91404E+2
   1.23675E+2   3.01494E+2
   2.07820E+2   3.98917E+2
   4.30926E+2  -2.23793E+2
   1.89427E+2  -3.24969E+2
  -4.54535E+1  -1.30205E+2
  -2.19684E+2   2.20030E+1
  -1.14668E+2   4.99327E+2
  -2.11787E+2   8.71947E+1
   2.67971E+2  -5.93772E+2
   4.30994E+2  -5.98064E+1
   7.98078E+0   4.04616E+2
  -3.99316E+2   6.10270E+2
  -4.58426E+2   2.16729E+2
   1.50349E+2  -7.67063E+2
  -4.93465E+1  -5.65321E+2
  -1.73903E+0  -1.64716E+2
  -2.22560E-1  -2.72297E+2
  -6.64339E+0  -1.51513E+2
   6.14458E+2   4.16214E+1
   4.47573E+2   1.29740E+2
  -1.31026E+2   2.89230E+2
  -4.61553E+2   7.71105E+1
  -1.10131E+2  -1.04851E+2
   1.70513E+2   5.72395E+1
  -3.51919E+1   1.16786E+2
  -5.32872E+1  -9.88751E+1
  -4.12537E+1  -4.24252E+2
  -1.12289E+2  -1.91922E+2
  -2.77115E+2  -1.50930E+2
   4.60565E+1  -1.64351E+1
   2.50973E+2  -9.90616E+1
   4.35013E+1  -3.83338E+2
   5.29706E+2  -3.54116E+2
   1.82216E+2   2.53283E+2
  -4.11267E+2   2.34444E+2
  -5.44550E+1  -5.89546E+1
   2.73474E+2  -3.37626E+2
   3.22113E+2  -3.38736E+2
  -2.42186E+2   2.07184E+1
  -3.56364E+2  -9.83524E+1
  -1.47409E+2   5.39760E+1
   3.16622E+2  -2.41217E+2
   1.73570E+2   1.24680E+2
  -3.29858E+2   1.10659E+1
  -3.56434E+2  -4.36927E+2
  -5.99909E+1  -3.90027E+2
   2.09189E+2   1.31514E+2
   1.36059E+2   2.47400E+2
  -1.17500E+2   3.43056E+1
  -2.93974E+2  -3.25095E+2
  -2.51913E+2  -4.32725E+2
   2.68611E+1  -1.58829E+2
   4.13989E+1  -2.09669E+2
  -4.83529E+1  -1.06098E+2
   8.05209E+1  -3.43303E+2
   2.17700E+2   8.07110E+1
   2.25170E+2   2.36761E+2
  -2.39700E+2   7.23167E+2
  -4.52485E+2  -6.64237E+0
  -1.82632E+2  -5.61460E+2
   5.23925E+0  -2.28206E+2
   1.03326E+2  -1.87285E+2
  -9.70127E+1   3.70232E+2
  -1.65259E+0  -1.38646E+2
  -5.51144E+1   1.32370E+2
  -6.18199E+1  -7.96179E+1
  -3.32052E+2  -5.34408E+1
  -3.50046E+2  -2.32669E+2
  -1.26653E+2  -3.61996E+2
   4.87056E+2  -1.29997E+2
   2.41449E+2   2.74470E+2
  -7.56309E+1   3.21441E+2
  -2.91203E+2  -2.16310E+2
  -2.10064E+2  -3.89328E+2
   3.61101E+1  -8.11381E+1
   1.52726E+2   4.35580E+1
   9.75632E+0   7.27795E+1
  -1.39077E+2  -1.40614E+2
   3.53978E+2   8.63527E+1
   1.03304E+2  -2.64066E+1
  -1.50835E+2   1.62613E+2
  -4.46882E+2  -1.71675E+2
  -4.32943E+1  -4.49948E+2
   1.64557E+2  -5.80497E+2
   2.58981E+2   8.89263E+1
  -3.79993E+1   7.28040E+1
   6.39512E+1   8.24279E+1
  -2.92395E+1  -1.72701E+1
   2.11514E+2   2.16119E+2
   9.14790E+1  -5.12518E+1
  -2.82102E+2   2.81488E+1
  -7.17233E+1  -9.26273E+1
   1.91931E+2  -2.97323E+2
   2.03527E+2   1.24586E+2
  -1.11287E+2   1.98341E+2
  -3.18976E+2   3.83197E+1
  -1.36778E+2  -3.63993E+2
   2.18300E+2  -3.30398E+2
   2.08315E+2   8.89811E+1
  -7.52039E+1  -1.60869E+2
  -2.71752E+2  -1.19872E+2
  -1.83392E+2  -2.86794E+2
   1.48966E+2   1.62158E+1
  -1.06922E+1   8.72203E+1
  -1.60628E+2  -6.52453E+0
  -2.74198E+2  -2.44451E+2
   1.66972E+2  -5.50561E+1
   6.56225E+1  -1.41179E+2
  -2.00403E+2   2.90150E+2
  -9.38405E+1  -7.39880E+1
  -2.22564E+2  -2.40399E+2
   9.07108E+0  -1.22895E+2
   4.60838E+1  -1.00923E+2
  -1.60525E+2   2.56025E+2
  -1.41841E+1  -4.12184E+1
  -8.43654E+1  -1.10847E+2
   2.44761E+2  -2.92513E+1
  -7.60323E+1   2.25064E+2
  -2.38260E+2  -7.59405E+1
  -2.41695E+2  -1.00807E+1
  -8.92824E+1  -2.01502E+2
   3.76096E+1   3.54992E+1
   2.19174E+2   4.08762E+1
  -1.59279E+2  -1.31956E+1
  -2.19024E+2  -6.46850E+1
  -1.49241E+2   5.15288E+0
  -1.30933E+2   2.48429E+1
  -2.59951E+2   9.95826E+1
  -1.61008E+1   7.07857E+1
   1.87829E+2  -2.83961E+0
   2.11853E+2   2.13689E+2
   5.59269E+1  -1.94989E+1
  -2.18558E+2   1.74708E+2
  -5.82363E+1  -6.89794E+1
   1.90625E+2   4.80249E+0
   1.38213E+2   4.56671E+1
   1.08835E+1  -2.65694E+1
  -2.72586E+1  -6.87271E+1
   1.39551E+2  -5.75179E+1
  -1.95325E+2   1.31797E+2
   7.20238E+1  -4.34990E+1
  -1.07284E+2   2.23998E+1
  -4.76912E+1  -4.20574E+0
   9.41972E+1  -9.30243E+1
   1.60683E+2  -1.03507E+2
   3.59471E+1   9.31400E+1
  -2.60258E+2  -1.37130E+1
  -1.72589E+2   2.80377E+2
   1.00282E+2  -1.32778E+2
   5.06380E+1   5.46695E+1
   1.74792E+2  -7.58185E+1
  -4.43587E+1   2.07487E+1
   4.13238E+1  -1.88222E+2
   2.13067E+2  -6.59031E+1
   2.86460E+2   1.76760E+2
  -1.72389E+1   8.92362E+1
  -3.53805E+2  -4.05298E+0
   1.43692E+2  -1.29994E+2
   1.00885E+2  -1.10444E+2
   1.54657E+2  -1.24692E+2
   5.63079E+1   8.76812E+1
  -9.16414E+0   5.24240E+1
   8.29326E+1  -1.41343E+2
  -1.17939E+2  -7.86296E+1
  -4.22641E+1   2.19904E+2
  -1.98281E+2  -9.98149E+1
   3.49704E+1  -1.37870E+2
   3.53767E+1  -7.48268E+1
   2.19060E+2   6.65236E+0
   1.01757E+2   2.58525E+1
  -1.29047E+2  -1.44605E+2
   1.99083E+2  -1.24481E+2
   3.33491E+2   6.47146E+1
   3.05912E+2  -8.31954E+1
   1.76028E+1   1.29517E+2
  -1.97909E+2  -4.36107E+1
   2.00585E+1  -2.44762E+2
   9.97278E+1   1.03224E+2
  -1.74258E+2   8.04927E+1
  -1.83891E+2  -1.37509E+2
  -2.32277E+2   2.19118E+1
  -2.21793E+2  -2.88906E+2
  -1.44808E+0   2.38575E+1
   1.52713E+2  -1.08934E+2
  -1.73196E+2  -1.10965E+2
  -1.48585E+2  -3.45287E+1
  -4.18527E+1  -1.52751E+2
   2.57124E+1   3.58084E+1
   1.15096E+2  -8.95120E+1
   1.17222E+2   1.51880E+2
   9.30904E+1   7.81374E+1
   2.32589E+2  -2.25093E+2
  -2.08150E+2   9.04148E+1
  -4.03782E+2   3.15285E+0
  -1.86728E+1   1.86147E+1
   2.29378E+2  -1.25373E+2
   3.67545E+2  -7.77214E+1
   1.49288E+2   1.23814E+2
   1.32500E+2   1.94797E+2
  -3.41154E+1  -1.80967E+2
  -2.28431E+2   2.07150E+2
   1.83355E+2   1.37662E+2
   1.28911E+2  -6.27549E+1
  -1.50912E+2  -2.10444E+2
   2.82955E+1  -2.38535E+2
   3.33673E+2   4.10840E+1
   3.29203E+0  -6.06577E+1
  -6.47468E+1   4.89445E+1
  -6.21016E+1   1.06970E+2
   1.20570E+2  -1.55444E+1
   1.01790E+2   7.11884E+0
  -3.72600E+1   5.22801E+1
   6.02565E+1   1.27002E+2
  -1.17306E+2  -3.70820E+1
  -1.40355E+2   2.25375E+2
   2.25496E+2   4.14292E+1
   1.81550E+0   1.69164E+2
   1.86812E+1   2.31869E+1
   2.11656E+1  -2.97910E+2
   7.64138E+1  -3.65898E+0
   9.84656E+1   3.99630E+1
   8.69604E+1   2.64634E+1
   1.85619E+2   2.58598E+2
   2.22928E+1   7.85002E+1
  -4.27344E+1   8.60984E-1
  -2.91552E+2   1.08868E+1
  -1.86729E+2  -1.38428E+2
   8.68298E+0  -1.76659E+2
   3.36806E+2  -1.08567E+2
  -1.24148E+2   7.65441E+1
   1.86327E+2  -2.00568E+2
  -1.85544E+2   1.46999E+2
   7.28575E+1  -1.69325E+2
   6.62985E+1   8.98910E+1
   1.40474E+2  -4.57037E+1
