 
 $NMID
 ID=''
 FMTDAT='(2E13.5)'
 TRAMP=   1.00000E+0
 VOLUME=   1.00000E+0
 $END
   2.30978E+4  -8.83130E+2
   3.42346E+4  -2.26439E+4
  -1.25995E+4  -4.31401E+4
  -3.54179E+4   7.75572E+3
   8.87524E+3   3.80946E+4
   3.19964E+4  -6.05593E+3
  -2.64278E+3  -3.09032E+4
  -1.98888E+4   5.25124E+2
   3.02046E+3   1.87846E+4
   1.65060E+4   2.03353E+3
   2.69639E+3  -1.06495E+4
  -1.12069E+4  -4.51389E+3
  -5.16622E+3   7.43600E+3
   5.79223E+3   7.75358E+3
   2.44305E+3  -3.00650E+3
  -4.12352E+3  -5.95631E+3
  -3.99781E+2   8.42672E+2
   2.76708E+3   3.47714E+3
   3.43202E+2   1.29673E+2
  -1.58661E+2  -1.90374E+3
  -5.10162E+2  -2.80782E+2
  -2.57231E+2   1.31986E+3
   1.77502E+3   8.27228E+2
   1.21770E+3  -1.84887E+2
  -1.53744E+3  -5.71003E+2
   2.60357E+2  -2.96767E+2
   2.47633E+3   2.45106E+2
  -5.64690E+1   1.59950E+3
  -1.08060E+3   3.23506E+2
   5.90170E+2  -6.12106E+2
   1.06829E+3   4.48274E+2
  -6.50184E+2   8.25511E+2
  -9.29978E+2  -1.03123E+2
  -5.10519E+2   3.21295E+2
  -8.66519E+2  -1.02596E+3
   3.99154E+1  -2.74076E+3
   1.51026E+3  -3.97365E+2
   9.47653E+2   1.99151E+3
  -4.58702E+2   1.72634E+2
  -1.04344E+2  -6.62985E+2
  -2.52659E+2   4.23319E+2
  -1.51843E+3   4.75879E+2
  -6.70768E+2  -1.32713E+3
   8.18869E+2  -1.30236E+3
   1.01711E+3  -1.63781E+2
   7.28912E+2   6.52640E+2
   4.37823E+2   7.81520E+2
  -7.34612E+2   1.04835E+3
  -1.55432E+3   5.63242E+2
  -9.08553E+2  -4.81953E+2
  -6.65430E+2  -9.67507E+2
  -2.26097E+2  -6.69992E+2
   3.43618E+2  -3.99726E+2
   5.56639E+2  -4.04601E+2
   3.50205E+2   4.26632E+2
   5.99520E+1   6.49877E+2
  -6.98158E+2   8.93451E+2
  -1.04494E+3  -1.35954E+2
  -4.20989E+2  -1.31764E+3
   4.55036E+2  -5.18637E+2
   4.07893E+2   3.00668E+2
   5.33886E+2  -1.35123E+1
   7.14720E+2   4.83235E+2
  -4.99039E+1   1.31432E+3
  -1.27891E+3   1.50723E+3
  -1.39962E+3  -5.55599E+1
  -7.30373E+2  -1.00021E+3
  -1.56908E+2  -1.19986E+3
   5.09395E+2  -5.57257E+2
   4.62418E+2   4.11922E+2
  -2.50602E+2   4.71849E+2
  -8.00877E+2  -4.31328E+2
   5.88750E+2  -4.43930E+2
   8.02358E+2   4.63981E+2
  -3.83673E+1   4.92596E+2
  -5.00605E+2  -1.70382E+2
  -5.95506E+0  -4.90033E+2
   2.79259E+2   2.31132E+2
  -2.26287E+2   4.66453E+2
  -5.84831E+2   3.43553E+2
  -5.84438E+2   8.63606E+1
  -3.74064E+2  -2.25789E+1
  -3.04988E+2  -4.40281E+1
  -6.32613E+1  -4.72779E+2
  -4.94361E+2  -1.88142E+2
  -6.11602E+0  -5.79828E+2
   3.03885E+2  -5.52165E+2
   4.90235E+2   3.55837E+1
   3.15671E+1   7.92028E+1
   3.61460E+1  -7.15209E+1
   5.66797E+2  -5.14506E+2
   5.70624E+2   2.45388E+2
   1.87466E+2   7.46862E+2
  -6.37419E+2   7.13634E+2
  -8.25234E+2  -1.74916E+2
  -3.47214E+2  -5.69651E+2
   1.61616E+2  -3.06807E+2
  -1.25480E+2   4.40274E+2
  -4.22875E+2  -3.39374E+2
   1.23456E+2  -4.71013E+2
   5.72122E+2  -3.95889E+1
   3.84146E+2   6.16716E+2
  -3.34401E+2   2.28394E+2
  -7.02149E+2  -4.56997E+1
  -3.16517E+2  -5.50353E+2
   5.17277E+2  -4.22430E+2
   6.70368E+2   2.95275E+2
  -5.74884E+2   8.14454E+2
  -1.03957E+3  -5.62147E+0
  -1.54688E+2  -1.08669E+3
   5.75868E+2  -9.57042E+2
   7.06640E+2   1.91483E+2
   2.98983E+2   6.32778E+2
   4.34447E+2   2.59167E+1
   2.50743E+2  -9.68197E+1
   4.69148E+1   4.68013E+2
  -4.87878E+2   7.79683E+2
  -9.88521E+2   6.00738E+1
  -6.01895E+2  -7.39056E+2
  -9.23539E+1  -1.02197E+3
   5.59279E+2  -4.90425E+2
   6.57024E+2  -3.11677E+2
   4.98925E+2   3.82698E+1
   1.93553E+2   1.37220E+2
  -5.48402E+1   6.55302E+2
  -1.43099E+2   1.97181E+2
  -1.55426E+2  -5.51376E+2
  -5.19604E+0  -2.56379E+2
   9.94366E+1  -2.52816E+2
   3.97577E+2   6.73765E+1
   2.53442E+2   5.74463E+2
  -2.68334E+2   5.04913E+2
  -3.80400E+2  -7.75643E+1
   1.03686E+2  -2.55277E+2
   1.48359E+2  -1.05638E+2
  -3.47342E+2  -8.16314E+1
   2.61045E+0  -6.12896E+2
   7.02356E+2  -4.44405E+2
   7.11045E+2   4.66883E+2
  -1.86163E+1   5.32534E+2
  -5.85882E+2   5.07904E+2
  -2.64687E+2  -5.15844E+2
   2.23206E+2  -1.02869E+3
   6.87758E+2  -1.58787E+2
   6.10328E+2   5.16928E+2
   7.12050E+0   3.12862E+2
  -1.73696E+2   1.57056E+2
   4.14409E+1   5.53527E+1
  -2.70320E+2   3.17748E+2
  -5.18774E+2  -9.44265E+1
  -6.02385E+2  -3.41690E+2
   1.01230E+2  -6.09528E+2
   5.13407E+2  -2.76343E+2
   6.25097E+2   5.89084E+1
  -9.58528E+1   1.58679E+2
  -8.68487E+1   5.54962E+1
   2.36318E+2  -4.21973E+1
   2.91886E+2   2.63330E+2
   2.99859E+2   1.82896E+2
   6.65050E+1   6.75388E+1
   1.67630E+2   1.09072E+2
   1.01489E+2   5.42094E+1
  -3.08066E+2   1.91510E+2
  -3.18439E+2   9.93457E+0
  -6.97138E+1  -3.42497E+2
  -1.82320E+0  -5.90823E+2
   2.51709E+2  -8.60616E+1
  -3.44628E+1   3.51458E+2
  -1.23355E+2   3.60183E+0
  -9.50580E+1  -2.85486E+2
   2.34317E+2  -8.84322E+1
   1.81298E+2   4.46561E+2
  -8.51490E+1   2.53702E+2
  -8.65041E+1   1.51453E+2
  -1.90950E+2   1.84399E+2
   1.13620E+2   2.03405E+1
  -7.41917E+0   3.22668E+2
  -1.96068E+2  -7.05303E+1
  -3.18118E+2  -3.31186E+2
   4.97806E+1  -2.84162E+2
   5.24812E+2   5.62180E+1
   4.48561E+2   3.36572E+2
  -6.08196E+1   3.96225E+2
  -2.70728E+2   9.29501E+1
  -8.18898E+1  -1.48772E+2
  -1.78045E+2  -9.72389E+1
  -1.05574E+2  -2.17212E+2
  -3.52379E+2  -2.34802E+2
   8.58946E+0  -2.09547E+2
   7.56006E+2  -3.23760E+2
   6.61820E+2   4.13926E+2
   1.71991E+2   9.00957E+2
  -2.32906E+2   4.60853E+2
  -8.86593E+1  -8.75316E+1
  -3.82326E-1  -1.65561E+2
   6.54984E+1   3.98409E+1
   2.83884E+2  -8.44000E+0
   3.05310E+2  -2.14282E+1
   1.84126E+2   1.53817E+2
   1.38945E+2   3.38059E+2
  -4.00736E+1   3.26548E+2
  -2.33660E+2   2.94053E+1
  -4.60761E+2  -4.57818E+2
   8.63953E+1  -6.11300E+2
   2.28306E+2  -9.54669E+1
  -6.09472E+1  -2.33651E+1
  -8.24095E+1   1.70995E+2
  -1.59100E+2  -1.28668E+2
   1.07963E+2   2.74103E+1
  -1.50857E+2   2.14633E+2
  -3.70378E+2  -8.60875E+1
  -8.12358E+0  -3.72000E+2
   2.89463E+2  -4.19995E+2
   4.67201E+2   4.48614E+2
   1.23970E+2   6.27494E+2
  -2.34883E+2   3.42405E+2
  -2.93162E+2   7.01251E+1
  -1.19941E+2  -3.17795E+2
   8.07272E+1  -5.34495E+1
   4.47454E+1   2.02658E+2
  -1.66704E+1  -1.68231E+2
   8.94646E+1  -2.81292E+2
   2.36792E+2   2.66474E+2
  -7.83162E+1   3.27445E+2
  -1.77612E+2   2.10347E+2
  -4.30605E+2   1.42425E+2
  -3.22594E+1  -8.34039E+1
   3.94320E+2  -6.45219E+1
   4.05386E+1   2.06572E+2
   1.65014E+2   2.62259E+2
  -4.15473E+2  -5.30153E+1
  -1.58317E+2  -5.92591E+1
  -3.81790E+1  -1.56356E+2
  -8.90644E+0  -4.75207E+0
  -2.99833E+2  -1.01031E+2
  -1.61294E+1   5.64880E+1
   1.05615E+2   7.84939E+1
   5.97017E+1  -3.75741E+1
   5.76528E+1   5.74829E+1
  -1.96674E+2  -2.12285E+2
   1.55848E+2  -5.20411E+1
   1.99393E+2   1.50468E+2
   2.37559E+2   1.94956E+2
   1.93468E+2   3.19309E+2
  -2.05719E+2  -5.78580E+1
  -3.35566E+1   3.05887E+1
  -1.19272E+2   1.74914E+2
  -4.47532E+1   1.92808E+1
  -6.13593E+0  -2.21204E+2
  -1.60215E+1  -1.83553E+2
   2.16902E+2  -3.13826E+2
   1.78505E+2   2.37140E+2
  -9.34137E+1   3.56108E+2
  -4.39927E+2   5.26724E+1
  -6.51307E+1  -2.14202E+2
   2.89991E+2  -2.67234E+2
   1.18503E+2  -5.23788E+1
   2.08444E+2   8.37492E+1
   2.86893E+2   1.24394E+2
   1.51884E+2   3.07423E+2
  -2.90862E+1   1.44975E+2
  -3.02675E+2   2.17655E+2
  -4.41412E+2   7.16043E+1
  -1.64256E+2  -1.96569E+2
   4.94884E+1  -2.89384E+2
   4.15479E+2   2.48479E+2
   2.98359E+1   2.97621E+2
  -1.68182E+2   2.96295E+2
  -1.58105E+2  -1.95995E+2
  -1.47423E+2  -2.22546E+2
  -4.72428E+0  -2.08587E+2
  -1.46976E+2  -8.12046E+1
   7.40302E+1  -2.15173E+1
   2.69873E+2  -8.13100E+0
   8.07324E+1   8.42622E+1
  -4.53825E+1  -4.22342E+1
  -1.67161E+2   2.08378E+2
  -1.14050E+1  -2.90032E+2
  -9.52539E+1  -1.78951E+2
   2.57850E+1   2.14246E+1
  -1.18127E+2   1.14665E+2
  -8.11530E+1   4.63803E+1
  -7.76588E+1   2.08816E+2
  -1.18231E+2   2.58703E+1
  -2.17655E+2   2.58316E+1
  -4.57406E+2   3.98233E+1
  -2.97049E+2  -1.33602E+2
   3.02107E+2  -1.95669E+2
   1.38854E+2  -1.39040E+2
   2.53494E+2   4.56062E+1
   1.82538E+2   2.19912E+2
  -8.14301E+0   1.04941E+2
  -1.77930E+2   3.05611E+1
  -7.60206E+1   2.04150E+1
   5.88949E+1   3.24965E+1
  -6.04262E+1   3.52214E+1
   2.08846E+2  -1.10083E+2
  -1.88883E+1  -2.23494E+1
   1.60317E+2  -8.12519E+1
  -1.11459E+2   3.99460E+1
   3.05503E+1  -3.04828E+2
   1.38776E+2  -1.19935E+2
   3.08970E+2   7.95041E+1
  -5.94177E+1   1.41055E+2
  -1.17994E+2   1.63067E+2
  -2.02147E+2  -1.79642E+2
  -1.42793E+2  -1.40367E+2
   2.48086E+1  -1.09333E+2
  -1.47748E+2  -2.83834E+2
  -1.79516E+2   1.57406E+1
   3.70929E+1  -1.73456E+2
   2.94137E+2  -1.80594E+2
   6.50537E+1   8.99437E+0
   3.26172E+2   7.06741E+1
  -2.63048E+2  -1.12697E+2
  -1.29435E+2  -1.73156E+2
   1.94332E+2   1.52626E+1
  -1.05236E+2  -1.87784E+2
  -1.41526E+2  -6.28252E+0
  -2.93878E+2   1.17330E+2
   8.24008E+0   3.17777E+1
   2.78451E+2  -1.07140E+2
  -1.15960E+2   3.92643E+1
  -7.31925E+1   4.17314E+1
   2.26953E+2  -2.10740E+2
  -6.86069E+1  -1.12782E+2
   8.02323E+1   3.48343E+1
  -2.34112E+1   1.12686E+2
  -1.26164E+2   1.28545E+2
  -3.05402E+2  -1.68792E+1
  -1.78925E+2  -6.18674E+1
   1.30651E+2  -2.69425E+2
  -1.22092E+1  -1.51446E+2
   9.33946E+1  -3.15570E+2
   3.92879E+0  -7.62411E+0
   1.67970E+2   2.51723E+2
  -4.76390E+1   1.46494E+2
  -4.42259E+2   2.72990E+2
  -2.57694E+1  -2.77092E+1
   1.72802E+2  -2.12274E+2
   2.67049E+2   4.43989E+1
  -8.62554E+1   5.65444E+1
  -7.81113E+1  -2.47284E+2
   2.09220E+0  -1.36691E+1
   5.33266E+1  -9.70473E+1
  -8.53318E+1  -1.39518E+2
  -1.14140E+2  -1.16110E+2
  -1.95349E+1  -2.14994E+1
   4.52247E+1  -1.31206E+2
   5.25530E+1  -9.80756E+1
   1.42309E+2   1.46078E+2
  -1.13797E+2   1.25834E+2
  -2.69802E+2  -1.13032E+2
   6.08391E+1  -4.24424E+1
  -7.33210E+1   1.08802E+1
  -1.51419E+2  -1.67809E+2
   1.87945E+1   1.00689E+1
   1.94368E+2  -6.24518E+1
   7.35416E+1  -1.56042E+1
   8.47811E+1  -1.59692E+2
  -1.87070E+2   1.57157E+2
  -3.60409E+2  -3.85474E+2
  -5.37571E+1  -1.72699E+1
   3.61350E+2   2.09586E+1
   2.30714E+2  -4.74002E+1
   2.30589E+1   1.78163E+2
   2.50319E+2   6.84734E+0
