 
 $NMID
 ID=''
 FMTDAT='(2E13.5)'
 TRAMP=   1.00000E+0
 VOLUME=   1.00000E+0
 $END
   5.10943E+5   5.59142E+5
   6.99267E+5   1.93006E+6
   8.87067E+5   1.83876E+6
   7.53741E+5   1.76329E+6
   7.01299E+5   1.83519E+6
   7.04940E+5   1.81571E+6
   6.63244E+5   1.80658E+6
   6.54788E+5   1.82945E+6
   6.22713E+5   1.79465E+6
   5.53809E+5   1.81143E+6
   5.46313E+5   1.83232E+6
   5.17678E+5   1.78862E+6
   4.52760E+5   1.79327E+6
   4.36853E+5   1.81466E+6
   4.07112E+5   1.78099E+6
   3.52685E+5   1.77338E+6
   3.32834E+5   1.79164E+6
   3.02382E+5   1.77284E+6
   2.53932E+5   1.76475E+6
   2.37566E+5   1.76792E+6
   2.07169E+5   1.75103E+6
   1.64901E+5   1.74569E+6
   1.43475E+5   1.74371E+6
   1.13651E+5   1.72816E+6
   7.24384E+4   1.71970E+6
   5.60859E+4   1.71175E+6
   2.77886E+4   1.69918E+6
  -9.11408E+3   1.69318E+6
  -3.53112E+4   1.67948E+6
  -5.94078E+4   1.66258E+6
  -9.09922E+4   1.65825E+6
  -1.13665E+5   1.64716E+6
  -1.41760E+5   1.62948E+6
  -1.67862E+5   1.62000E+6
  -1.86679E+5   1.60766E+6
  -2.07682E+5   1.59464E+6
  -2.32067E+5   1.58802E+6
  -2.55358E+5   1.57515E+6
  -2.79036E+5   1.55700E+6
  -3.00941E+5   1.54637E+6
  -3.22083E+5   1.53119E+6
  -3.44762E+5   1.51368E+6
  -3.62843E+5   1.49950E+6
  -3.81532E+5   1.48531E+6
  -4.03839E+5   1.46842E+6
  -4.24730E+5   1.45555E+6
  -4.44958E+5   1.44110E+6
  -4.68398E+5   1.42222E+6
  -4.87702E+5   1.40308E+6
  -5.04457E+5   1.38747E+6
  -5.23606E+5   1.37201E+6
  -5.43396E+5   1.35563E+6
  -5.60916E+5   1.33932E+6
  -5.78830E+5   1.32343E+6
  -5.97215E+5   1.30557E+6
  -6.15308E+5   1.28718E+6
  -6.32374E+5   1.26839E+6
  -6.47934E+5   1.24953E+6
  -6.62237E+5   1.23072E+6
  -6.76871E+5   1.21383E+6
  -6.92706E+5   1.19551E+6
  -7.08158E+5   1.17746E+6
  -7.23221E+5   1.15947E+6
  -7.37927E+5   1.13950E+6
  -7.51636E+5   1.11823E+6
  -7.63544E+5   1.09855E+6
  -7.74911E+5   1.07843E+6
  -7.86551E+5   1.05809E+6
  -7.99231E+5   1.04050E+6
  -8.12478E+5   1.02139E+6
  -8.24107E+5   9.99720E+5
  -8.33911E+5   9.78791E+5
  -8.43994E+5   9.60727E+5
  -8.54979E+5   9.41554E+5
  -8.65772E+5   9.19729E+5
  -8.74192E+5   8.98541E+5
  -8.82515E+5   8.79229E+5
  -8.91742E+5   8.58907E+5
  -9.00949E+5   8.37487E+5
  -9.08377E+5   8.16117E+5
  -9.15872E+5   7.94884E+5
  -9.22832E+5   7.73894E+5
  -9.29770E+5   7.52839E+5
  -9.36413E+5   7.31086E+5
  -9.42514E+5   7.09387E+5
  -9.47850E+5   6.88360E+5
  -9.52609E+5   6.67862E+5
  -9.57976E+5   6.47220E+5
  -9.62022E+5   6.26540E+5
  -9.64928E+5   6.06621E+5
  -9.67430E+5   5.87349E+5
  -9.70666E+5   5.68170E+5
  -9.74058E+5   5.48269E+5
  -9.75388E+5   5.27882E+5
  -9.75612E+5   5.07892E+5
  -9.75890E+5   4.89896E+5
  -9.77200E+5   4.72035E+5
  -9.78606E+5   4.52815E+5
  -9.78599E+5   4.33453E+5
  -9.77854E+5   4.15713E+5
  -9.78483E+5   3.98349E+5
  -9.79048E+5   3.79048E+5
  -9.77649E+5   3.59364E+5
  -9.74803E+5   3.41564E+5
  -9.72389E+5   3.24894E+5
  -9.71087E+5   3.08922E+5
  -9.69692E+5   2.91622E+5
  -9.67211E+5   2.73922E+5
  -9.63149E+5   2.56714E+5
  -9.59015E+5   2.41492E+5
  -9.55959E+5   2.26598E+5
  -9.53773E+5   2.10338E+5
  -9.50856E+5   1.92802E+5
  -9.46786E+5   1.76153E+5
  -9.42584E+5   1.60544E+5
  -9.38548E+5   1.44081E+5
  -9.34491E+5   1.27056E+5
  -9.28683E+5   1.10673E+5
  -9.22027E+5   9.63320E+4
  -9.17004E+5   8.26637E+4
  -9.12505E+5   6.82919E+4
  -9.07154E+5   5.39308E+4
  -9.01522E+5   3.93340E+4
  -8.96236E+5   2.51294E+4
  -8.90041E+5   1.04141E+4
  -8.82717E+5  -3.96682E+3
  -8.75722E+5  -1.72764E+4
  -8.69381E+5  -3.10757E+4
  -8.62655E+5  -4.48060E+4
  -8.55949E+5  -5.89881E+4
  -8.49456E+5  -7.39001E+4
  -8.41009E+5  -8.89915E+4
  -8.32549E+5  -1.01959E+5
  -8.25002E+5  -1.14591E+5
  -8.17140E+5  -1.27920E+5
  -8.08872E+5  -1.41342E+5
  -8.00438E+5  -1.53473E+5
  -7.92348E+5  -1.64981E+5
  -7.84406E+5  -1.77265E+5
  -7.75576E+5  -1.90125E+5
  -7.66088E+5  -2.01899E+5
  -7.56418E+5  -2.12348E+5
  -7.47516E+5  -2.22144E+5
  -7.39177E+5  -2.33319E+5
  -7.30607E+5  -2.44804E+5
  -7.20597E+5  -2.55518E+5
  -7.10222E+5  -2.65547E+5
  -7.00603E+5  -2.75073E+5
  -6.90452E+5  -2.84398E+5
  -6.80937E+5  -2.93567E+5
  -6.70594E+5  -3.02142E+5
  -6.60665E+5  -3.09797E+5
  -6.51878E+5  -3.17427E+5
  -6.42437E+5  -3.25718E+5
  -6.32452E+5  -3.33940E+5
  -6.22071E+5  -3.41004E+5
  -6.12983E+5  -3.47110E+5
  -6.03532E+5  -3.54220E+5
  -5.93533E+5  -3.60724E+5
  -5.83545E+5  -3.66923E+5
  -5.73852E+5  -3.72831E+5
  -5.64214E+5  -3.78480E+5
  -5.53595E+5  -3.84349E+5
  -5.43330E+5  -3.89370E+5
  -5.33442E+5  -3.94244E+5
  -5.24005E+5  -3.98089E+5
  -5.15052E+5  -4.02848E+5
  -5.05441E+5  -4.07999E+5
  -4.95453E+5  -4.12332E+5
  -4.85881E+5  -4.15790E+5
  -4.76494E+5  -4.18802E+5
  -4.67307E+5  -4.22603E+5
  -4.58000E+5  -4.26127E+5
  -4.48208E+5  -4.29184E+5
  -4.38661E+5  -4.32071E+5
  -4.29732E+5  -4.34877E+5
  -4.20292E+5  -4.38348E+5
  -4.10003E+5  -4.41420E+5
  -3.99703E+5  -4.42871E+5
  -3.90238E+5  -4.44867E+5
  -3.81586E+5  -4.47268E+5
  -3.72249E+5  -4.50087E+5
  -3.62221E+5  -4.51980E+5
  -3.52546E+5  -4.53611E+5
  -3.42964E+5  -4.54803E+5
  -3.33879E+5  -4.55881E+5
  -3.24710E+5  -4.57010E+5
  -3.15304E+5  -4.57470E+5
  -3.06726E+5  -4.57940E+5
  -2.98679E+5  -4.58651E+5
  -2.89570E+5  -4.60412E+5
  -2.79624E+5  -4.61711E+5
  -2.69670E+5  -4.62129E+5
  -2.60450E+5  -4.61840E+5
  -2.51461E+5  -4.61972E+5
  -2.42406E+5  -4.62662E+5
  -2.33084E+5  -4.62876E+5
  -2.23953E+5  -4.62608E+5
  -2.14797E+5  -4.62357E+5
  -2.05285E+5  -4.62732E+5
  -1.95519E+5  -4.62320E+5
  -1.86054E+5  -4.61030E+5
  -1.77350E+5  -4.59712E+5
  -1.69106E+5  -4.58895E+5
  -1.60394E+5  -4.58463E+5
  -1.51040E+5  -4.57286E+5
  -1.41987E+5  -4.55927E+5
  -1.33534E+5  -4.54505E+5
  -1.25063E+5  -4.52869E+5
  -1.16500E+5  -4.51349E+5
  -1.07258E+5  -4.49697E+5
  -9.91891E+4  -4.47471E+5
  -9.14263E+4  -4.45670E+5
  -8.31584E+4  -4.44312E+5
  -7.43169E+4  -4.42495E+5
  -6.58303E+4  -4.39609E+5
  -5.81853E+4  -4.36679E+5
  -5.10776E+4  -4.33578E+5
  -4.37686E+4  -4.31506E+5
  -3.65015E+4  -4.28864E+5
  -2.88829E+4  -4.26018E+5
  -2.23245E+4  -4.22628E+5
  -1.56844E+4  -4.19975E+5
  -8.16360E+3  -4.17266E+5
  -1.18723E+3  -4.14073E+5
   5.47130E+3  -4.09982E+5
   1.12215E+4  -4.06470E+5
   1.71123E+4  -4.03421E+5
   2.37011E+4  -4.00363E+5
   3.02907E+4  -3.96817E+5
   3.62269E+4  -3.92644E+5
   4.11682E+4  -3.88905E+5
   4.66895E+4  -3.85365E+5
   5.20879E+4  -3.81617E+5
   5.71209E+4  -3.77637E+5
   6.19918E+4  -3.73654E+5
   6.67032E+4  -3.70164E+5
   7.16884E+4  -3.66446E+5
   7.65782E+4  -3.62267E+5
   8.09864E+4  -3.57768E+5
   8.48973E+4  -3.53610E+5
   8.93250E+4  -3.50218E+5
   9.35326E+4  -3.46485E+5
   9.82820E+4  -3.42095E+5
   1.01733E+5  -3.37490E+5
   1.05441E+5  -3.33470E+5
   1.09348E+5  -3.29534E+5
   1.13193E+5  -3.25338E+5
   1.16786E+5  -3.20559E+5
   1.19651E+5  -3.16111E+5
   1.22838E+5  -3.12645E+5
   1.26277E+5  -3.08422E+5
   1.30174E+5  -3.03866E+5
   1.33132E+5  -2.99122E+5
   1.35582E+5  -2.94582E+5
   1.38493E+5  -2.90501E+5
   1.41701E+5  -2.86301E+5
   1.44988E+5  -2.81972E+5
   1.47799E+5  -2.77358E+5
   1.50874E+5  -2.72804E+5
   1.54180E+5  -2.68330E+5
   1.56828E+5  -2.63433E+5
   1.59423E+5  -2.58649E+5
   1.61575E+5  -2.53684E+5
   1.63584E+5  -2.49862E+5
   1.66067E+5  -2.45979E+5
   1.69136E+5  -2.41023E+5
   1.71169E+5  -2.35794E+5
   1.72891E+5  -2.31336E+5
   1.74876E+5  -2.27145E+5
   1.76827E+5  -2.22621E+5
   1.78721E+5  -2.18014E+5
   1.80598E+5  -2.13513E+5
   1.82090E+5  -2.09198E+5
   1.84334E+5  -2.05026E+5
   1.86040E+5  -2.00212E+5
   1.87614E+5  -1.94989E+5
   1.88808E+5  -1.90815E+5
   1.89892E+5  -1.86158E+5
   1.91441E+5  -1.81975E+5
   1.92687E+5  -1.77279E+5
   1.93783E+5  -1.72827E+5
   1.94663E+5  -1.68548E+5
   1.95769E+5  -1.64043E+5
   1.96466E+5  -1.59731E+5
   1.97673E+5  -1.54735E+5
   1.97522E+5  -1.50679E+5
   1.98021E+5  -1.46767E+5
   1.98526E+5  -1.43171E+5
   1.99384E+5  -1.38930E+5
   2.00101E+5  -1.34378E+5
   2.00065E+5  -1.29994E+5
   2.00135E+5  -1.26101E+5
   2.00336E+5  -1.22180E+5
   2.00509E+5  -1.17966E+5
   2.00197E+5  -1.14052E+5
   2.00091E+5  -1.10492E+5
   2.00158E+5  -1.06755E+5
   2.00334E+5  -1.02502E+5
   2.00226E+5  -9.83614E+4
   1.99444E+5  -9.45843E+4
   1.99034E+5  -9.11918E+4
   1.98606E+5  -8.77820E+4
   1.98161E+5  -8.38339E+4
   1.98040E+5  -7.99848E+4
   1.97040E+5  -7.61414E+4
   1.96142E+5  -7.26624E+4
   1.95620E+5  -6.94262E+4
   1.94919E+5  -6.60159E+4
   1.94179E+5  -6.21889E+4
   1.93088E+5  -5.90981E+4
   1.92534E+5  -5.57708E+4
   1.91525E+5  -5.27014E+4
   1.90834E+5  -4.88948E+4
   1.89612E+5  -4.53570E+4
   1.88269E+5  -4.25300E+4
   1.87062E+5  -3.95052E+4
   1.86287E+5  -3.63485E+4
   1.85030E+5  -3.29849E+4
   1.83942E+5  -2.99861E+4
   1.82316E+5  -2.71515E+4
   1.81089E+5  -2.43423E+4
   1.80003E+5  -2.10508E+4
   1.78457E+5  -1.80509E+4
   1.76747E+5  -1.55087E+4
   1.75625E+5  -1.31129E+4
   1.74397E+5  -1.00523E+4
   1.72884E+5  -6.89078E+3
   1.71323E+5  -4.05598E+3
   1.69119E+5  -1.32246E+3
   1.67603E+5   1.06517E+3
   1.65899E+5   3.54114E+3
   1.64372E+5   5.83765E+3
   1.62667E+5   8.24359E+3
   1.61271E+5   1.05158E+4
   1.59603E+5   1.30640E+4
   1.57927E+5   1.60954E+4
   1.55914E+5   1.83054E+4
   1.53639E+5   2.04239E+4
   1.51997E+5   2.24577E+4
   1.50354E+5   2.46367E+4
   1.48490E+5   2.69220E+4
   1.46676E+5   2.92882E+4
   1.44422E+5   3.12058E+4
   1.42951E+5   3.30816E+4
   1.40878E+5   3.52188E+4
   1.38951E+5   3.70046E+4
   1.36836E+5   3.86701E+4
   1.35043E+5   4.02057E+4
   1.33349E+5   4.20547E+4
   1.31463E+5   4.38579E+4
   1.29349E+5   4.56741E+4
   1.26793E+5   4.73979E+4
   1.24949E+5   4.84534E+4
   1.23234E+5   5.01752E+4
   1.21210E+5   5.18510E+4
   1.18991E+5   5.30664E+4
   1.17067E+5   5.42137E+4
   1.15324E+5   5.56804E+4
   1.13397E+5   5.71335E+4
   1.11012E+5   5.85903E+4
   1.08827E+5   5.96919E+4
   1.06644E+5   6.04647E+4
   1.05095E+5   6.13229E+4
   1.03406E+5   6.26592E+4
   1.01124E+5   6.38806E+4
   9.91826E+4   6.47138E+4
