 LCModel (Version 6.3-1N) Copyright: S.W. Provencher.          Ref.: Magn. Reson. Med. 30:672-679 (1993).                
 Slice_N1@10_16  28-Feb-2025 11:37:04
 27 lines in following concentration table = NCONC+1
    Conc.  %SD /Cr+PCr  Metabolite                                         
 2.64E-04   5% 2.7E-04 Mac                                                 
    3.552  36%   3.643 Cr                                                  
    4.249  29%   4.357 PCr                                                 
    9.089  12%   9.320 Ins                                                 
    9.751   9%   9.999 NAA                                                 
    7.365  13%   7.553 Tau                                                 
    0.741 140%   0.759 PCho                                                
    2.015  50%   2.066 GPC                                                 
    9.983  12%  10.237 Glu                                                 
    5.332  17%   5.468 Gln                                                 
    0.000 999%   0.000 Ala                                                 
    5.446  25%   5.585 Asc                                                 
    2.023  53%   2.074 Asp                                                 
    0.807  71%   0.827 GABA                                                
    0.642 117%   0.658 Glc                                                 
    1.698  34%   1.741 GSH                                                 
    0.000 999%   0.000 Lac                                                 
    1.422  43%   1.458 NAAG                                                
    0.000 999%   0.000 PE                                                  
    2.755   9%   2.825 GPC+PCho                                            
   11.173   8%  11.457 NAA+NAAG                                            
   15.315  10%  15.705 Glu+Gln                                             
    7.802  10%   8.000 Cr+PCr                                              
   11.173   8%  11.457 NAA+NAAG                                            
    7.802  10%   8.000 Cr+PCr                                              
   15.315  10%  15.705 Glu+Gln                                             
   6 lines in following misc. output table
  FWHM = 0.024 ppm    S/N =   4                                            
  Data shift = 0.016 ppm                                                   
  Ph:-155 deg       0.0 deg/ppm                                            
  alphaB,S = 1.7E-01,   1.6E+00                                            
   19 spline knots.   Ns = 5(1)                                            
  ( 6) 2 infls.   ( 2) 2 extrs.                                            
  480 points on ppm-axis = NY
      4.100000     4.091866     4.083733     4.075600     4.067466     4.059333     4.051199     4.043066     4.034933     4.026799
      4.018666     4.010532     4.002399     3.994265     3.986132     3.977998     3.969864     3.961731     3.953597     3.945463
      3.937330     3.929196     3.921062     3.912929     3.904795     3.896662     3.888528     3.880394     3.872261     3.864127
      3.855993     3.847860     3.839726     3.831592     3.823459     3.815325     3.807191     3.799058     3.790924     3.782790
      3.774657     3.766523     3.758389     3.750256     3.742122     3.733989     3.725855     3.717721     3.709588     3.701454
      3.693320     3.685187     3.677053     3.668919     3.660786     3.652652     3.644518     3.636385     3.628251     3.620117
      3.611984     3.603850     3.595716     3.587583     3.579449     3.571316     3.563182     3.555048     3.546915     3.538781
      3.530647     3.522514     3.514380     3.506246     3.498113     3.489979     3.481845     3.473712     3.465578     3.457444
      3.449311     3.441177     3.433043     3.424910     3.416776     3.408643     3.400509     3.392375     3.384242     3.376108
      3.367974     3.359841     3.351707     3.343573     3.335440     3.327306     3.319172     3.311039     3.302905     3.294771
      3.286638     3.278504     3.270370     3.262237     3.254103     3.245970     3.237836     3.229702     3.221569     3.213435
      3.205301     3.197168     3.189034     3.180900     3.172767     3.164633     3.156499     3.148366     3.140232     3.132098
      3.123965     3.115831     3.107697     3.099564     3.091430     3.083297     3.075163     3.067029     3.058896     3.050762
      3.042628     3.034495     3.026361     3.018227     3.010094     3.001960     2.993826     2.985693     2.977559     2.969425
      2.961292     2.953158     2.945024     2.936891     2.928757     2.920624     2.912490     2.904356     2.896223     2.888089
      2.879955     2.871822     2.863688     2.855554     2.847421     2.839287     2.831153     2.823020     2.814886     2.806752
      2.798619     2.790485     2.782351     2.774218     2.766084     2.757951     2.749817     2.741683     2.733550     2.725416
      2.717282     2.709149     2.701015     2.692881     2.684748     2.676614     2.668480     2.660347     2.652213     2.644079
      2.635946     2.627812     2.619678     2.611545     2.603411     2.595278     2.587144     2.579010     2.570877     2.562743
      2.554609     2.546476     2.538342     2.530208     2.522075     2.513941     2.505807     2.497674     2.489540     2.481406
      2.473273     2.465139     2.457006     2.448872     2.440738     2.432605     2.424471     2.416337     2.408204     2.400070
      2.391936     2.383803     2.375669     2.367535     2.359402     2.351268     2.343134     2.335001     2.326867     2.318733
      2.310600     2.302466     2.294333     2.286199     2.278065     2.269932     2.261798     2.253664     2.245531     2.237397
      2.229263     2.221130     2.212996     2.204862     2.196729     2.188595     2.180461     2.172328     2.164194     2.156060
      2.147927     2.139793     2.131660     2.123526     2.115392     2.107259     2.099125     2.090991     2.082858     2.074724
      2.066590     2.058457     2.050323     2.042189     2.034056     2.025922     2.017788     2.009655     2.001521     1.993387
      1.985254     1.977120     1.968987     1.960853     1.952719     1.944586     1.936452     1.928318     1.920185     1.912051
      1.903917     1.895784     1.887650     1.879516     1.871383     1.863249     1.855115     1.846982     1.838848     1.830714
      1.822581     1.814447     1.806314     1.798180     1.790046     1.781913     1.773779     1.765645     1.757512     1.749378
      1.741244     1.733111     1.724977     1.716843     1.708710     1.700576     1.692442     1.684309     1.676175     1.668041
      1.659908     1.651774     1.643641     1.635507     1.627373     1.619240     1.611106     1.602972     1.594839     1.586705
      1.578571     1.570438     1.562304     1.554170     1.546037     1.537903     1.529769     1.521636     1.513502     1.505368
      1.497235     1.489101     1.480968     1.472834     1.464700     1.456567     1.448433     1.440299     1.432166     1.424032
      1.415898     1.407765     1.399631     1.391497     1.383364     1.375230     1.367096     1.358963     1.350829     1.342695
      1.334562     1.326428     1.318295     1.310161     1.302027     1.293894     1.285760     1.277626     1.269493     1.261359
      1.253225     1.245092     1.236958     1.228824     1.220691     1.212557     1.204423     1.196290     1.188156     1.180022
      1.171889     1.163755     1.155622     1.147488     1.139354     1.131221     1.123087     1.114953     1.106820     1.098686
      1.090552     1.082419     1.074285     1.066151     1.058018     1.049884     1.041750     1.033617     1.025483     1.017349
      1.009216     1.001082     0.992949     0.984815     0.976681     0.968548     0.960414     0.952280     0.944147     0.936013
      0.927879     0.919746     0.911612     0.903478     0.895345     0.887211     0.879077     0.870944     0.862810     0.854676
      0.846543     0.838409     0.830276     0.822142     0.814008     0.805875     0.797741     0.789607     0.781474     0.773340
      0.765206     0.757073     0.748939     0.740805     0.732672     0.724538     0.716404     0.708271     0.700137     0.692003
      0.683870     0.675736     0.667603     0.659469     0.651335     0.643202     0.635068     0.626934     0.618801     0.610667
      0.602533     0.594400     0.586266     0.578132     0.569999     0.561865     0.553731     0.545598     0.537464     0.529330
      0.521197     0.513063     0.504930     0.496796     0.488662     0.480529     0.472395     0.464261     0.456128     0.447994
      0.439861     0.431727     0.423593     0.415460     0.407326     0.399192     0.391059     0.382925     0.374792     0.366658
      0.358524     0.350391     0.342257     0.334124     0.325990     0.317856     0.309723     0.301589     0.293455     0.285322
      0.277188     0.269055     0.260921     0.252787     0.244654     0.236520     0.228386     0.220253     0.212119     0.203986
 NY phased data points follow
   2.76433E+01  2.82535E+01  2.17291E+01  1.35296E+01  1.97822E+01  3.83751E+01  2.77759E+01  2.54975E+01  2.79555E+01  3.22054E+01
   1.90879E+01  4.84356E+00  1.77523E+01  1.24634E+01 -1.43581E+00 -3.53746E+00  2.38151E+01  8.37168E+00 -1.09656E+01 -1.78908E+01
  -4.20986E+01 -2.53210E+01  4.34078E+00  2.64591E+01  3.74584E+01  5.88284E+01  5.91279E+01  5.64555E+01  6.85055E+01  7.59374E+01
   6.96552E+01  5.12346E+01  6.65266E+01  4.81796E+01  3.89952E+01  4.27214E+01  2.96602E+01  2.83394E+01 -5.84888E+00 -3.51739E+01
  -5.19187E+01 -5.31777E+01 -3.69492E+01 -2.40894E+01 -2.07470E+00  2.66320E+01  3.22864E+01  4.84281E+01  6.60623E+01  5.02388E+01
   4.35928E+01  2.72162E+01  2.80085E+01  2.13934E+01  1.18510E+01  6.46473E+00 -1.37908E+01  1.42694E+00 -8.87786E+00 -1.75164E+01
   5.22420E+00  1.10333E+01  5.21599E+00  1.76117E+01  2.49698E+01  4.05022E+01  5.11002E+01  1.33087E+01 -4.81129E+00 -2.63721E+01
  -1.53080E+01 -9.71439E-01  1.87411E+00  2.46585E+01  3.94298E+01  6.69112E+01  5.92740E+01  7.45038E+01  7.01243E+01  6.75290E+01
   5.96032E+01  2.25803E+01  3.86794E+01  1.63198E+01  1.20086E+01  5.55932E+00  4.52675E+00  1.07275E+01  2.68089E+01  7.84048E+01
   5.45542E+01  6.13442E+01  7.18962E+01  7.73041E+01  8.30343E+01  6.85630E+01  1.10925E+02  1.04015E+02  8.92074E+01  9.18798E+01
   7.23546E+01  7.06580E+01  5.12325E+01  3.11568E+01  9.96899E+00 -3.46006E+00 -7.19174E+00 -3.02350E+01 -2.27187E+01 -7.46389E+01
  -1.77567E+02 -1.82752E+02 -1.32654E+02 -8.44096E+01 -5.71110E+01 -4.24929E+01 -4.12647E+01 -2.85904E+01 -1.29824E+01 -1.86180E+01
  -6.27011E+00  7.89309E-01  1.75491E+01  2.68862E+01  3.33043E+01  5.69275E+01  6.08216E+01  5.91587E+01  9.10764E+01  1.28059E+02
   1.31756E+02  1.19253E+02  3.22772E+01 -6.93394E+01 -9.93322E+01 -8.13222E+01 -6.13931E+01 -6.75391E+01 -4.88891E+01 -5.68703E+01
  -8.06792E+01 -5.80884E+01 -5.31063E+01 -5.94141E+01 -5.24445E+01 -7.58883E+01 -6.98895E+01 -5.09332E+01 -5.60487E+01 -2.95188E+01
  -4.75728E+01 -4.13250E+01 -1.39036E+01 -4.65534E+01 -3.46259E+01 -2.88446E+01 -3.29026E+01 -1.71238E+01 -2.88553E+01 -1.80797E+01
  -1.37582E+01 -1.88072E+01 -8.18518E+00 -2.79435E+01 -3.10550E+01 -3.68895E+01 -2.64687E+01 -2.90831E+00 -2.43635E+01 -1.73464E+01
  -1.37461E+01  4.51065E+00  2.11942E+01  2.50752E+01  2.78438E+01 -4.79587E+00  3.55601E+00  6.42364E+00  2.25838E+01  3.49969E+00
  -3.90822E+01 -2.18732E+01 -4.08061E+01 -4.68190E+01 -4.88048E+01 -3.41297E+01 -2.32326E+01 -3.47338E+01 -2.36404E+01 -3.67284E+01
  -1.84261E+01 -2.00944E+01 -3.11094E+01 -2.17683E+01 -2.70813E+01 -7.64657E+00 -1.46028E+01 -2.65890E+01 -1.95616E+01 -1.23541E+01
  -1.50869E+01 -1.64726E+01  7.10183E+00  2.31813E+01  1.55038E+01 -4.46684E+00 -2.95842E+00 -1.35833E+01 -3.28994E+01 -4.50919E+01
  -4.96667E+01 -1.90375E+01 -1.03747E+01 -1.48418E+00  2.73825E+01  5.58394E+01  7.11270E+01  6.42156E+01  6.08909E+01  3.93250E+01
   2.51914E+01 -7.01592E+00 -2.32589E+01  2.76504E+00 -1.74811E+01 -5.21565E+00  5.46215E+00 -1.25039E+01  5.90000E+00  1.91878E+00
  -7.26413E+00 -1.61325E+01 -1.48440E+01 -1.37874E+01 -3.96630E+01 -5.84634E+01 -6.13176E+01 -6.43740E+01 -7.72436E+01 -6.40884E+01
  -6.96763E+01 -6.61554E+01 -2.53931E+01  4.65927E+00  1.54534E+01 -1.71678E+00  1.57640E+01 -1.38654E+00 -2.52201E+01 -1.07527E+01
  -2.92477E+01 -3.69743E+01 -4.68486E+01 -4.37499E+01 -4.91729E+01 -5.96571E+01 -5.76483E+01 -1.86521E+01  1.15787E+02  1.99673E+02
   1.85112E+02  1.64546E+02  1.31209E+02  1.04996E+02  1.13990E+02  9.77079E+01  8.69681E+01  8.68882E+01  7.27800E+01  7.32220E+01
   6.36845E+01  7.69552E+01  7.41265E+01  6.62931E+01  7.71455E+01  6.50429E+01  6.40920E+01  6.55094E+01  6.62208E+01  6.14978E+01
   6.36776E+01  6.10457E+01  5.28462E+01  5.24614E+01  4.31899E+01  4.68857E+01  4.79587E+01  3.78125E+01  4.12879E+01  4.96790E+01
   2.71736E+01  2.25468E+01  3.45995E+01  2.07738E+01  2.19703E+01  2.24151E+01  1.98041E+01  1.87026E+01  7.04047E+00  4.41106E+00
   1.24308E+01  4.14094E+00  9.03460E-01  1.43990E+01  8.54119E+00  1.82767E+01  3.68002E+01  2.81123E+01  2.88855E+01  4.40855E+01
   5.11493E+01  6.37878E+01  5.60955E+01  4.06285E+01  5.60252E+01  4.31973E+01  2.65041E+01  2.76353E+01  3.51056E+01  5.29256E+01
   3.56098E+01  3.00685E+01  1.26221E+01 -7.13882E+00  2.59009E+01  1.29344E+01  7.12099E+00  1.75541E+01 -1.10345E+01 -1.34516E+01
   1.25054E+00  4.37286E+00 -1.10428E+01 -1.57199E+01 -1.40617E+01  1.32649E+01  3.94754E+01  3.76314E+01  6.97279E+01  8.76866E+01
   9.33066E+01  9.33873E+01  9.69665E+01  8.61549E+01  6.09073E+01  6.69886E+01  6.75783E+01  8.05151E+01  7.89782E+01  7.79332E+01
   8.84560E+01  8.54208E+01  7.56964E+01  6.94876E+01  6.63652E+01  6.44790E+01  6.65977E+01  4.02304E+01  4.57330E+01  3.10483E+01
   1.90155E+01  2.47004E+01  2.63830E+01  5.05503E+01  2.51979E+01  3.97302E+01  4.25901E+01  4.50763E+01  5.23078E+01  5.69355E+01
   7.56964E+01  3.89033E+01  6.54493E+01  6.51699E+01  5.69151E+01  7.81631E+01  8.98125E+01  9.21047E+01  7.54964E+01  1.09909E+02
   1.22889E+02  1.38161E+02  1.38494E+02  1.44514E+02  1.55449E+02  1.60238E+02  1.77330E+02  1.62416E+02  1.65283E+02  1.55634E+02
   1.65599E+02  1.49045E+02  1.31246E+02  1.21517E+02  7.88156E+01  7.63513E+01  7.82117E+01  8.92105E+01  7.62694E+01  6.13545E+01
   4.59349E+01  2.54699E+01  1.59349E+01  7.55111E+00  5.45003E+00  7.20672E+00  1.63866E+01 -1.44688E+01 -8.35984E-01  2.89554E+00
  -1.15104E+01  5.12404E+00 -6.37303E+00  5.90367E+00  7.05227E+00  8.83355E+00  4.54999E+00  3.36309E+00  1.53452E+01 -7.71179E+00
  -2.07606E+00  1.23242E+01 -3.61758E+00 -4.91526E+00  7.54845E-01 -1.32291E+00  2.29582E+00  6.15438E+00  1.76153E+01  1.33999E+01
   1.24510E+01  1.08774E+01 -7.81937E+00 -2.03041E-01  4.78714E+00  9.17562E-01 -5.42993E-01 -1.04776E+01 -1.43980E+01  2.92812E+00
   5.35922E-01 -1.00514E+01  5.40940E+00  1.16617E+01  3.08933E+00  5.80805E+00  1.24283E+01 -2.07447E+00  5.54145E+00  6.06634E+00
   3.86505E-01  7.57287E+00  1.19933E+01  1.68377E+01 -5.81638E+00  6.39685E-01  4.75206E+00 -1.00086E+01 -8.02305E+00  1.09165E+01
   2.31560E+01  4.23709E+00  3.52476E+00  9.80225E-01  2.96627E+00  7.16124E+00  2.61627E+00  4.24747E+00  6.77631E+00  1.20816E+01
   1.47092E+01  1.62539E+01  2.59481E+00 -6.28728E-01  4.00219E+00 -8.61532E-01  8.10016E-01  8.16947E+00 -2.89656E-01 -1.27622E+01
 NY points of the fit to the data follow
   1.33081E+01  3.77138E+00 -5.92992E+00 -1.03064E+01 -5.54999E+00  1.38550E+01  3.67994E+01  4.25110E+01  3.07579E+01  1.60162E+01
   8.02395E+00  5.33489E+00  7.75686E+00  1.13742E+01  1.17958E+01  8.94252E+00  3.80356E+00 -5.83562E+00 -1.90101E+01 -3.16684E+01
  -4.51463E+01 -3.05925E+01 -6.70836E-02  2.18699E+01  4.52738E+01  6.56744E+01  6.83605E+01  6.75124E+01  6.94459E+01  6.75876E+01
   6.49001E+01  6.19627E+01  5.88280E+01  5.50448E+01  5.02207E+01  4.46897E+01  3.82360E+01  2.57521E+01  3.88309E+00 -2.18269E+01
  -4.77006E+01 -5.25187E+01 -3.49326E+01 -9.71840E+00  6.51417E+00  2.21735E+01  3.86320E+01  5.09328E+01  5.78927E+01  6.14827E+01
   5.94392E+01  5.19332E+01  4.06729E+01  2.49657E+01  1.16747E+01  2.99180E+00 -1.79112E+00  1.33630E+00 -4.44228E+00 -1.61648E+01
  -3.63126E+00  1.45953E+01  2.09914E+01  3.68831E+01  5.71882E+01  6.35746E+01  5.56194E+01  3.72684E+01  9.19287E+00 -2.11867E+01
  -2.58938E+01 -6.09483E+00  7.21739E+00  1.79164E+01  3.84451E+01  5.57048E+01  6.32869E+01  6.67509E+01  6.70693E+01  6.55133E+01
   5.96236E+01  4.28706E+01  2.47122E+01  3.11664E+00 -1.06192E+01 -8.91739E+00  4.31062E+00  2.30504E+01  4.21780E+01  5.35199E+01
   5.93883E+01  6.39676E+01  6.72933E+01  7.12622E+01  7.49285E+01  7.90098E+01  8.19664E+01  8.38953E+01  8.54847E+01  8.15560E+01
   7.91623E+01  7.83440E+01  6.41652E+01  3.91644E+01  2.40368E+01  7.64793E+00  2.35127E+00 -3.44047E+00 -1.74844E+01 -7.85650E+01
  -1.59302E+02 -1.74055E+02 -1.24068E+02 -7.82440E+01 -5.13900E+01 -3.46184E+01 -2.79056E+01 -2.12580E+01 -1.46609E+01 -8.11155E+00
  -1.15308E+00  6.56254E+00  1.50805E+01  2.48357E+01  3.58947E+01  4.65806E+01  5.58851E+01  6.33955E+01  7.87593E+01  9.80543E+01
   1.05395E+02  1.01092E+02  2.70871E+01 -7.44607E+01 -1.14583E+02 -9.68246E+01 -7.93856E+01 -6.42491E+01 -5.71359E+01 -5.54937E+01
  -5.45005E+01 -5.43126E+01 -5.58946E+01 -5.65702E+01 -5.55677E+01 -5.39450E+01 -5.14669E+01 -4.79489E+01 -4.46201E+01 -4.24825E+01
  -4.08187E+01 -3.94558E+01 -3.76389E+01 -3.51575E+01 -3.23340E+01 -2.96024E+01 -2.77606E+01 -2.74434E+01 -2.81172E+01 -2.75532E+01
  -2.54304E+01 -2.23734E+01 -2.13944E+01 -2.39259E+01 -2.65193E+01 -2.66035E+01 -2.56291E+01 -2.57241E+01 -2.56606E+01 -2.20058E+01
  -1.30559E+01 -1.35997E+00  8.97371E+00  9.18926E+00 -2.88646E-01 -4.42046E+00  1.38358E+00  9.41889E+00  8.92314E+00 -6.21623E+00
  -2.27837E+01 -3.13687E+01 -3.47386E+01 -3.59658E+01 -3.47167E+01 -3.38690E+01 -3.27992E+01 -3.23507E+01 -3.13743E+01 -3.03779E+01
  -3.01543E+01 -2.78060E+01 -2.51610E+01 -2.25950E+01 -1.32464E+01 -6.20665E+00 -8.44582E+00 -8.38958E+00 -3.67327E+00 -9.63173E-01
  -1.27031E+00 -1.23374E+00  4.25340E+00  1.19910E+01  1.37788E+01  6.76073E+00 -1.49814E+00 -1.08599E+01 -2.22179E+01 -3.19803E+01
  -3.55109E+01 -3.79611E+01 -2.98437E+01 -8.94615E+00  9.25716E+00  3.89460E+01  5.67905E+01  5.81195E+01  5.27357E+01  4.26099E+01
   2.64604E+01  2.17627E+01  2.15801E+01  2.29022E+01  2.39830E+01  2.05089E+01  1.37386E+01  4.44346E+00 -6.61613E+00 -1.85192E+01
  -2.97321E+01 -4.05327E+01 -5.12378E+01 -6.01888E+01 -6.75314E+01 -7.43170E+01 -7.63327E+01 -7.57299E+01 -7.56137E+01 -6.82270E+01
  -6.25553E+01 -5.42638E+01 -3.94679E+01 -2.71741E+01 -1.53223E+01 -8.06490E+00 -8.16328E+00 -1.12564E+01 -1.72230E+01 -2.04797E+01
  -2.42299E+01 -2.78326E+01 -2.85743E+01 -3.86715E+01 -5.21016E+01 -6.26160E+01 -7.85143E+01 -2.64500E+01  9.50784E+01  1.66081E+02
   1.57956E+02  1.31491E+02  1.09392E+02  9.46819E+01  8.98165E+01  8.59393E+01  8.20620E+01  7.84418E+01  7.52766E+01  7.25479E+01
   7.17435E+01  7.11473E+01  7.09931E+01  7.16390E+01  7.15983E+01  7.13521E+01  7.11740E+01  7.06596E+01  6.94638E+01  6.79303E+01
   6.57837E+01  6.38486E+01  6.20122E+01  6.01128E+01  5.77786E+01  5.56563E+01  5.32865E+01  5.05834E+01  4.75112E+01  4.37865E+01
   3.99466E+01  3.63990E+01  3.31048E+01  3.07148E+01  3.01717E+01  3.12729E+01  3.36963E+01  3.65636E+01  3.93403E+01  4.18673E+01
   4.46832E+01  4.74517E+01  4.99600E+01  5.21547E+01  5.43161E+01  5.64228E+01  5.87132E+01  6.14550E+01  6.41527E+01  6.62770E+01
   6.79820E+01  6.94699E+01  7.08764E+01  7.22043E+01  7.29110E+01  7.28067E+01  7.22758E+01  7.08748E+01  6.86172E+01  6.62895E+01
   6.38895E+01  6.06258E+01  5.70593E+01  5.29178E+01  4.79911E+01  4.14312E+01  3.29505E+01  2.34464E+01  1.48970E+01  7.95733E+00
   2.96182E+00  4.54184E-01  6.83634E-01  3.65249E+00  8.41025E+00  1.38657E+01  1.82901E+01  2.12685E+01  2.33150E+01  2.50411E+01
   2.76056E+01  3.16925E+01  3.59829E+01  4.00415E+01  4.30880E+01  4.46128E+01  4.49054E+01  4.47293E+01  4.42134E+01  4.26690E+01
   3.98483E+01  3.61330E+01  3.16504E+01  2.71369E+01  2.40240E+01  2.28115E+01  2.32103E+01  2.49362E+01  2.76387E+01  3.09375E+01
   3.46691E+01  3.84788E+01  4.23786E+01  4.57630E+01  4.88179E+01  5.17083E+01  5.45384E+01  5.73612E+01  6.03595E+01  6.33308E+01
   6.61967E+01  6.93073E+01  7.29219E+01  7.67202E+01  8.11776E+01  8.62051E+01  9.16637E+01  9.76454E+01  1.04527E+02  1.11383E+02
   1.18445E+02  1.26099E+02  1.33889E+02  1.40285E+02  1.44403E+02  1.44823E+02  1.40949E+02  1.32310E+02  1.20772E+02  1.08554E+02
   9.83019E+01  9.05058E+01  8.42938E+01  7.88757E+01  7.33333E+01  6.63746E+01  5.75143E+01  4.84685E+01  3.99418E+01  3.23941E+01
   2.66077E+01  2.29790E+01  2.01548E+01  1.81394E+01  1.67923E+01  1.60806E+01  1.52424E+01  1.43229E+01  1.33400E+01  1.25866E+01
   1.21021E+01  1.19345E+01  1.18653E+01  1.15805E+01  1.14643E+01  1.14438E+01  1.13548E+01  1.08224E+01  1.05020E+01  1.08711E+01
   1.09825E+01  1.06290E+01  1.03480E+01  1.03504E+01  1.01743E+01  9.98818E+00  9.83889E+00  9.95951E+00  1.03007E+01  1.03559E+01
   9.98614E+00  9.46847E+00  9.19328E+00  8.88861E+00  9.01191E+00  9.25064E+00  9.28863E+00  9.28246E+00  9.30530E+00  9.21325E+00
   9.11317E+00  9.07578E+00  8.71067E+00  8.32931E+00  7.87006E+00  7.70737E+00  7.94632E+00  8.03090E+00  7.83949E+00  7.77249E+00
   7.43318E+00  7.06821E+00  7.16280E+00  7.41606E+00  7.33932E+00  7.35746E+00  7.19345E+00  7.12119E+00  6.94659E+00  6.97267E+00
   6.56385E+00  6.16123E+00  5.72934E+00  5.51364E+00  5.42009E+00  5.61282E+00  5.97513E+00  6.37247E+00  6.27958E+00  5.66564E+00
   4.88466E+00  4.34491E+00  4.11815E+00  4.22934E+00  4.17802E+00  3.87350E+00  3.66347E+00  3.37293E+00  2.79394E+00  2.77621E+00
 NY background values follow
     4.967E+01    4.921E+01    4.876E+01    4.830E+01    4.785E+01    4.740E+01    4.694E+01    4.649E+01    4.604E+01    4.558E+01
     4.513E+01    4.468E+01    4.423E+01    4.378E+01    4.333E+01    4.288E+01    4.244E+01    4.199E+01    4.155E+01    4.111E+01
     4.067E+01    4.023E+01    3.979E+01    3.936E+01    3.893E+01    3.850E+01    3.807E+01    3.765E+01    3.722E+01    3.680E+01
     3.639E+01    3.598E+01    3.557E+01    3.516E+01    3.475E+01    3.435E+01    3.396E+01    3.356E+01    3.317E+01    3.279E+01
     3.240E+01    3.202E+01    3.165E+01    3.128E+01    3.091E+01    3.054E+01    3.018E+01    2.983E+01    2.948E+01    2.913E+01
     2.879E+01    2.845E+01    2.811E+01    2.778E+01    2.746E+01    2.714E+01    2.682E+01    2.651E+01    2.621E+01    2.590E+01
     2.561E+01    2.532E+01    2.503E+01    2.475E+01    2.447E+01    2.420E+01    2.393E+01    2.367E+01    2.341E+01    2.316E+01
     2.291E+01    2.267E+01    2.243E+01    2.220E+01    2.196E+01    2.174E+01    2.152E+01    2.130E+01    2.109E+01    2.088E+01
     2.067E+01    2.047E+01    2.027E+01    2.008E+01    1.989E+01    1.970E+01    1.952E+01    1.934E+01    1.917E+01    1.899E+01
     1.883E+01    1.866E+01    1.850E+01    1.834E+01    1.819E+01    1.804E+01    1.789E+01    1.775E+01    1.760E+01    1.747E+01
     1.733E+01    1.720E+01    1.707E+01    1.694E+01    1.682E+01    1.670E+01    1.658E+01    1.647E+01    1.636E+01    1.625E+01
     1.614E+01    1.604E+01    1.594E+01    1.584E+01    1.574E+01    1.565E+01    1.556E+01    1.547E+01    1.538E+01    1.530E+01
     1.522E+01    1.514E+01    1.506E+01    1.498E+01    1.491E+01    1.484E+01    1.477E+01    1.470E+01    1.464E+01    1.457E+01
     1.451E+01    1.445E+01    1.439E+01    1.433E+01    1.428E+01    1.422E+01    1.417E+01    1.411E+01    1.406E+01    1.401E+01
     1.396E+01    1.391E+01    1.386E+01    1.381E+01    1.377E+01    1.372E+01    1.367E+01    1.363E+01    1.358E+01    1.354E+01
     1.349E+01    1.345E+01    1.340E+01    1.336E+01    1.332E+01    1.327E+01    1.323E+01    1.318E+01    1.314E+01    1.309E+01
     1.305E+01    1.301E+01    1.296E+01    1.292E+01    1.288E+01    1.283E+01    1.279E+01    1.274E+01    1.270E+01    1.266E+01
     1.261E+01    1.257E+01    1.252E+01    1.248E+01    1.244E+01    1.239E+01    1.235E+01    1.230E+01    1.226E+01    1.221E+01
     1.217E+01    1.212E+01    1.208E+01    1.203E+01    1.199E+01    1.194E+01    1.189E+01    1.185E+01    1.180E+01    1.176E+01
     1.171E+01    1.167E+01    1.162E+01    1.157E+01    1.153E+01    1.148E+01    1.144E+01    1.139E+01    1.134E+01    1.130E+01
     1.125E+01    1.121E+01    1.116E+01    1.112E+01    1.107E+01    1.103E+01    1.098E+01    1.094E+01    1.089E+01    1.085E+01
     1.081E+01    1.076E+01    1.072E+01    1.068E+01    1.064E+01    1.059E+01    1.055E+01    1.051E+01    1.046E+01    1.042E+01
     1.038E+01    1.033E+01    1.029E+01    1.024E+01    1.020E+01    1.015E+01    1.011E+01    1.006E+01    1.002E+01    9.968E+00
     9.919E+00    9.870E+00    9.820E+00    9.770E+00    9.718E+00    9.665E+00    9.611E+00    9.557E+00    9.501E+00    9.443E+00
     9.385E+00    9.326E+00    9.265E+00    9.203E+00    9.141E+00    9.078E+00    9.015E+00    8.951E+00    8.886E+00    8.822E+00
     8.758E+00    8.693E+00    8.629E+00    8.566E+00    8.503E+00    8.440E+00    8.378E+00    8.317E+00    8.258E+00    8.199E+00
     8.142E+00    8.086E+00    8.031E+00    7.978E+00    7.927E+00    7.878E+00    7.831E+00    7.787E+00    7.744E+00    7.704E+00
     7.667E+00    7.632E+00    7.601E+00    7.572E+00    7.548E+00    7.527E+00    7.510E+00    7.498E+00    7.490E+00    7.488E+00
     7.490E+00    7.498E+00    7.511E+00    7.531E+00    7.556E+00    7.589E+00    7.628E+00    7.674E+00    7.727E+00    7.788E+00
     7.856E+00    7.933E+00    8.018E+00    8.112E+00    8.214E+00    8.326E+00    8.447E+00    8.577E+00    8.718E+00    8.869E+00
     9.030E+00    9.201E+00    9.383E+00    9.574E+00    9.775E+00    9.985E+00    1.020E+01    1.043E+01    1.067E+01    1.091E+01
     1.116E+01    1.142E+01    1.168E+01    1.196E+01    1.223E+01    1.252E+01    1.281E+01    1.310E+01    1.340E+01    1.371E+01
     1.402E+01    1.433E+01    1.465E+01    1.497E+01    1.530E+01    1.562E+01    1.596E+01    1.629E+01    1.662E+01    1.696E+01
     1.730E+01    1.764E+01    1.798E+01    1.832E+01    1.866E+01    1.900E+01    1.934E+01    1.967E+01    2.001E+01    2.035E+01
     2.068E+01    2.101E+01    2.134E+01    2.167E+01    2.199E+01    2.231E+01    2.262E+01    2.293E+01    2.324E+01    2.354E+01
     2.383E+01    2.412E+01    2.441E+01    2.469E+01    2.496E+01    2.522E+01    2.548E+01    2.573E+01    2.597E+01    2.620E+01
     2.643E+01    2.664E+01    2.685E+01    2.704E+01    2.723E+01    2.741E+01    2.758E+01    2.775E+01    2.790E+01    2.805E+01
     2.818E+01    2.831E+01    2.843E+01    2.854E+01    2.864E+01    2.873E+01    2.881E+01    2.888E+01    2.895E+01    2.900E+01
     2.905E+01    2.909E+01    2.912E+01    2.914E+01    2.915E+01    2.915E+01    2.914E+01    2.913E+01    2.910E+01    2.907E+01
     2.902E+01    2.897E+01    2.891E+01    2.884E+01    2.876E+01    2.868E+01    2.858E+01    2.848E+01    2.837E+01    2.826E+01
     2.813E+01    2.800E+01    2.787E+01    2.772E+01    2.758E+01    2.742E+01    2.726E+01    2.709E+01    2.692E+01    2.674E+01
     2.656E+01    2.637E+01    2.618E+01    2.598E+01    2.578E+01    2.558E+01    2.537E+01    2.516E+01    2.494E+01    2.472E+01
     2.450E+01    2.428E+01    2.405E+01    2.382E+01    2.359E+01    2.335E+01    2.311E+01    2.287E+01    2.263E+01    2.239E+01
     2.214E+01    2.189E+01    2.164E+01    2.139E+01    2.114E+01    2.088E+01    2.063E+01    2.037E+01    2.011E+01    1.985E+01
     1.959E+01    1.933E+01    1.906E+01    1.880E+01    1.854E+01    1.827E+01    1.801E+01    1.774E+01    1.747E+01    1.721E+01
     1.694E+01    1.668E+01    1.641E+01    1.614E+01    1.588E+01    1.561E+01    1.534E+01    1.508E+01    1.481E+01    1.455E+01
     1.428E+01    1.401E+01    1.375E+01    1.348E+01    1.321E+01    1.294E+01    1.268E+01    1.241E+01    1.214E+01    1.188E+01
     1.161E+01    1.134E+01    1.107E+01    1.081E+01    1.054E+01    1.027E+01    1.000E+01    9.733E+00    9.465E+00    9.196E+00
 Mac      Conc. = 2.64E-04
   3.02726E+01  2.96838E+01  2.89478E+01  2.79736E+01  2.63892E+01  2.41581E+01  2.16877E+01  1.95001E+01  1.79432E+01  1.70724E+01
   1.67470E+01  1.62417E+01  1.52961E+01  1.34598E+01  1.13170E+01  1.00516E+01  1.10607E+01  1.55819E+01  2.07633E+01  2.41265E+01
   2.67285E+01  2.90280E+01  2.98032E+01  2.96884E+01  2.99031E+01  3.07820E+01  3.20742E+01  3.36725E+01  3.51594E+01  3.59853E+01
   3.63445E+01  3.64618E+01  3.60871E+01  3.51945E+01  3.43923E+01  3.46460E+01  3.63236E+01  3.86422E+01  4.01450E+01  3.98584E+01
   3.87199E+01  3.83648E+01  3.89755E+01  4.01570E+01  4.09604E+01  4.07398E+01  3.95809E+01  3.79526E+01  3.61398E+01  3.42767E+01
   3.27869E+01  3.17139E+01  3.09294E+01  3.04427E+01  3.02876E+01  3.04561E+01  3.12820E+01  3.27732E+01  3.38362E+01  3.46129E+01
   3.56073E+01  3.57567E+01  3.46951E+01  3.33165E+01  3.18505E+01  3.07614E+01  3.00724E+01  2.97398E+01  2.96444E+01  3.06750E+01
   3.32627E+01  3.60530E+01  3.74587E+01  3.78623E+01  3.73311E+01  3.63802E+01  3.51660E+01  3.39447E+01  3.30214E+01  3.25054E+01
   3.21109E+01  3.18849E+01  3.21298E+01  3.29851E+01  3.37017E+01  3.43337E+01  3.49605E+01  3.54885E+01  3.56342E+01  3.58451E+01
   3.59528E+01  3.59196E+01  3.53504E+01  3.44311E+01  3.24185E+01  2.97182E+01  2.69066E+01  2.44001E+01  2.20886E+01  2.04413E+01
   1.86328E+01  1.59221E+01  1.22736E+01  7.56493E+00  1.51451E+00 -5.40033E+00 -1.15839E+01 -1.50282E+01 -1.49880E+01 -1.27463E+01
