 LCModel (Version 6.3-1N) Copyright: S.W. Provencher.          Ref.: Magn. Reson. Med. 30:672-679 (1993).                
 Slice_N1@15_23  28-Feb-2025 11:37:41
 27 lines in following concentration table = NCONC+1
    Conc.  %SD /Cr+PCr  Metabolite                                         
 2.84E-04   4% 2.9E-04 Mac                                                 
    2.552 109%   2.634 Cr                                                  
    5.199  54%   5.366 PCr                                                 
    5.894  17%   6.083 Ins                                                 
   11.897   9%  12.280 NAA                                                 
    5.515  20%   5.693 Tau                                                 
    0.000 999%   0.000 PCho                                                
    1.484  24%   1.531 GPC                                                 
    9.673  11%   9.984 Glu                                                 
    4.335  21%   4.475 Gln                                                 
    4.416  19%   4.558 Ala                                                 
    2.531  58%   2.612 Asc                                                 
    2.904  43%   2.998 Asp                                                 
    1.009  66%   1.041 GABA                                                
    1.024  85%   1.057 Glc                                                 
    0.821  69%   0.848 GSH                                                 
    5.302  16%   5.472 Lac                                                 
    3.210  29%   3.314 NAAG                                                
 3.67E-02 999% 3.8E-02 PE                                                  
    1.484  24%   1.531 GPC+PCho                                            
   15.108   6%  15.594 NAA+NAAG                                            
   14.009  10%  14.459 Glu+Gln                                             
    7.751  10%   8.000 Cr+PCr                                              
   15.108   6%  15.594 NAA+NAAG                                            
    7.751  10%   8.000 Cr+PCr                                              
   14.009  10%  14.459 Glu+Gln                                             
   6 lines in following misc. output table
  FWHM = 0.049 ppm    S/N =   4                                            
  Data shift = 0.000 ppm                                                   
  Ph: -43 deg       0.0 deg/ppm                                            
  alphaB,S = 1.7E-01,   4.5E+01                                            
   19 spline knots.   Ns = 7(1)                                            
  ( 8) 3 infls.   ( 9) 1 extrs.                                            
  480 points on ppm-axis = NY
      4.100000     4.091866     4.083733     4.075600     4.067466     4.059333     4.051199     4.043066     4.034933     4.026799
      4.018666     4.010532     4.002399     3.994265     3.986132     3.977998     3.969864     3.961731     3.953597     3.945463
      3.937330     3.929196     3.921062     3.912929     3.904795     3.896662     3.888528     3.880394     3.872261     3.864127
      3.855993     3.847860     3.839726     3.831592     3.823459     3.815325     3.807191     3.799058     3.790924     3.782790
      3.774657     3.766523     3.758389     3.750256     3.742122     3.733989     3.725855     3.717721     3.709588     3.701454
      3.693320     3.685187     3.677053     3.668919     3.660786     3.652652     3.644518     3.636385     3.628251     3.620117
      3.611984     3.603850     3.595716     3.587583     3.579449     3.571316     3.563182     3.555048     3.546915     3.538781
      3.530647     3.522514     3.514380     3.506246     3.498113     3.489979     3.481845     3.473712     3.465578     3.457444
      3.449311     3.441177     3.433043     3.424910     3.416776     3.408643     3.400509     3.392375     3.384242     3.376108
      3.367974     3.359841     3.351707     3.343573     3.335440     3.327306     3.319172     3.311039     3.302905     3.294771
      3.286638     3.278504     3.270370     3.262237     3.254103     3.245970     3.237836     3.229702     3.221569     3.213435
      3.205301     3.197168     3.189034     3.180900     3.172767     3.164633     3.156499     3.148366     3.140232     3.132098
      3.123965     3.115831     3.107697     3.099564     3.091430     3.083297     3.075163     3.067029     3.058896     3.050762
      3.042628     3.034495     3.026361     3.018227     3.010094     3.001960     2.993826     2.985693     2.977559     2.969425
      2.961292     2.953158     2.945024     2.936891     2.928757     2.920624     2.912490     2.904356     2.896223     2.888089
      2.879955     2.871822     2.863688     2.855554     2.847421     2.839287     2.831153     2.823020     2.814886     2.806752
      2.798619     2.790485     2.782351     2.774218     2.766084     2.757951     2.749817     2.741683     2.733550     2.725416
      2.717282     2.709149     2.701015     2.692881     2.684748     2.676614     2.668480     2.660347     2.652213     2.644079
      2.635946     2.627812     2.619678     2.611545     2.603411     2.595278     2.587144     2.579010     2.570877     2.562743
      2.554609     2.546476     2.538342     2.530208     2.522075     2.513941     2.505807     2.497674     2.489540     2.481406
      2.473273     2.465139     2.457006     2.448872     2.440738     2.432605     2.424471     2.416337     2.408204     2.400070
      2.391936     2.383803     2.375669     2.367535     2.359402     2.351268     2.343134     2.335001     2.326867     2.318733
      2.310600     2.302466     2.294333     2.286199     2.278065     2.269932     2.261798     2.253664     2.245531     2.237397
      2.229263     2.221130     2.212996     2.204862     2.196729     2.188595     2.180461     2.172328     2.164194     2.156060
      2.147927     2.139793     2.131660     2.123526     2.115392     2.107259     2.099125     2.090991     2.082858     2.074724
      2.066590     2.058457     2.050323     2.042189     2.034056     2.025922     2.017788     2.009655     2.001521     1.993387
      1.985254     1.977120     1.968987     1.960853     1.952719     1.944586     1.936452     1.928318     1.920185     1.912051
      1.903917     1.895784     1.887650     1.879516     1.871383     1.863249     1.855115     1.846982     1.838848     1.830714
      1.822581     1.814447     1.806314     1.798180     1.790046     1.781913     1.773779     1.765645     1.757512     1.749378
      1.741244     1.733111     1.724977     1.716843     1.708710     1.700576     1.692442     1.684309     1.676175     1.668041
      1.659908     1.651774     1.643641     1.635507     1.627373     1.619240     1.611106     1.602972     1.594839     1.586705
      1.578571     1.570438     1.562304     1.554170     1.546037     1.537903     1.529769     1.521636     1.513502     1.505368
      1.497235     1.489101     1.480968     1.472834     1.464700     1.456567     1.448433     1.440299     1.432166     1.424032
      1.415898     1.407765     1.399631     1.391497     1.383364     1.375230     1.367096     1.358963     1.350829     1.342695
      1.334562     1.326428     1.318295     1.310161     1.302027     1.293894     1.285760     1.277626     1.269493     1.261359
      1.253225     1.245092     1.236958     1.228824     1.220691     1.212557     1.204423     1.196290     1.188156     1.180022
      1.171889     1.163755     1.155622     1.147488     1.139354     1.131221     1.123087     1.114953     1.106820     1.098686
      1.090552     1.082419     1.074285     1.066151     1.058018     1.049884     1.041750     1.033617     1.025483     1.017349
      1.009216     1.001082     0.992949     0.984815     0.976681     0.968548     0.960414     0.952280     0.944147     0.936013
      0.927879     0.919746     0.911612     0.903478     0.895345     0.887211     0.879077     0.870944     0.862810     0.854676
      0.846543     0.838409     0.830276     0.822142     0.814008     0.805875     0.797741     0.789607     0.781474     0.773340
      0.765206     0.757073     0.748939     0.740805     0.732672     0.724538     0.716404     0.708271     0.700137     0.692003
      0.683870     0.675736     0.667603     0.659469     0.651335     0.643202     0.635068     0.626934     0.618801     0.610667
      0.602533     0.594400     0.586266     0.578132     0.569999     0.561865     0.553731     0.545598     0.537464     0.529330
      0.521197     0.513063     0.504930     0.496796     0.488662     0.480529     0.472395     0.464261     0.456128     0.447994
      0.439861     0.431727     0.423593     0.415460     0.407326     0.399192     0.391059     0.382925     0.374792     0.366658
      0.358524     0.350391     0.342257     0.334124     0.325990     0.317856     0.309723     0.301589     0.293455     0.285322
      0.277188     0.269055     0.260921     0.252787     0.244654     0.236520     0.228386     0.220253     0.212119     0.203986
 NY phased data points follow
  -5.47449E+00  6.68709E+00 -4.27260E+00  5.22669E+00 -1.79094E+01 -1.73912E+01  2.13149E+00 -9.47642E+00 -7.74350E+00 -1.63243E+01
  -1.05727E+01 -3.06400E+01 -4.59792E+01 -3.20914E+01 -2.44379E+01 -2.15476E+01 -4.58671E+01 -5.20255E+01 -4.93655E+01 -4.28437E+01
  -4.52010E+01 -4.25578E+01 -1.12322E+01 -1.47980E+01 -7.40580E-01  2.08808E+01  1.80227E+01  3.07705E+01  2.13174E+01  1.51171E+01
   1.87376E+01  2.58077E+01  3.47465E+01  2.94115E+01  2.32115E+01  6.78568E+00  1.30536E+01  2.08016E+00 -1.35199E+01 -2.20841E+01
  -3.90082E+01 -1.50133E+01 -6.58602E+00 -5.98456E+00  9.74802E-01  1.97724E+01  2.80475E+01  3.14497E+01  4.64791E+01  4.82806E+01
   6.42800E+01  3.35334E+01  2.69226E+01  3.66802E+01  1.75357E+01  2.01840E+01  1.93056E+01  2.03995E+01  6.17181E+00  2.20647E+01
   2.71044E+01  2.28678E+01  2.69376E+01  2.54615E+01  4.82004E+01  3.70770E+01  4.58140E+01  3.34890E+01  9.72426E+00  2.74696E+01
   1.14353E+01  5.80944E+00  1.44469E+01  2.56725E+01  3.99399E+01  4.03986E+01  4.62182E+01  4.57185E+01  4.11848E+01  5.11569E+01
   5.09520E+01  3.19804E+01  2.43574E+01  2.30374E+01  1.77627E+01  1.49262E+01  1.57327E+01  3.14478E+01  4.00458E+01  4.63537E+01
   5.73950E+01  4.54715E+01  6.31157E+01  8.13762E+01  7.76812E+01  7.60918E+01  6.94602E+01  7.82800E+01  7.22937E+01  8.34240E+01
   7.22201E+01  4.73957E+01  3.96919E+01  1.22803E+01  2.63302E+01  1.47220E+01 -2.19126E+00 -4.59895E+00 -2.87541E+01 -2.75935E+01
  -4.15184E+01 -4.66257E+01 -3.66663E+01 -4.78543E+01 -3.76275E+01 -1.03023E+01 -8.70365E+00 -2.66809E+00  4.14228E+00  6.87074E+00
   2.49362E+01  3.52925E+01  3.44373E+01  3.44014E+01  4.86646E+01  5.65269E+01  7.49699E+01  7.40053E+01  7.70861E+01  1.00458E+02
   7.56152E+01  5.97615E+01  1.83431E+01 -2.69332E+01 -2.52303E+01 -3.90666E+01 -6.04536E+01 -5.44245E+01 -4.91912E+01 -5.36438E+01
  -4.19601E+01 -4.66865E+01 -3.29784E+01 -3.94802E+01 -4.84740E+01 -2.81451E+01 -2.29754E+01 -1.35436E+01 -4.35009E+01 -3.84099E+01
  -2.77541E+01 -4.06607E+01 -1.32510E+01 -1.09627E+01 -1.62664E+01 -1.42336E+01 -1.77271E+01 -5.87772E+00 -7.72666E+00 -2.02745E+01
   1.31563E+01  1.12498E+01 -1.35441E+01 -2.55442E+00 -5.74505E+00 -1.09570E+01 -1.16964E+01  9.19209E+00  3.71468E+00  7.61448E+00
   3.43416E+01  2.90054E+01  2.28887E+01  2.20297E+01  2.53902E+01  1.58417E+01  2.48360E+01  1.22872E+01 -7.74396E+00  1.95957E+00
  -4.40518E+00 -2.43658E+01 -4.08309E+01 -3.14272E+01 -3.40621E+01 -2.92807E+01 -2.00459E+01 -1.92773E+01 -2.36615E+01 -2.48992E+01
  -1.78748E+01 -2.73328E+01 -7.07596E+00 -1.93257E+00 -8.91976E+00 -6.12998E+00 -1.75259E+00  1.52907E+01  8.81998E+00  7.32126E-01
   7.26880E+00  1.64638E+01  1.29046E+01  1.17772E+01 -2.51507E+00 -1.02128E+01  6.66005E+00 -9.82354E+00 -2.44003E+01 -1.56393E+01
  -1.24501E+01 -1.75640E+01 -2.34497E+00  2.48515E+01  2.08696E+01  1.66175E+01  3.19187E+01  3.87355E+01  3.68370E+01  3.34169E+01
   1.84086E+01  5.75676E-01  6.25038E+00  7.03921E+00  2.92762E-01  6.07127E+00 -3.90017E+00  2.34537E+00  9.92417E+00  3.54914E+00
   3.38654E+00  3.20872E+00 -7.60106E+00 -3.91179E+01 -3.29752E+01 -3.78700E+01 -5.48480E+01 -5.30474E+01 -7.17747E+01 -6.22440E+01
  -5.05695E+01 -4.79803E+01 -3.89186E+01 -4.37199E+01 -3.95457E+01 -2.58287E+01 -3.68320E+01 -4.00964E+01 -2.43808E+01 -4.42120E+01
  -5.88368E+01 -5.14605E+01 -5.72957E+01 -6.76965E+01 -5.13302E+01 -2.82314E+01 -1.34808E+01  4.94348E+01  1.10875E+02  1.10022E+02
   1.18158E+02  1.53218E+02  1.50002E+02  1.16730E+02  1.05903E+02  1.16884E+02  1.04201E+02  8.20800E+01  8.54111E+01  8.95229E+01
   9.36223E+01  8.69708E+01  8.01295E+01  9.43364E+01  8.47160E+01  7.32608E+01  9.05907E+01  9.49719E+01  9.40215E+01  9.29501E+01
   8.87782E+01  8.85449E+01  8.07503E+01  7.64702E+01  6.87013E+01  8.10998E+01  8.85443E+01  5.22380E+01  4.90998E+01  6.48628E+01
   6.25004E+01  6.94146E+01  6.70864E+01  5.78790E+01  5.51034E+01  4.94639E+01  3.03434E+01  2.53712E+01  3.95945E+01  4.43022E+01
   5.71468E+01  5.39629E+01  6.36373E+01  8.21745E+01  6.83050E+01  7.68152E+01  8.22242E+01  8.47552E+01  1.02736E+02  1.02168E+02
   8.25548E+01  7.94214E+01  6.24773E+01  3.95367E+01  4.29012E+01  1.73516E+01  1.61118E+01  5.35800E+00 -4.36947E+00  1.35551E+01
   2.13555E+01  4.32148E+01  2.09650E+01  1.41866E+01  5.15630E+00 -5.73704E+00  1.13356E+01 -8.77243E+00  1.91625E+00  1.60107E+01
  -7.37723E+00 -4.92990E+00 -2.85757E+00 -2.13376E+01 -4.28723E+00 -3.90149E+00 -6.81564E+00  2.49567E-01 -1.49835E+01 -1.17056E+01
  -2.36167E+01 -2.06346E+01 -2.78061E+01 -5.44391E+01 -5.67825E+01 -4.77322E+01 -3.63859E+01 -2.74446E+01 -9.63177E+00 -1.11266E+01
   4.78098E-01  6.33925E+00  5.95388E+00  1.21584E+01  8.82846E+00  9.38175E+00 -7.25521E+00 -4.92210E+00 -8.54760E+00 -7.34458E+00
  -6.75210E+00 -1.34197E+01  8.40315E+00 -5.06472E-01 -7.94800E+00  7.84248E+00  2.66171E+01  2.51168E+01  2.05365E+01  3.35752E+01
   2.65486E+01  3.51541E+01  3.71343E+01  4.53307E+01  5.96610E+01  5.56882E+01  7.77965E+01  6.97965E+01  7.14273E+01  8.72412E+01
   8.44771E+01  9.66160E+01  8.89799E+01  9.90389E+01  1.08908E+02  1.14031E+02  1.13276E+02  9.66197E+01  1.17979E+02  1.25402E+02
   1.12683E+02  1.03672E+02  9.40967E+01  8.19691E+01  6.27369E+01  5.78880E+01  6.43900E+01  6.19491E+01  5.22947E+01  3.35485E+01
   2.49045E+01  4.70301E+01  2.83566E+01  1.12756E+01  2.61398E+01  1.64109E+01  9.31044E+00 -1.11775E+00 -1.62868E-01 -7.26830E+00
  -1.35123E+01  7.21721E-01 -4.13261E+00 -1.25455E+01 -2.33310E+01 -1.67984E+00  3.96342E+00 -2.03541E+01 -4.51174E+00 -3.67174E+00
   6.08579E+00  7.28608E+00 -1.19752E+01 -2.54739E+00 -1.24965E+01 -1.42962E+01 -1.06121E+01 -2.47053E+00 -3.96456E+00 -2.01039E+01
  -1.93015E+00  5.04977E+00 -2.39452E+00 -1.86602E+01  5.60361E-02  9.74050E+00 -1.70170E+01 -1.64375E+00 -9.72058E+00 -1.42349E+01
  -8.54716E+00 -6.42862E+00  6.90402E+00 -9.66563E+00 -2.65167E+00 -6.49391E+00 -1.04665E+01  1.44288E+01 -7.51411E+00 -1.11663E+01
  -1.00514E+00 -1.26195E+01 -4.61478E+00 -1.22819E+01 -5.63327E+00  3.93798E+00 -1.26961E+01 -9.92756E+00 -3.12549E+00 -1.62444E+00
   1.88784E+00  5.52033E+00  2.64697E+00  5.53112E+00  1.58963E+00 -1.27240E+01  2.54123E+00  1.20834E+01 -6.09394E+00 -4.73115E+00
   2.22812E+00 -9.79286E+00 -7.98103E+00 -8.85547E+00 -1.01065E+01 -3.73953E-01  7.94240E+00  2.65419E+00 -1.24168E+01  1.90355E+00
 NY points of the fit to the data follow
  -1.09768E+01 -1.07037E+01 -1.15540E+01 -1.24702E+01 -1.24686E+01 -1.13399E+01 -9.80255E+00 -8.97557E+00 -9.39449E+00 -1.10022E+01
  -1.37078E+01 -1.72535E+01 -2.13025E+01 -2.61783E+01 -3.06206E+01 -3.47492E+01 -3.93514E+01 -4.39516E+01 -4.73933E+01 -4.77642E+01
  -4.33707E+01 -3.37239E+01 -2.07174E+01 -7.07577E+00  6.11790E+00  1.74017E+01  2.50944E+01  2.96673E+01  3.23305E+01  3.33010E+01
   3.27692E+01  3.12613E+01  2.81872E+01  2.33284E+01  1.71779E+01  1.05950E+01  3.83817E+00 -3.31745E+00 -1.02168E+01 -1.57843E+01
  -1.87509E+01 -1.78444E+01 -1.28215E+01 -4.35128E+00  6.41151E+00  1.79192E+01  2.80167E+01  3.52140E+01  3.93998E+01  4.08112E+01
   4.01222E+01  3.76637E+01  3.32061E+01  2.83265E+01  2.41787E+01  2.04669E+01  1.75210E+01  1.56239E+01  1.49341E+01  1.56088E+01
   1.80758E+01  2.19074E+01  2.55406E+01  2.95299E+01  3.41832E+01  3.67240E+01  3.58913E+01  3.27110E+01  2.79883E+01  2.31848E+01
   2.03436E+01  2.04974E+01  2.33628E+01  2.87062E+01  3.57386E+01  4.25034E+01  4.66897E+01  4.89051E+01  4.90893E+01  4.67375E+01
   4.21275E+01  3.60930E+01  2.98266E+01  2.45834E+01  2.17535E+01  2.22116E+01  2.57049E+01  3.15196E+01  3.84523E+01  4.53106E+01
   5.14195E+01  5.65721E+01  6.05089E+01  6.36881E+01  6.66640E+01  6.89355E+01  6.99124E+01  7.01937E+01  6.87818E+01  6.59829E+01
   6.15349E+01  5.54229E+01  4.68423E+01  3.40352E+01  2.03993E+01  7.84699E+00 -3.44718E+00 -1.42881E+01 -2.58614E+01 -3.71889E+01
  -4.55344E+01 -4.84146E+01 -4.62282E+01 -4.06858E+01 -3.18073E+01 -2.04227E+01 -9.83546E+00 -1.55826E+00  5.69793E+00  1.27757E+01
   2.00694E+01  2.77890E+01  3.60949E+01  4.56885E+01  5.75955E+01  6.68881E+01  7.33319E+01  7.90264E+01  8.32709E+01  8.21297E+01
   7.14391E+01  5.05120E+01  2.26997E+01 -4.82736E+00 -2.65697E+01 -4.26177E+01 -5.21072E+01 -5.34320E+01 -5.03609E+01 -4.79716E+01
  -4.67069E+01 -4.56615E+01 -4.45915E+01 -4.33681E+01 -4.18790E+01 -4.01278E+01 -3.80757E+01 -3.57156E+01 -3.31114E+01 -3.04411E+01
  -2.78841E+01 -2.54793E+01 -2.31737E+01 -2.08626E+01 -1.85368E+01 -1.64562E+01 -1.48632E+01 -1.35939E+01 -1.23552E+01 -1.10404E+01
  -9.93091E+00 -9.31219E+00 -9.14050E+00 -8.96245E+00 -8.05744E+00 -6.34995E+00 -4.51626E+00 -2.65676E+00  3.04281E-01  5.16967E+00
   1.12374E+01  1.66907E+01  1.99363E+01  2.12745E+01  2.16321E+01  2.11840E+01  1.91377E+01  1.50553E+01  9.60331E+00  3.42909E+00
  -3.25142E+00 -1.00299E+01 -1.59749E+01 -2.00576E+01 -2.20618E+01 -2.30526E+01 -2.34928E+01 -2.26305E+01 -2.10778E+01 -1.93492E+01
  -1.69228E+01 -1.36401E+01 -9.40443E+00 -5.03595E+00 -8.89251E-01  2.98735E+00  6.38844E+00  9.41519E+00  1.13216E+01  1.19695E+01
   1.24201E+01  1.27380E+01  1.22166E+01  1.03999E+01  7.36072E+00  3.53444E+00 -8.61993E-01 -6.22851E+00 -1.06349E+01 -1.32705E+01
  -1.39154E+01 -1.15124E+01 -5.96112E+00  2.66573E+00  1.32527E+01  2.40437E+01  3.31236E+01  3.86743E+01  4.05448E+01  3.91864E+01
   3.55201E+01  3.14980E+01  2.81532E+01  2.51470E+01  2.22440E+01  1.87026E+01  1.37491E+01  6.90190E+00 -1.68488E+00 -1.11718E+01
  -2.11334E+01 -3.08182E+01 -3.94695E+01 -4.66195E+01 -5.21311E+01 -5.54762E+01 -5.68671E+01 -5.65505E+01 -5.50156E+01 -5.24634E+01
  -4.91071E+01 -4.54088E+01 -4.11403E+01 -3.70341E+01 -3.41814E+01 -3.32707E+01 -3.45667E+01 -3.68361E+01 -4.20001E+01 -5.24278E+01
  -5.98307E+01 -6.14478E+01 -5.99451E+01 -5.64923E+01 -4.82522E+01 -3.04495E+01 -7.96367E-01  3.80389E+01  7.56247E+01  1.03343E+02
   1.22542E+02  1.33000E+02  1.31104E+02  1.21407E+02  1.12092E+02  1.05030E+02  9.92768E+01  9.43393E+01  9.02348E+01  8.69687E+01
   8.46602E+01  8.32935E+01  8.26850E+01  8.26105E+01  8.27330E+01  8.27978E+01  8.26569E+01  8.21797E+01  8.12773E+01  7.99817E+01
   7.83221E+01  7.63834E+01  7.42278E+01  7.18571E+01  6.93345E+01  6.66855E+01  6.38911E+01  6.09077E+01  5.77354E+01  5.44461E+01
   5.11379E+01  4.79236E+01  4.49722E+01  4.24977E+01  4.07742E+01  3.99700E+01  4.00849E+01  4.10208E+01  4.26314E+01  4.47131E+01
   4.70727E+01  4.95897E+01  5.21590E+01  5.47079E+01  5.72331E+01  5.97332E+01  6.22401E+01  6.47905E+01  6.73667E+01  6.99138E+01
   7.24283E+01  7.48884E+01  7.72679E+01  7.94185E+01  8.02178E+01  8.01442E+01  7.87888E+01  7.54963E+01  6.99793E+01  6.15853E+01
   5.03124E+01  3.71800E+01  2.44389E+01  1.39692E+01  6.51076E+00  2.47077E+00  8.79469E-01 -2.96293E-02 -9.65502E-01 -2.02143E+00
  -3.35489E+00 -4.04970E+00 -2.94770E+00 -8.61294E-01  2.30400E+00  6.20950E+00  9.63838E+00  1.17995E+01  1.11956E+01  6.76423E+00
  -1.25621E+00 -1.06574E+01 -1.87127E+01 -2.37909E+01 -2.46402E+01 -2.15205E+01 -1.64589E+01 -1.10827E+01 -6.45259E+00 -3.70357E+00
  -2.92309E+00 -3.35870E+00 -4.52941E+00 -6.10710E+00 -7.67184E+00 -8.80180E+00 -9.18251E+00 -8.66622E+00 -7.20037E+00 -4.86065E+00
  -1.84284E+00  1.63942E+00  5.40011E+00  9.27289E+00  1.31220E+01  1.68966E+01  2.05827E+01  2.41740E+01  2.77427E+01  3.13442E+01
   3.50118E+01  3.88130E+01  4.28603E+01  4.71892E+01  5.18510E+01  5.69461E+01  6.25398E+01  6.85919E+01  7.50669E+01  8.18566E+01
   8.87694E+01  9.55338E+01  1.01824E+02  1.07172E+02  1.11113E+02  1.13203E+02  1.12977E+02  1.10217E+02  1.05086E+02  9.81077E+01
   8.99592E+01  8.13916E+01  7.29677E+01  6.49487E+01  5.73702E+01  5.00258E+01  4.26446E+01  3.51623E+01  2.77356E+01  2.06308E+01
   1.41289E+01  8.53193E+00  3.96672E+00  3.88239E-01 -2.27466E+00 -4.16955E+00 -5.52572E+00 -6.55104E+00 -7.31388E+00 -7.86022E+00
  -8.24211E+00 -8.51172E+00 -8.66491E+00 -8.66302E+00 -8.56508E+00 -8.42315E+00 -8.28222E+00 -8.13957E+00 -7.96826E+00 -7.76058E+00
  -7.54876E+00 -7.36292E+00 -7.15307E+00 -6.91433E+00 -6.69688E+00 -6.52689E+00 -6.34363E+00 -6.11697E+00 -5.86298E+00 -5.62129E+00
  -5.43279E+00 -5.27331E+00 -5.13386E+00 -5.00400E+00 -4.86424E+00 -4.66680E+00 -4.42044E+00 -4.16197E+00 -3.91189E+00 -3.67619E+00
  -3.46738E+00 -3.30792E+00 -3.19849E+00 -3.12993E+00 -3.09323E+00 -3.04208E+00 -2.94468E+00 -2.80586E+00 -2.65895E+00 -2.49568E+00
  -2.34054E+00 -2.19404E+00 -2.04050E+00 -1.83862E+00 -1.63257E+00 -1.43052E+00 -1.22652E+00 -1.03870E+00 -8.89775E-01 -7.78252E-01
  -6.84076E-01 -6.04986E-01 -5.25788E-01 -4.35332E-01 -3.17422E-01 -1.39153E-01  1.08639E-01  4.01555E-01  6.55611E-01  8.19776E-01
   9.15452E-01  9.65543E-01  9.86604E-01  1.03243E+00  1.13367E+00  1.28468E+00  1.49599E+00  1.75419E+00  2.05959E+00  2.44726E+00
 NY background values follow
     1.167E+01    1.178E+01    1.188E+01    1.199E+01    1.210E+01    1.221E+01    1.232E+01    1.243E+01    1.254E+01    1.265E+01
     1.276E+01    1.287E+01    1.298E+01    1.309E+01    1.321E+01    1.332E+01    1.343E+01    1.355E+01    1.366E+01    1.377E+01
     1.389E+01    1.400E+01    1.412E+01    1.424E+01    1.435E+01    1.447E+01    1.459E+01    1.471E+01    1.482E+01    1.494E+01
     1.506E+01    1.519E+01    1.531E+01    1.543E+01    1.555E+01    1.567E+01    1.580E+01    1.592E+01    1.604E+01    1.617E+01
     1.629E+01    1.642E+01    1.654E+01    1.667E+01    1.679E+01    1.692E+01    1.704E+01    1.717E+01    1.729E+01    1.741E+01
     1.754E+01    1.766E+01    1.779E+01    1.791E+01    1.803E+01    1.815E+01    1.827E+01    1.840E+01    1.852E+01    1.864E+01
     1.876E+01    1.887E+01    1.899E+01    1.911E+01    1.923E+01    1.934E+01    1.946E+01    1.957E+01    1.968E+01    1.979E+01
     1.990E+01    2.001E+01    2.012E+01    2.023E+01    2.033E+01    2.044E+01    2.054E+01    2.064E+01    2.074E+01    2.084E+01
     2.094E+01    2.104E+01    2.113E+01    2.122E+01    2.131E+01    2.140E+01    2.149E+01    2.158E+01    2.166E+01    2.174E+01
     2.182E+01    2.190E+01    2.198E+01    2.205E+01    2.212E+01    2.219E+01    2.226E+01    2.233E+01    2.239E+01    2.245E+01
     2.251E+01    2.257E+01    2.262E+01    2.268E+01    2.273E+01    2.278E+01    2.282E+01    2.287E+01    2.291E+01    2.295E+01
     2.299E+01    2.302E+01    2.306E+01    2.309E+01    2.312E+01    2.314E+01    2.317E+01    2.319E+01    2.320E+01    2.322E+01
     2.323E+01    2.325E+01    2.325E+01    2.326E+01    2.326E+01    2.327E+01    2.326E+01    2.326E+01    2.325E+01    2.325E+01
     2.323E+01    2.322E+01    2.320E+01    2.318E+01    2.316E+01    2.314E+01    2.311E+01    2.308E+01    2.304E+01    2.301E+01
     2.297E+01    2.293E+01    2.288E+01    2.284E+01    2.279E+01    2.273E+01    2.268E+01    2.262E+01    2.256E+01    2.249E+01
     2.243E+01    2.236E+01    2.229E+01    2.221E+01    2.213E+01    2.205E+01    2.197E+01    2.188E+01    2.180E+01    2.171E+01
     2.161E+01    2.152E+01    2.142E+01    2.133E+01    2.123E+01    2.113E+01    2.102E+01    2.092E+01    2.081E+01    2.071E+01
     2.060E+01    2.049E+01    2.038E+01    2.027E+01    2.016E+01    2.005E+01    1.993E+01    1.982E+01    1.971E+01    1.959E+01
     1.948E+01    1.936E+01    1.925E+01    1.913E+01    1.902E+01    1.890E+01    1.879E+01    1.867E+01    1.856E+01    1.844E+01
     1.832E+01    1.821E+01    1.809E+01    1.798E+01    1.786E+01    1.775E+01    1.764E+01    1.752E+01    1.741E+01    1.729E+01
     1.718E+01    1.707E+01    1.696E+01    1.685E+01    1.673E+01    1.662E+01    1.651E+01    1.641E+01    1.630E+01    1.619E+01
     1.608E+01    1.597E+01    1.587E+01    1.576E+01    1.566E+01    1.555E+01    1.545E+01    1.534E+01    1.524E+01    1.513E+01
     1.503E+01    1.492E+01    1.482E+01    1.471E+01    1.460E+01    1.449E+01    1.438E+01    1.427E+01    1.416E+01    1.405E+01
     1.393E+01    1.382E+01    1.370E+01    1.358E+01    1.346E+01    1.333E+01    1.321E+01    1.308E+01    1.295E+01    1.282E+01
     1.268E+01    1.255E+01    1.241E+01    1.226E+01    1.212E+01    1.197E+01    1.182E+01    1.167E+01    1.151E+01    1.135E+01
     1.119E+01    1.102E+01    1.086E+01    1.069E+01    1.051E+01    1.033E+01    1.015E+01    9.972E+00    9.785E+00    9.596E+00
     9.403E+00    9.207E+00    9.008E+00    8.806E+00    8.600E+00    8.391E+00    8.179E+00    7.963E+00    7.744E+00    7.521E+00
     7.295E+00    7.065E+00    6.832E+00    6.597E+00    6.358E+00    6.117E+00    5.873E+00    5.627E+00    5.379E+00    5.130E+00
     4.879E+00    4.626E+00    4.372E+00    4.117E+00    3.862E+00    3.606E+00    3.349E+00    3.092E+00    2.835E+00    2.579E+00
     2.323E+00    2.067E+00    1.812E+00    1.559E+00    1.306E+00    1.055E+00    8.059E-01    5.583E-01    3.127E-01    6.938E-02
    -1.717E-01   -4.099E-01   -6.451E-01   -8.771E-01   -1.105E+00   -1.330E+00   -1.550E+00   -1.766E+00   -1.977E+00   -2.183E+00
    -2.384E+00   -2.579E+00   -2.768E+00   -2.950E+00   -3.126E+00   -3.296E+00   -3.458E+00   -3.612E+00   -3.759E+00   -3.898E+00
    -4.029E+00   -4.150E+00   -4.263E+00   -4.367E+00   -4.461E+00   -4.545E+00   -4.619E+00   -4.683E+00   -4.736E+00   -4.778E+00
    -4.808E+00   -4.827E+00   -4.836E+00   -4.833E+00   -4.820E+00   -4.796E+00   -4.762E+00   -4.719E+00   -4.665E+00   -4.602E+00
    -4.530E+00   -4.449E+00   -4.359E+00   -4.260E+00   -4.153E+00   -4.037E+00   -3.914E+00   -3.783E+00   -3.645E+00   -3.499E+00
    -3.346E+00   -3.187E+00   -3.021E+00   -2.848E+00   -2.670E+00   -2.485E+00   -2.295E+00   -2.099E+00   -1.898E+00   -1.692E+00
    -1.481E+00   -1.265E+00   -1.046E+00   -8.222E-01   -5.953E-01   -3.654E-01   -1.328E-01    1.023E-01    3.394E-01    5.781E-01
     8.182E-01    1.059E+00    1.301E+00    1.543E+00    1.785E+00    2.026E+00    2.267E+00    2.506E+00    2.744E+00    2.980E+00
     3.214E+00    3.446E+00    3.674E+00    3.899E+00    4.121E+00    4.339E+00    4.552E+00    4.761E+00    4.964E+00    5.163E+00
     5.355E+00    5.542E+00    5.723E+00    5.898E+00    6.068E+00    6.231E+00    6.389E+00    6.541E+00    6.687E+00    6.827E+00
     6.961E+00    7.089E+00    7.211E+00    7.328E+00    7.438E+00    7.543E+00    7.642E+00    7.734E+00    7.821E+00    7.902E+00
     7.977E+00    8.046E+00    8.108E+00    8.165E+00    8.216E+00    8.261E+00    8.299E+00    8.332E+00    8.359E+00    8.379E+00
     8.394E+00    8.402E+00    8.405E+00    8.402E+00    8.394E+00    8.380E+00    8.361E+00    8.338E+00    8.309E+00    8.276E+00
     8.238E+00    8.196E+00    8.150E+00    8.099E+00    8.045E+00    7.987E+00    7.926E+00    7.861E+00    7.792E+00    7.721E+00
     7.647E+00    7.570E+00    7.491E+00    7.409E+00    7.324E+00    7.238E+00    7.149E+00    7.059E+00    6.967E+00    6.874E+00
     6.779E+00    6.683E+00    6.586E+00    6.488E+00    6.388E+00    6.287E+00    6.186E+00    6.083E+00    5.980E+00    5.875E+00
     5.770E+00    5.664E+00    5.557E+00    5.449E+00    5.341E+00    5.232E+00    5.123E+00    5.013E+00    4.902E+00    4.791E+00
     4.680E+00    4.569E+00    4.457E+00    4.345E+00    4.233E+00    4.121E+00    4.009E+00    3.896E+00    3.784E+00    3.672E+00
 Mac      Conc. = 2.84E-04
  -8.84854E+00 -9.32317E+00 -9.84449E+00 -1.04560E+01 -1.11765E+01 -1.20643E+01 -1.30885E+01 -1.41808E+01 -1.52690E+01 -1.62778E+01
  -1.71061E+01 -1.75966E+01 -1.78450E+01 -1.80079E+01 -1.80172E+01 -1.76478E+01 -1.66590E+01 -1.49193E+01 -1.24739E+01 -9.53167E+00
  -6.36418E+00 -3.21679E+00 -4.18268E-01  1.83294E+00  3.70314E+00  5.42796E+00  7.07554E+00  8.65933E+00  1.02059E+01  1.16769E+01
   1.30111E+01  1.41863E+01  1.51617E+01  1.59017E+01  1.65033E+01  1.71937E+01  1.81245E+01  1.92968E+01  2.05658E+01  2.17534E+01
   2.27771E+01  2.36377E+01  2.43812E+01  2.50004E+01  2.55072E+01  2.58853E+01  2.60352E+01  2.58727E+01  2.53776E+01  2.46339E+01
   2.38189E+01  2.31207E+01  2.25969E+01  2.22960E+01  2.23068E+01  2.26442E+01  2.32650E+01  2.41112E+01  2.50780E+01  2.60844E+01
   2.70229E+01  2.77647E+01  2.81295E+01  2.81497E+01  2.80241E+01  2.78521E+01  2.76920E+01  2.76899E+01  2.79881E+01  2.86862E+01
   2.97737E+01  3.11037E+01  3.24509E+01  3.36381E+01  3.45353E+01  3.50189E+01  3.50789E+01  3.48762E+01  3.45559E+01  3.42571E+01
   3.40479E+01  3.40122E+01  3.41835E+01  3.45782E+01  3.51471E+01  3.58242E+01  3.65509E+01  3.72776E+01  3.78796E+01  3.83086E+01
   3.85503E+01  3.85538E+01  3.82557E+01  3.76353E+01  3.66444E+01  3.52319E+01  3.34470E+01  3.14052E+01  2.91644E+01  2.67296E+01
   2.40697E+01  2.11519E+01  1.79317E+01  1.43462E+01  1.03832E+01  6.18337E+00  2.14779E+00 -1.24471E+00 -3.57917E+00 -4.65124E+00
