 
 $NMID
 ID=''
 FMTDAT='(2E13.5)'
 TRAMP=   1.00000E+0
 VOLUME=   1.00000E+0
 $END
   2.04671E+5   4.25593E+5
   8.61099E+4   1.24963E+6
   1.79776E+5   1.20633E+6
   5.38408E+4   1.16942E+6
  -6.19673E+3   1.24429E+6
  -6.45506E+3   1.20931E+6
  -7.32379E+4   1.15867E+6
  -1.22998E+5   1.17280E+6
  -1.50190E+5   1.14518E+6
  -2.19189E+5   1.12626E+6
  -2.54461E+5   1.13771E+6
  -2.68516E+5   1.10935E+6
  -3.13987E+5   1.08202E+6
  -3.44322E+5   1.07188E+6
  -3.68730E+5   1.03721E+6
  -4.09800E+5   1.01503E+6
  -4.41976E+5   1.01006E+6
  -4.72717E+5   9.75555E+5
  -5.13187E+5   9.42737E+5
  -5.40447E+5   9.21567E+5
  -5.72627E+5   8.83022E+5
  -6.10620E+5   8.51191E+5
  -6.31662E+5   8.28202E+5
  -6.54846E+5   7.94401E+5
  -6.82771E+5   7.60281E+5
  -6.94083E+5   7.33458E+5
  -7.09445E+5   7.01254E+5
  -7.31543E+5   6.72883E+5
  -7.44141E+5   6.42641E+5
  -7.55136E+5   6.10251E+5
  -7.72141E+5   5.81225E+5
  -7.83633E+5   5.48707E+5
  -7.97042E+5   5.09059E+5
  -8.09773E+5   4.73139E+5
  -8.17285E+5   4.39487E+5
  -8.28469E+5   4.03915E+5
  -8.40909E+5   3.69479E+5
  -8.45062E+5   3.32556E+5
  -8.46084E+5   2.96441E+5
  -8.50468E+5   2.64886E+5
  -8.51714E+5   2.31809E+5
  -8.50792E+5   1.99436E+5
  -8.48042E+5   1.72585E+5
  -8.46002E+5   1.44256E+5
  -8.42169E+5   1.12857E+5
  -8.38260E+5   8.41512E+4
  -8.34037E+5   5.41081E+4
  -8.29390E+5   2.07967E+4
  -8.20394E+5  -1.10425E+4
  -8.11147E+5  -4.04443E+4
  -8.03662E+5  -6.97952E+4
  -7.94706E+5  -1.00450E+5
  -7.82709E+5  -1.30006E+5
  -7.71368E+5  -1.57789E+5
  -7.59500E+5  -1.84672E+5
  -7.46689E+5  -2.11299E+5
  -7.31623E+5  -2.36268E+5
  -7.16622E+5  -2.58420E+5
  -7.01455E+5  -2.79749E+5
  -6.86880E+5  -3.02016E+5
  -6.70535E+5  -3.24106E+5
  -6.53976E+5  -3.44517E+5
  -6.37083E+5  -3.64417E+5
  -6.18917E+5  -3.84605E+5
  -5.98451E+5  -4.03604E+5
  -5.78499E+5  -4.20379E+5
  -5.59144E+5  -4.36466E+5
  -5.39803E+5  -4.52262E+5
  -5.19714E+5  -4.67775E+5
  -4.99079E+5  -4.82084E+5
  -4.77895E+5  -4.94799E+5
  -4.56704E+5  -5.06238E+5
  -4.36782E+5  -5.17046E+5
  -4.16459E+5  -5.27912E+5
  -3.94749E+5  -5.37421E+5
  -3.73442E+5  -5.45510E+5
  -3.51629E+5  -5.53095E+5
  -3.30067E+5  -5.60227E+5
  -3.07423E+5  -5.66636E+5
  -2.84738E+5  -5.72024E+5
  -2.62825E+5  -5.76324E+5
  -2.41029E+5  -5.79337E+5
  -2.19904E+5  -5.81896E+5
  -1.98031E+5  -5.83232E+5
  -1.75982E+5  -5.84182E+5
  -1.55450E+5  -5.83409E+5
  -1.35648E+5  -5.83105E+5
  -1.15480E+5  -5.81463E+5
  -9.57910E+4  -5.79036E+5
  -7.71626E+4  -5.75442E+5
  -5.92438E+4  -5.71538E+5
  -4.06179E+4  -5.67526E+5
  -2.18119E+4  -5.62808E+5
  -3.34596E+3  -5.56961E+5
   1.42224E+4  -5.50048E+5
   3.12174E+4  -5.43079E+5
   4.79630E+4  -5.35633E+5
   6.47364E+4  -5.28555E+5
   8.10080E+4  -5.19650E+5
   9.60425E+4  -5.10989E+5
   1.10527E+5  -5.01947E+5
   1.25497E+5  -4.92837E+5
   1.39441E+5  -4.82131E+5
   1.52390E+5  -4.70679E+5
   1.64162E+5  -4.60338E+5
   1.75640E+5  -4.50606E+5
   1.87567E+5  -4.39437E+5
   1.98746E+5  -4.27568E+5
   2.09148E+5  -4.14897E+5
   2.18348E+5  -4.02827E+5
   2.27488E+5  -3.91321E+5
   2.37355E+5  -3.79309E+5
   2.46210E+5  -3.66716E+5
   2.54539E+5  -3.53893E+5
   2.61608E+5  -3.40930E+5
   2.69127E+5  -3.27982E+5
   2.76189E+5  -3.14756E+5
   2.81957E+5  -3.01688E+5
   2.86541E+5  -2.88477E+5
   2.90538E+5  -2.76119E+5
   2.95079E+5  -2.63890E+5
   2.99106E+5  -2.50753E+5
   3.02362E+5  -2.37888E+5
   3.05554E+5  -2.25378E+5
   3.08107E+5  -2.12899E+5
   3.09622E+5  -1.99994E+5
   3.10877E+5  -1.87424E+5
   3.11479E+5  -1.75065E+5
   3.12242E+5  -1.63115E+5
   3.12747E+5  -1.50339E+5
   3.12794E+5  -1.37825E+5
   3.11742E+5  -1.25503E+5
   3.10283E+5  -1.13999E+5
   3.08553E+5  -1.02427E+5
   3.06527E+5  -9.10134E+4
   3.04224E+5  -7.98777E+4
   3.01259E+5  -6.87179E+4
   2.98358E+5  -5.82940E+4
   2.95053E+5  -4.77865E+4
   2.91186E+5  -3.69541E+4
   2.86904E+5  -2.67225E+4
   2.82089E+5  -1.72671E+4
   2.77436E+5  -8.44561E+3
   2.72682E+5   6.73572E+2
   2.67518E+5   9.82052E+3
   2.61609E+5   1.84963E+4
   2.55724E+5   2.68363E+4
   2.49380E+5   3.46783E+4
   2.43261E+5   4.21729E+4
   2.36615E+5   4.95043E+4
   2.30190E+5   5.63666E+4
   2.23525E+5   6.30184E+4
   2.16641E+5   6.93025E+4
   2.10268E+5   7.57838E+4
   2.03029E+5   8.13295E+4
   1.95960E+5   8.68753E+4
   1.88959E+5   9.17155E+4
   1.81806E+5   9.63262E+4
   1.74634E+5   1.01230E+5
   1.67219E+5   1.05185E+5
   1.60139E+5   1.09400E+5
   1.52663E+5   1.12714E+5
   1.45514E+5   1.16357E+5
   1.37946E+5   1.19673E+5
   1.30674E+5   1.22475E+5
   1.23674E+5   1.24607E+5
   1.16624E+5   1.27381E+5
   1.09709E+5   1.29392E+5
   1.02831E+5   1.31263E+5
   9.57056E+4   1.32559E+5
   8.90503E+4   1.33811E+5
   8.26303E+4   1.35135E+5
   7.59083E+4   1.35945E+5
   6.93235E+4   1.36713E+5
   6.26642E+4   1.36744E+5
   5.65912E+4   1.36978E+5
   5.05029E+4   1.37383E+5
   4.39116E+4   1.37142E+5
   3.77509E+4   1.36350E+5
   3.21693E+4   1.35751E+5
   2.67078E+4   1.35291E+5
   2.11941E+4   1.34536E+5
   1.52138E+4   1.33315E+5
   9.89798E+3   1.31846E+5
   4.93103E+3   1.30280E+5
  -2.08595E+2   1.28652E+5
  -5.34989E+3   1.26860E+5
  -9.82336E+3   1.24746E+5
  -1.43753E+4   1.22427E+5
  -1.86504E+4   1.20454E+5
  -2.28527E+4   1.18582E+5
  -2.73409E+4   1.16329E+5
  -3.14320E+4   1.13330E+5
  -3.54367E+4   1.10597E+5
  -3.88522E+4   1.08107E+5
  -4.24260E+4   1.05047E+5
  -4.60471E+4   1.01860E+5
  -4.93689E+4   9.90393E+4
  -5.24443E+4   9.58533E+4
  -5.57774E+4   9.27649E+4
  -5.85432E+4   8.93318E+4
  -6.14067E+4   8.58108E+4
  -6.36499E+4   8.24812E+4
  -6.60311E+4   7.92643E+4
  -6.86921E+4   7.57297E+4
  -7.06314E+4   7.24204E+4
  -7.26082E+4   6.86422E+4
  -7.41746E+4   6.50209E+4
  -7.59464E+4   6.16257E+4
  -7.74174E+4   5.80794E+4
  -7.88634E+4   5.44244E+4
  -8.00133E+4   5.06549E+4
  -8.11124E+4   4.73101E+4
  -8.22600E+4   4.39631E+4
  -8.31257E+4   4.02122E+4
  -8.35105E+4   3.63031E+4
  -8.39243E+4   3.31061E+4
  -8.41592E+4   2.99591E+4
  -8.47849E+4   2.65412E+4
  -8.49110E+4   2.33293E+4
  -8.48544E+4   1.99720E+4
  -8.48788E+4   1.68425E+4
  -8.44010E+4   1.36870E+4
  -8.45476E+4   1.07415E+4
  -8.41665E+4   7.80493E+3
  -8.34817E+4   4.70533E+3
  -8.27984E+4   2.08876E+3
  -8.22439E+4  -4.54557E+2
  -8.15308E+4  -3.42494E+3
  -8.05857E+4  -6.01225E+3
  -7.95349E+4  -8.31403E+3
  -7.84978E+4  -1.06702E+4
  -7.72387E+4  -1.26929E+4
  -7.60787E+4  -1.49533E+4
  -7.50061E+4  -1.71796E+4
  -7.37045E+4  -1.89389E+4
  -7.23749E+4  -2.08832E+4
  -7.08268E+4  -2.26875E+4
  -6.94203E+4  -2.42597E+4
  -6.81490E+4  -2.59792E+4
  -6.65262E+4  -2.75567E+4
  -6.51852E+4  -2.88681E+4
  -6.34390E+4  -3.02265E+4
  -6.18848E+4  -3.16371E+4
  -6.04088E+4  -3.27517E+4
  -5.86463E+4  -3.39345E+4
  -5.67902E+4  -3.47508E+4
  -5.50570E+4  -3.59354E+4
  -5.35400E+4  -3.65927E+4
  -5.17362E+4  -3.75883E+4
  -5.00510E+4  -3.81651E+4
  -4.84423E+4  -3.87105E+4
  -4.66216E+4  -3.97704E+4
  -4.46657E+4  -3.99427E+4
  -4.31111E+4  -4.03824E+4
  -4.12266E+4  -4.08661E+4
  -3.95852E+4  -4.15451E+4
  -3.78082E+4  -4.17728E+4
  -3.61235E+4  -4.18105E+4
  -3.44230E+4  -4.18181E+4
  -3.29370E+4  -4.24346E+4
  -3.11622E+4  -4.23707E+4
  -2.95727E+4  -4.22854E+4
  -2.76616E+4  -4.22249E+4
  -2.62576E+4  -4.19552E+4
  -2.48886E+4  -4.22023E+4
  -2.31458E+4  -4.18439E+4
  -2.14746E+4  -4.15843E+4
  -2.05142E+4  -4.12389E+4
  -1.88409E+4  -4.10502E+4
  -1.71853E+4  -4.06673E+4
  -1.58080E+4  -4.04518E+4
  -1.47314E+4  -3.99699E+4
  -1.35252E+4  -3.92671E+4
  -1.17854E+4  -3.91034E+4
  -1.08490E+4  -3.84956E+4
  -9.41691E+3  -3.78897E+4
  -8.37400E+3  -3.70730E+4
  -7.18215E+3  -3.65705E+4
  -6.27454E+3  -3.58264E+4
  -5.08284E+3  -3.50699E+4
  -4.04446E+3  -3.44117E+4
  -3.22869E+3  -3.35545E+4
  -2.45449E+3  -3.31245E+4
  -1.19358E+3  -3.22276E+4
  -3.30639E+2  -3.15090E+4
   4.36586E+2  -3.06894E+4
   9.30262E+2  -2.99356E+4
   2.02222E+3  -2.91732E+4
   2.54857E+3  -2.83750E+4
   3.22521E+3  -2.75151E+4
   4.03163E+3  -2.65649E+4
   4.58278E+3  -2.58032E+4
   5.10021E+3  -2.50353E+4
   5.53623E+3  -2.43950E+4
   5.92064E+3  -2.33767E+4
   6.64123E+3  -2.26951E+4
   6.88140E+3  -2.17580E+4
   7.52649E+3  -2.09726E+4
   7.67289E+3  -2.02005E+4
   8.05410E+3  -1.93084E+4
   8.26081E+3  -1.85718E+4
   8.68850E+3  -1.78804E+4
   8.73204E+3  -1.72665E+4
   9.07764E+3  -1.64120E+4
   9.52910E+3  -1.55462E+4
   9.57350E+3  -1.47918E+4
   9.57930E+3  -1.41767E+4
   9.70762E+3  -1.35464E+4
   1.00370E+4  -1.26856E+4
   1.00391E+4  -1.21836E+4
   1.00517E+4  -1.18552E+4
   1.02871E+4  -1.08287E+4
   1.00489E+4  -1.03485E+4
   1.01323E+4  -9.88981E+3
   1.01724E+4  -9.36122E+3
   1.00952E+4  -8.65232E+3
   1.00693E+4  -8.15790E+3
   1.02107E+4  -7.72092E+3
   1.00297E+4  -7.20015E+3
   1.00004E+4  -6.69573E+3
   9.93541E+3  -6.21703E+3
   9.91374E+3  -5.80292E+3
   1.00263E+4  -5.14390E+3
   9.78817E+3  -4.87837E+3
   9.50165E+3  -4.74686E+3
   9.45047E+3  -4.26334E+3
   9.31948E+3  -3.96871E+3
   9.14388E+3  -3.61352E+3
   9.20724E+3  -3.33089E+3
   8.97761E+3  -3.13099E+3
   8.88671E+3  -2.99574E+3
   8.56475E+3  -2.74969E+3
   8.47654E+3  -2.27140E+3
   8.39207E+3  -2.21899E+3
   8.27219E+3  -2.24758E+3
   7.90720E+3  -1.81499E+3
   8.25635E+3  -1.76468E+3
   7.74108E+3  -1.50395E+3
   7.56921E+3  -1.40262E+3
   7.39984E+3  -1.58839E+3
   7.53384E+3  -1.43979E+3
   7.11822E+3  -9.60218E+2
   7.29028E+3  -8.18271E+2
   7.06659E+3  -9.37817E+2
   6.85608E+3  -9.55295E+2
   6.72881E+3  -7.40743E+2
   6.48526E+3  -7.66281E+2
   6.57560E+3  -8.59620E+2
   6.39355E+3  -9.14411E+2
   6.26006E+3  -8.27793E+2
   6.19306E+3  -7.94676E+2
   6.34581E+3  -8.34726E+2
   6.13724E+3  -1.01895E+3
   6.07119E+3  -9.89553E+2
   5.77146E+3  -8.40857E+2
   5.81977E+3  -9.97748E+2
   5.77460E+3  -1.23242E+3
   5.52449E+3  -1.31944E+3
   5.62615E+3  -1.34632E+3
   5.53729E+3  -1.18313E+3
   5.82992E+3  -1.27978E+3
   5.36781E+3  -1.72188E+3
   5.34024E+3  -1.95795E+3
   5.55174E+3  -1.72235E+3
   5.50486E+3  -1.80626E+3
   5.37623E+3  -1.99420E+3
