 
 $NMID
 ID=''
 FMTDAT='(2E13.5)'
 TRAMP=   1.00000E+0
 VOLUME=   1.00000E+0
 $END
   1.43195E+5   5.59849E+5
  -1.59862E+5   1.54420E+6
   1.69310E+4   1.53507E+6
  -7.50973E+4   1.44538E+6
  -1.50828E+5   1.48893E+6
  -1.61568E+5   1.43893E+6
  -2.47463E+5   1.38579E+6
  -2.97803E+5   1.42791E+6
  -2.83573E+5   1.41213E+6
  -3.24061E+5   1.37465E+6
  -3.57498E+5   1.37056E+6
  -3.70850E+5   1.33220E+6
  -4.17559E+5   1.30698E+6
  -4.38999E+5   1.31552E+6
  -4.40914E+5   1.28850E+6
  -4.66739E+5   1.25738E+6
  -4.93464E+5   1.25064E+6
  -5.22433E+5   1.21843E+6
  -5.67457E+5   1.18994E+6
  -5.92006E+5   1.17803E+6
  -6.13112E+5   1.14463E+6
  -6.46972E+5   1.11415E+6
  -6.68941E+5   1.09558E+6
  -6.90888E+5   1.06550E+6
  -7.18991E+5   1.03776E+6
  -7.26894E+5   1.02174E+6
  -7.36749E+5   9.96596E+5
  -7.55846E+5   9.73481E+5
  -7.66901E+5   9.51682E+5
  -7.77071E+5   9.27353E+5
  -7.98220E+5   9.04172E+5
  -8.11933E+5   8.77999E+5
  -8.27013E+5   8.45119E+5
  -8.45253E+5   8.17528E+5
  -8.59789E+5   7.90347E+5
  -8.75990E+5   7.59359E+5
  -8.94273E+5   7.31618E+5
  -9.06738E+5   7.01749E+5
  -9.16217E+5   6.69952E+5
  -9.27076E+5   6.44941E+5
  -9.33420E+5   6.20128E+5
  -9.39048E+5   5.93879E+5
  -9.43926E+5   5.70811E+5
  -9.48421E+5   5.47927E+5
  -9.53094E+5   5.23160E+5
  -9.59673E+5   5.00647E+5
  -9.65505E+5   4.74415E+5
  -9.70650E+5   4.44427E+5
  -9.73735E+5   4.15261E+5
  -9.77332E+5   3.88065E+5
  -9.82802E+5   3.59869E+5
  -9.86922E+5   3.31069E+5
  -9.89527E+5   3.03464E+5
  -9.92839E+5   2.76537E+5
  -9.93516E+5   2.49952E+5
  -9.92902E+5   2.23498E+5
  -9.92134E+5   1.98121E+5
  -9.90701E+5   1.74217E+5
  -9.88071E+5   1.51743E+5
  -9.86145E+5   1.29583E+5
  -9.84181E+5   1.06231E+5
  -9.81350E+5   8.30173E+4
  -9.78844E+5   5.84910E+4
  -9.74479E+5   3.35115E+4
  -9.69050E+5   9.85455E+3
  -9.62896E+5  -1.27430E+4
  -9.56368E+5  -3.51825E+4
  -9.49049E+5  -5.76360E+4
  -9.43666E+5  -7.94522E+4
  -9.37747E+5  -1.01331E+5
  -9.29851E+5  -1.22510E+5
  -9.20581E+5  -1.41103E+5
  -9.12806E+5  -1.59285E+5
  -9.04837E+5  -1.78932E+5
  -8.94791E+5  -1.98630E+5
  -8.84440E+5  -2.16805E+5
  -8.74601E+5  -2.34140E+5
  -8.64540E+5  -2.52860E+5
  -8.52439E+5  -2.71631E+5
  -8.40275E+5  -2.89661E+5
  -8.27972E+5  -3.07198E+5
  -8.15204E+5  -3.23499E+5
  -8.02020E+5  -3.39622E+5
  -7.88557E+5  -3.55670E+5
  -7.74787E+5  -3.70898E+5
  -7.60978E+5  -3.84119E+5
  -7.47435E+5  -3.96893E+5
  -7.33465E+5  -4.09310E+5
  -7.19266E+5  -4.21121E+5
  -7.05196E+5  -4.31874E+5
  -6.91033E+5  -4.42487E+5
  -6.77114E+5  -4.53510E+5
  -6.61724E+5  -4.64068E+5
  -6.45722E+5  -4.74212E+5
  -6.29275E+5  -4.83355E+5
  -6.13444E+5  -4.92708E+5
  -5.98596E+5  -5.01476E+5
  -5.83123E+5  -5.10526E+5
  -5.66481E+5  -5.18281E+5
  -5.50359E+5  -5.25306E+5
  -5.35247E+5  -5.32154E+5
  -5.19376E+5  -5.39263E+5
  -5.02494E+5  -5.45079E+5
  -4.86500E+5  -5.48901E+5
  -4.71897E+5  -5.52973E+5
  -4.57126E+5  -5.57365E+5
  -4.41745E+5  -5.61966E+5
  -4.25270E+5  -5.65526E+5
  -4.09158E+5  -5.68116E+5
  -3.94446E+5  -5.69933E+5
  -3.79520E+5  -5.72390E+5
  -3.64099E+5  -5.75311E+5
  -3.47793E+5  -5.78093E+5
  -3.31815E+5  -5.79786E+5
  -3.16564E+5  -5.81352E+5
  -3.01165E+5  -5.82706E+5
  -2.85685E+5  -5.83834E+5
  -2.69828E+5  -5.83959E+5
  -2.55601E+5  -5.82694E+5
  -2.41833E+5  -5.82179E+5
  -2.28273E+5  -5.81943E+5
  -2.14155E+5  -5.81355E+5
  -2.00337E+5  -5.80405E+5
  -1.86392E+5  -5.79350E+5
  -1.72273E+5  -5.77642E+5
  -1.58420E+5  -5.75078E+5
  -1.45208E+5  -5.72331E+5
  -1.32208E+5  -5.69792E+5
  -1.19032E+5  -5.67215E+5
  -1.06020E+5  -5.64405E+5
  -9.22743E+4  -5.61605E+5
  -7.88786E+4  -5.57957E+5
  -6.67241E+4  -5.53465E+5
  -5.46963E+4  -5.49546E+5
  -4.24149E+4  -5.45435E+5
  -2.99638E+4  -5.40526E+5
  -1.89523E+4  -5.35164E+5
  -8.02212E+3  -5.30702E+5
   3.56867E+3  -5.25746E+5
   1.51633E+4  -5.19811E+5
   2.60692E+4  -5.13482E+5
   3.58925E+4  -5.07280E+5
   4.56397E+4  -5.01215E+5
   5.53037E+4  -4.95315E+5
   6.50236E+4  -4.89072E+5
   7.43060E+4  -4.81773E+5
   8.33890E+4  -4.74359E+5
   9.18299E+4  -4.67142E+5
   9.99638E+4  -4.59884E+5
   1.07465E+5  -4.52569E+5
   1.14968E+5  -4.44645E+5
   1.22258E+5  -4.37342E+5
   1.28894E+5  -4.29839E+5
   1.35589E+5  -4.22511E+5
   1.42617E+5  -4.14871E+5
   1.48823E+5  -4.06424E+5
   1.54419E+5  -3.98719E+5
   1.60323E+5  -3.91016E+5
   1.65789E+5  -3.82765E+5
   1.70751E+5  -3.74757E+5
   1.75840E+5  -3.66732E+5
   1.80697E+5  -3.58437E+5
   1.85542E+5  -3.50192E+5
   1.89507E+5  -3.41386E+5
   1.93010E+5  -3.33355E+5
   1.96442E+5  -3.25687E+5
   2.00101E+5  -3.17586E+5
   2.03999E+5  -3.09633E+5
   2.07060E+5  -3.01333E+5
   2.09657E+5  -2.93405E+5
   2.12152E+5  -2.85603E+5
   2.14882E+5  -2.77719E+5
   2.17201E+5  -2.69776E+5
   2.19391E+5  -2.61794E+5
   2.21352E+5  -2.54081E+5
   2.23371E+5  -2.46508E+5
   2.25541E+5  -2.38645E+5
   2.27254E+5  -2.30797E+5
   2.28205E+5  -2.22490E+5
   2.29618E+5  -2.15132E+5
   2.31101E+5  -2.08009E+5
   2.32403E+5  -2.00509E+5
   2.33311E+5  -1.92912E+5
   2.33937E+5  -1.85604E+5
   2.34435E+5  -1.78252E+5
   2.34937E+5  -1.71185E+5
   2.35155E+5  -1.64294E+5
   2.35178E+5  -1.57387E+5
   2.35082E+5  -1.50687E+5
   2.35079E+5  -1.44479E+5
   2.35399E+5  -1.37872E+5
   2.35227E+5  -1.30897E+5
   2.34687E+5  -1.23910E+5
   2.34009E+5  -1.17592E+5
   2.33143E+5  -1.11226E+5
   2.32835E+5  -1.05053E+5
   2.31998E+5  -9.85245E+4
   2.30829E+5  -9.22629E+4
   2.30038E+5  -8.63387E+4
   2.28831E+5  -8.01399E+4
   2.27705E+5  -7.38547E+4
   2.25938E+5  -6.81646E+4
   2.24028E+5  -6.23592E+4
   2.22438E+5  -5.70641E+4
   2.20737E+5  -5.13710E+4
   2.19087E+5  -4.59027E+4
   2.16997E+5  -4.04645E+4
   2.14955E+5  -3.53158E+4
   2.12568E+5  -3.02341E+4
   2.10348E+5  -2.48874E+4
   2.07896E+5  -1.99395E+4
   2.05371E+5  -1.52063E+4
   2.02982E+5  -1.06943E+4
   2.00615E+5  -5.94706E+3
   1.98036E+5  -1.09974E+3
   1.95052E+5   3.33317E+3
   1.92021E+5   7.25341E+3
   1.89428E+5   1.15431E+4
   1.86309E+5   1.50458E+4
   1.83418E+5   1.90953E+4
   1.80609E+5   2.27508E+4
   1.77480E+5   2.62196E+4
   1.74554E+5   2.97133E+4
   1.71531E+5   3.30841E+4
   1.68212E+5   3.64726E+4
   1.65209E+5   3.96245E+4
   1.61899E+5   4.22194E+4
   1.58964E+5   4.52872E+4
   1.56012E+5   4.79498E+4
   1.52568E+5   5.07718E+4
   1.49305E+5   5.33682E+4
   1.46201E+5   5.58424E+4
   1.43175E+5   5.79378E+4
   1.40250E+5   6.03795E+4
   1.36726E+5   6.25177E+4
   1.33913E+5   6.40456E+4
   1.30786E+5   6.60672E+4
   1.27718E+5   6.79658E+4
   1.24443E+5   6.99242E+4
   1.21698E+5   7.12869E+4
   1.18952E+5   7.25796E+4
   1.16037E+5   7.43877E+4
   1.13142E+5   7.57164E+4
   1.09886E+5   7.71181E+4
   1.07017E+5   7.82879E+4
   1.04312E+5   7.95082E+4
   1.01569E+5   8.08009E+4
   9.88666E+4   8.16435E+4
   9.57927E+4   8.24934E+4
   9.31199E+4   8.32513E+4
   9.07067E+4   8.39789E+4
   8.80268E+4   8.49942E+4
   8.52646E+4   8.57753E+4
   8.25344E+4   8.61383E+4
   7.99252E+4   8.66404E+4
   7.76729E+4   8.71448E+4
   7.50145E+4   8.75916E+4
   7.26333E+4   8.82657E+4
   7.00071E+4   8.85314E+4
   6.78124E+4   8.90148E+4
   6.51565E+4   8.92610E+4
   6.23990E+4   8.95574E+4
   6.00939E+4   8.92350E+4
   5.78209E+4   8.91947E+4
   5.57297E+4   8.95514E+4
   5.32036E+4   8.95716E+4
   5.10974E+4   8.97082E+4
   4.87810E+4   8.95138E+4
   4.66003E+4   8.92158E+4
   4.43280E+4   8.90162E+4
   4.20996E+4   8.87203E+4
   4.02389E+4   8.85404E+4
   3.79298E+4   8.81014E+4
   3.61492E+4   8.78757E+4
   3.39042E+4   8.78277E+4
   3.20602E+4   8.71033E+4
   2.99300E+4   8.63968E+4
   2.78787E+4   8.58474E+4
   2.60441E+4   8.56087E+4
   2.41229E+4   8.47778E+4
   2.22739E+4   8.43953E+4
   2.06852E+4   8.36861E+4
   1.88701E+4   8.27281E+4
   1.71264E+4   8.22935E+4
   1.53030E+4   8.18510E+4
   1.36784E+4   8.07675E+4
   1.24881E+4   7.97079E+4
   1.06945E+4   7.91977E+4
   9.32005E+3   7.84697E+4
   7.75165E+3   7.77460E+4
   6.16536E+3   7.67980E+4
   4.81504E+3   7.58448E+4
   3.59090E+3   7.49908E+4
   2.08693E+3   7.41321E+4
   7.52110E+2   7.31449E+4
  -4.87413E+2   7.23746E+4
  -1.57076E+3   7.14951E+4
  -3.04737E+3   7.05031E+4
  -4.07771E+3   6.94899E+4
  -5.21654E+3   6.87246E+4
  -6.43079E+3   6.76843E+4
  -7.17686E+3   6.68080E+4
  -8.30183E+3   6.58236E+4
  -9.12123E+3   6.49105E+4
  -1.01144E+4   6.38138E+4
  -1.09527E+4   6.30521E+4
  -1.18115E+4   6.18356E+4
  -1.27000E+4   6.09434E+4
  -1.34799E+4   5.99689E+4
  -1.43179E+4   5.90984E+4
  -1.51130E+4   5.79636E+4
  -1.58506E+4   5.73202E+4
  -1.66469E+4   5.63223E+4
  -1.71873E+4   5.51934E+4
  -1.79429E+4   5.41830E+4
  -1.81836E+4   5.30319E+4
  -1.89681E+4   5.22036E+4
  -1.94029E+4   5.10402E+4
  -2.00620E+4   5.02542E+4
  -2.03909E+4   4.91363E+4
  -2.09253E+4   4.83887E+4
  -2.11530E+4   4.74459E+4
  -2.18005E+4   4.62224E+4
  -2.18900E+4   4.54316E+4
  -2.25268E+4   4.44480E+4
  -2.28341E+4   4.35923E+4
  -2.31641E+4   4.26283E+4
  -2.32612E+4   4.18381E+4
  -2.34436E+4   4.11159E+4
  -2.37858E+4   4.00009E+4
  -2.43238E+4   3.88985E+4
  -2.42045E+4   3.79676E+4
  -2.46066E+4   3.72603E+4
  -2.46898E+4   3.65789E+4
  -2.47936E+4   3.56187E+4
  -2.49242E+4   3.46234E+4
  -2.51889E+4   3.39254E+4
  -2.50386E+4   3.30872E+4
  -2.54790E+4   3.19900E+4
  -2.53461E+4   3.12102E+4
  -2.51864E+4   3.04327E+4
  -2.51253E+4   2.96140E+4
  -2.53006E+4   2.88592E+4
  -2.53044E+4   2.82041E+4
  -2.52401E+4   2.71228E+4
  -2.50771E+4   2.63973E+4
  -2.51079E+4   2.57492E+4
  -2.50138E+4   2.49466E+4
  -2.48500E+4   2.43658E+4
  -2.46711E+4   2.36991E+4
  -2.49013E+4   2.26466E+4
  -2.47127E+4   2.20004E+4
  -2.46697E+4   2.14408E+4
  -2.45152E+4   2.04223E+4
  -2.41651E+4   1.99816E+4
  -2.43629E+4   1.94821E+4
  -2.38379E+4   1.86245E+4
  -2.37462E+4   1.78561E+4
  -2.36376E+4   1.73969E+4
  -2.34134E+4   1.65227E+4
  -2.30246E+4   1.62176E+4
  -2.31366E+4   1.54122E+4
  -2.29225E+4   1.47814E+4
  -2.28354E+4   1.42383E+4
  -2.22384E+4   1.37286E+4
  -2.20786E+4   1.31079E+4
  -2.17696E+4   1.25883E+4
