 
 $NMID
 ID=''
 FMTDAT='(2E13.5)'
 TRAMP=   1.00000E+0
 VOLUME=   1.00000E+0
 $END
  -3.85453E+5   5.73451E+5
  -1.43375E+6   1.07492E+6
  -1.23686E+6   1.17653E+6
  -1.26062E+6   9.68514E+5
  -1.42199E+6   9.59233E+5
  -1.38629E+6   9.86509E+5
  -1.35050E+6   9.02575E+5
  -1.39055E+6   8.66916E+5
  -1.37692E+6   8.37028E+5
  -1.40413E+6   7.82624E+5
  -1.43150E+6   7.92117E+5
  -1.38673E+6   7.74433E+5
  -1.38005E+6   7.06427E+5
  -1.40473E+6   6.90865E+5
  -1.39255E+6   6.81176E+5
  -1.38923E+6   6.51067E+5
  -1.39533E+6   6.36682E+5
  -1.37993E+6   5.96849E+5
  -1.39083E+6   5.42821E+5
  -1.40511E+6   5.21413E+5
  -1.39279E+6   4.90445E+5
  -1.39074E+6   4.51186E+5
  -1.39026E+6   4.29668E+5
  -1.38027E+6   3.95965E+5
  -1.37974E+6   3.57677E+5
  -1.37407E+6   3.48111E+5
  -1.36071E+6   3.30966E+5
  -1.35571E+6   3.07335E+5
  -1.34581E+6   2.89590E+5
  -1.33239E+6   2.69822E+5
  -1.33168E+6   2.43089E+5
  -1.32350E+6   2.22980E+5
  -1.30995E+6   1.95409E+5
  -1.30308E+6   1.68301E+5
  -1.29382E+6   1.46069E+5
  -1.28257E+6   1.19231E+5
  -1.27764E+6   9.13673E+4
  -1.26643E+6   6.77151E+4
  -1.25111E+6   4.57906E+4
  -1.24122E+6   2.66719E+4
  -1.22872E+6   9.45000E+3
  -1.21393E+6  -8.42910E+3
  -1.20189E+6  -2.12581E+4
  -1.19010E+6  -3.39558E+4
  -1.17533E+6  -4.99063E+4
  -1.16396E+6  -6.46859E+4
  -1.15172E+6  -8.09016E+4
  -1.13742E+6  -1.02063E+5
  -1.12055E+6  -1.21518E+5
  -1.10481E+6  -1.38371E+5
  -1.09080E+6  -1.57344E+5
  -1.07651E+6  -1.76834E+5
  -1.06122E+6  -1.94321E+5
  -1.04588E+6  -2.11761E+5
  -1.03042E+6  -2.28448E+5
  -1.01418E+6  -2.44729E+5
  -9.98301E+5  -2.59285E+5
  -9.82622E+5  -2.71304E+5
  -9.66663E+5  -2.83252E+5
  -9.51415E+5  -2.96488E+5
  -9.36164E+5  -3.09092E+5
  -9.21021E+5  -3.21478E+5
  -9.05351E+5  -3.34969E+5
  -8.87600E+5  -3.48885E+5
  -8.69229E+5  -3.62047E+5
  -8.51786E+5  -3.74090E+5
  -8.34883E+5  -3.86296E+5
  -8.17258E+5  -3.97428E+5
  -8.00706E+5  -4.08629E+5
  -7.85039E+5  -4.20283E+5
  -7.67613E+5  -4.30956E+5
  -7.50791E+5  -4.39219E+5
  -7.35835E+5  -4.47485E+5
  -7.19896E+5  -4.57495E+5
  -7.02972E+5  -4.65892E+5
  -6.86057E+5  -4.73724E+5
  -6.70411E+5  -4.81709E+5
  -6.53391E+5  -4.90663E+5
  -6.35657E+5  -4.99043E+5
  -6.18201E+5  -5.06707E+5
  -6.00399E+5  -5.14618E+5
  -5.83600E+5  -5.21658E+5
  -5.66548E+5  -5.27814E+5
  -5.50372E+5  -5.33673E+5
  -5.33212E+5  -5.39365E+5
  -5.17167E+5  -5.43894E+5
  -5.01843E+5  -5.47728E+5
  -4.87212E+5  -5.51586E+5
  -4.72277E+5  -5.54955E+5
  -4.57314E+5  -5.57199E+5
  -4.42777E+5  -5.59313E+5
  -4.28282E+5  -5.62594E+5
  -4.12897E+5  -5.65769E+5
  -3.97310E+5  -5.67709E+5
  -3.82218E+5  -5.69121E+5
  -3.66977E+5  -5.71449E+5
  -3.51830E+5  -5.73481E+5
  -3.36976E+5  -5.75045E+5
  -3.22897E+5  -5.76008E+5
  -3.08771E+5  -5.76448E+5
  -2.95011E+5  -5.77364E+5
  -2.81450E+5  -5.77542E+5
  -2.68123E+5  -5.77264E+5
  -2.55206E+5  -5.76187E+5
  -2.42855E+5  -5.74921E+5
  -2.31232E+5  -5.74032E+5
  -2.19232E+5  -5.73556E+5
  -2.06195E+5  -5.72331E+5
  -1.94063E+5  -5.69811E+5
  -1.83225E+5  -5.67270E+5
  -1.71720E+5  -5.66174E+5
  -1.59223E+5  -5.64974E+5
  -1.47135E+5  -5.63092E+5
  -1.35345E+5  -5.61018E+5
  -1.23567E+5  -5.58495E+5
  -1.12168E+5  -5.56217E+5
  -1.00403E+5  -5.53341E+5
  -8.95888E+4  -5.49999E+5
  -7.92353E+4  -5.46672E+5
  -6.94719E+4  -5.42968E+5
  -5.98549E+4  -5.40067E+5
  -4.99324E+4  -5.37036E+5
  -3.98503E+4  -5.33719E+5
  -2.99213E+4  -5.30316E+5
  -2.01039E+4  -5.26277E+5
  -1.08810E+4  -5.22015E+5
  -1.88644E+3  -5.17261E+5
   7.29770E+3  -5.13137E+5
   1.63290E+4  -5.08896E+5
   2.52094E+4  -5.04927E+5
   3.45878E+4  -5.00512E+5
   4.35264E+4  -4.95153E+5
   5.25127E+4  -4.90015E+5
   6.08104E+4  -4.85105E+5
   6.91037E+4  -4.79787E+5
   7.71075E+4  -4.74162E+5
   8.46926E+4  -4.68814E+5
   9.22288E+4  -4.63568E+5
   1.00219E+5  -4.58315E+5
   1.08023E+5  -4.52273E+5
   1.15455E+5  -4.46035E+5
   1.21901E+5  -4.40068E+5
   1.28330E+5  -4.33984E+5
   1.34707E+5  -4.28332E+5
   1.41416E+5  -4.22230E+5
   1.47498E+5  -4.15876E+5
   1.53670E+5  -4.09273E+5
   1.59506E+5  -4.02634E+5
   1.64813E+5  -3.96056E+5
   1.69816E+5  -3.89265E+5
   1.74495E+5  -3.82966E+5
   1.79255E+5  -3.76471E+5
   1.83781E+5  -3.70149E+5
   1.88116E+5  -3.63823E+5
   1.92958E+5  -3.57029E+5
   1.96928E+5  -3.50338E+5
   2.00903E+5  -3.43705E+5
   2.05181E+5  -3.36990E+5
   2.08827E+5  -3.30358E+5
   2.11783E+5  -3.23372E+5
   2.15203E+5  -3.17088E+5
   2.18714E+5  -3.10442E+5
   2.21963E+5  -3.03811E+5
   2.24593E+5  -2.96737E+5
   2.27294E+5  -2.90173E+5
   2.29684E+5  -2.83631E+5
   2.32413E+5  -2.77421E+5
   2.35092E+5  -2.71211E+5
   2.37233E+5  -2.64925E+5
   2.39501E+5  -2.58326E+5
   2.41343E+5  -2.52320E+5
   2.43188E+5  -2.46383E+5
   2.44889E+5  -2.40186E+5
   2.46813E+5  -2.34077E+5
   2.48053E+5  -2.27762E+5
   2.49832E+5  -2.21814E+5
   2.51449E+5  -2.15932E+5
   2.52823E+5  -2.09671E+5
   2.54012E+5  -2.03390E+5
   2.54781E+5  -1.97601E+5
   2.56270E+5  -1.91938E+5
   2.57413E+5  -1.86296E+5
   2.58450E+5  -1.79686E+5
   2.59270E+5  -1.74097E+5
   2.59711E+5  -1.68663E+5
   2.60291E+5  -1.63021E+5
   2.60305E+5  -1.57266E+5
   2.60517E+5  -1.52255E+5
   2.60796E+5  -1.46925E+5
   2.61303E+5  -1.41933E+5
   2.61886E+5  -1.36532E+5
   2.62000E+5  -1.31125E+5
   2.61815E+5  -1.25463E+5
   2.61658E+5  -1.20259E+5
   2.61143E+5  -1.15041E+5
   2.61030E+5  -1.09555E+5
   2.60652E+5  -1.04753E+5
   2.60436E+5  -9.95500E+4
   2.59955E+5  -9.45575E+4
   2.59230E+5  -8.92771E+4
   2.58577E+5  -8.38792E+4
   2.57702E+5  -7.87996E+4
   2.56560E+5  -7.38561E+4
   2.55531E+5  -6.96091E+4
   2.54801E+5  -6.47509E+4
   2.53784E+5  -5.96984E+4
   2.52313E+5  -5.49957E+4
   2.51092E+5  -5.02496E+4
   2.49509E+5  -4.56955E+4
   2.48063E+5  -4.12499E+4
   2.46532E+5  -3.64267E+4
   2.44622E+5  -3.21378E+4
   2.43107E+5  -2.80967E+4
   2.41699E+5  -2.38055E+4
   2.39758E+5  -1.91567E+4
   2.37357E+5  -1.50272E+4
   2.35429E+5  -1.08211E+4
   2.33240E+5  -7.08947E+3
   2.30915E+5  -3.52111E+3
   2.28711E+5   4.42532E+2
   2.26503E+5   4.09828E+3
   2.24450E+5   7.65785E+3
   2.22003E+5   1.11090E+4
   2.19804E+5   1.45982E+4
   2.17349E+5   1.84539E+4
   2.14303E+5   2.16228E+4
   2.11928E+5   2.45210E+4
   2.09406E+5   2.76113E+4
   2.06952E+5   3.08052E+4
   2.04009E+5   3.38662E+4
   2.01292E+5   3.67778E+4
   1.98500E+5   3.93262E+4
   1.95911E+5   4.23146E+4
   1.93320E+5   4.46516E+4
   1.90341E+5   4.72982E+4
   1.87671E+5   4.95422E+4
   1.84901E+5   5.18253E+4
   1.82138E+5   5.43170E+4
   1.79408E+5   5.62404E+4
   1.76564E+5   5.85870E+4
   1.73746E+5   6.03120E+4
   1.71052E+5   6.23712E+4
   1.68183E+5   6.45262E+4
   1.65408E+5   6.65473E+4
   1.62282E+5   6.81421E+4
   1.59523E+5   6.99895E+4
   1.56839E+5   7.18024E+4
   1.53839E+5   7.33724E+4
   1.51211E+5   7.48597E+4
   1.48175E+5   7.64026E+4
   1.46160E+5   7.77490E+4
   1.43057E+5   7.94382E+4
   1.40191E+5   8.08696E+4
   1.37316E+5   8.20738E+4
   1.34622E+5   8.31896E+4
   1.32052E+5   8.45278E+4
   1.29354E+5   8.55874E+4
   1.26670E+5   8.72672E+4
   1.23683E+5   8.84617E+4
   1.20758E+5   8.97334E+4
   1.18077E+5   9.07755E+4
   1.15029E+5   9.19773E+4
   1.12197E+5   9.27112E+4
   1.09439E+5   9.34988E+4
   1.06986E+5   9.41949E+4
   1.04469E+5   9.54395E+4
   1.01728E+5   9.63672E+4
   9.89079E+4   9.72416E+4
   9.61118E+4   9.78054E+4
   9.34104E+4   9.86932E+4
   9.08753E+4   9.90790E+4
   8.83972E+4   9.97087E+4
   8.55709E+4   1.00109E+5
   8.30747E+4   1.00791E+5
   8.04123E+4   1.01490E+5
   7.78104E+4   1.01731E+5
   7.50125E+4   1.02246E+5
   7.24130E+4   1.02367E+5
   7.00714E+4   1.02578E+5
   6.75425E+4   1.02762E+5
   6.48977E+4   1.02917E+5
   6.26460E+4   1.03178E+5
   6.01135E+4   1.03193E+5
   5.76124E+4   1.03127E+5
   5.53439E+4   1.03638E+5
   5.30463E+4   1.03274E+5
   5.04710E+4   1.03242E+5
   4.80801E+4   1.03104E+5
   4.62570E+4   1.02811E+5
   4.39580E+4   1.02966E+5
   4.15081E+4   1.02583E+5
   3.92992E+4   1.02728E+5
   3.71866E+4   1.02648E+5
   3.49231E+4   1.01784E+5
   3.30501E+4   1.01780E+5
   3.07560E+4   1.01481E+5
   2.89472E+4   1.00958E+5
   2.70616E+4   1.00859E+5
   2.48760E+4   1.00272E+5
   2.29482E+4   9.97920E+4
   2.11226E+4   9.91292E+4
   1.95216E+4   9.86082E+4
   1.74745E+4   9.83090E+4
   1.53678E+4   9.78506E+4
   1.34546E+4   9.71495E+4
   1.17183E+4   9.64944E+4
   9.98978E+3   9.58161E+4
   8.37029E+3   9.50992E+4
   6.71267E+3   9.47008E+4
   5.07893E+3   9.39079E+4
   3.38816E+3   9.33384E+4
   1.79581E+3   9.28558E+4
  -1.87413E+2   9.20982E+4
  -1.53131E+3   9.14751E+4
  -3.05477E+3   9.04143E+4
  -4.54004E+3   8.95394E+4
  -6.07526E+3   8.90998E+4
  -7.59807E+3   8.83248E+4
  -8.88629E+3   8.71491E+4
  -1.02190E+4   8.64663E+4
  -1.16127E+4   8.58974E+4
  -1.31222E+4   8.49251E+4
  -1.45090E+4   8.40095E+4
  -1.58216E+4   8.30007E+4
  -1.67526E+4   8.21299E+4
  -1.81778E+4   8.12972E+4
  -1.94249E+4   8.05729E+4
  -2.06265E+4   7.96033E+4
  -2.17876E+4   7.86408E+4
  -2.29752E+4   7.74995E+4
  -2.41239E+4   7.67234E+4
  -2.48521E+4   7.55713E+4
  -2.61943E+4   7.48301E+4
  -2.70451E+4   7.37177E+4
  -2.83300E+4   7.29719E+4
  -2.92225E+4   7.19384E+4
  -3.00251E+4   7.07637E+4
  -3.11420E+4   6.96194E+4
  -3.20954E+4   6.83383E+4
  -3.29638E+4   6.75723E+4
  -3.35894E+4   6.65953E+4
  -3.44355E+4   6.54728E+4
  -3.53390E+4   6.47433E+4
  -3.62603E+4   6.37293E+4
  -3.65741E+4   6.24330E+4
  -3.76841E+4   6.12470E+4
  -3.82276E+4   6.01947E+4
  -3.90051E+4   5.91767E+4
  -3.95555E+4   5.81137E+4
  -3.98323E+4   5.71796E+4
  -4.09025E+4   5.61389E+4
  -4.13197E+4   5.50265E+4
  -4.19771E+4   5.40663E+4
  -4.24306E+4   5.28582E+4
  -4.25665E+4   5.17859E+4
  -4.33995E+4   5.07450E+4
  -4.38140E+4   4.98331E+4
  -4.42083E+4   4.85901E+4
  -4.46741E+4   4.77557E+4
  -4.50713E+4   4.67572E+4
  -4.54322E+4   4.54560E+4
  -4.57644E+4   4.44718E+4
  -4.60054E+4   4.33126E+4
  -4.62176E+4   4.26672E+4
  -4.69051E+4   4.15758E+4
  -4.69686E+4   4.04931E+4
  -4.71012E+4   3.94308E+4
