 
 $NMID
 ID=''
 FMTDAT='(2E13.5)'
 TRAMP=   1.00000E+0
 VOLUME=   1.00000E+0
 $END
   1.34809E+4  -2.02457E+4
  -8.38994E+3  -2.86033E+4
  -2.38076E+4   1.18626E+4
   1.51053E+4   3.21233E+4
   2.18930E+4  -1.42885E+4
  -1.54678E+4  -2.38282E+4
  -1.00630E+4   1.63595E+4
   1.71417E+4   1.15145E+4
   3.22742E+3  -1.40095E+4
  -1.33135E+4  -1.77303E+2
  -1.77961E+3   1.09464E+4
   3.89281E+3  -2.73743E+3
  -2.11496E+3  -5.20542E+3
  -4.43300E+3   1.86822E+3
  -1.92551E+3   3.47489E+2
   2.97605E+3  -1.68807E+3
   3.22832E+3   6.82144E+1
  -1.85232E+3   9.81474E+2
  -1.39501E+3   9.41321E+2
   1.88064E+3  -4.06081E+2
   2.59475E+2  -1.27666E+3
   1.70613E+2   3.21408E+2
   1.23276E+3   1.21481E+3
  -1.11825E+3  -8.53159E+1
  -8.53399E+2  -1.18880E+3
   2.48024E+3   1.42098E+2
   9.75504E+2   2.85687E+3
  -2.42068E+3   7.60293E+2
  -8.84062E+2  -2.11908E+3
   1.11250E+3   5.89917E+1
  -2.74105E+2   2.09203E+3
  -1.10505E+3   4.21009E+2
  -8.70448E+2  -1.02003E+3
  -1.32673E+2  -1.41676E+3
   1.13295E+3  -2.43794E+3
   2.14857E+3   1.10245E+2
   1.17526E+3   3.42173E+3
  -7.93488E+2   1.29750E+3
  -8.10999E+2  -1.50955E+3
   3.07660E+1   1.81776E+2
  -7.37220E+2   6.39018E+2
  -5.12423E+2  -1.69721E+3
   1.55062E+3  -1.03443E+3
   1.95789E+3   9.19659E+2
   7.02760E+2   9.50144E+2
   4.89967E+2   7.41739E+2
  -9.18960E+2   1.67335E+3
  -1.94652E+3   3.23576E+2
  -8.55544E+2  -1.99335E+3
   8.72303E+2  -1.78911E+3
   8.46757E+2  -1.68885E+2
   7.05686E+2  -1.45574E+2
   7.23380E+2  -2.65224E+2
   4.27297E+2   4.37667E+2
   1.95617E+2   6.60500E+2
  -3.97701E+2   3.08237E+2
  -9.00688E+2  -7.88715E+2
  -2.12878E+2  -1.36718E+3
   1.48496E+3  -6.75071E+2
   1.72128E+3   6.06918E+2
   5.10961E+2   8.71904E+2
   6.80110E+1   7.36549E+2
  -2.45374E+2   1.33556E+3
  -1.58522E+3   9.18291E+2
  -2.03458E+3  -9.45791E+2
  -5.16213E+2  -1.89839E+3
   1.10151E+3  -1.73622E+3
   1.68374E+3  -8.79303E+2
   8.56638E+2   3.43044E+2
  -4.36852E+1   9.11474E+2
  -3.26186E+2   9.69369E+1
   9.33216E+2  -6.72645E+2
   6.44503E+2   2.16044E+2
  -2.25313E+2   1.09731E+3
  -7.43128E+2   1.76451E+2
  -2.70064E+2  -5.58405E+2
   1.85964E+2  -4.60306E+1
  -3.82944E+2   6.90830E+2
  -3.41844E+2   2.17429E+2
  -3.98177E+2  -4.18977E+2
  -5.23972E+2  -7.37343E+2
  -2.21025E+2  -7.46556E+2
   2.47362E+2   5.86612E+1
  -2.29661E+2  -3.25544E+1
  -7.16546E+1  -4.59034E+2
   7.38342E+2  -4.52247E+2
   8.88540E+2   2.19166E+2
   1.92105E+1   7.11382E+2
  -2.44894E+2   2.60791E+2
   2.50870E+2   2.37151E+2
   5.95360E+2   8.18323E+2
  -3.13090E+2   7.53113E+2
  -1.51245E+3   5.38209E+2
  -1.47304E+3  -3.75047E+2
  -2.05305E+2  -1.10330E+3
   8.16118E+2  -8.09392E+2
   6.56711E+2  -1.46356E+1
  -1.10017E+2   1.39697E+2
   1.25442E+2  -1.90352E+2
   9.14618E+2   1.40304E+1
   4.20243E+2   8.53607E+2
  -8.24489E+2   1.11361E+3
  -1.13343E+3  -4.73482E+1
  -2.76335E+2  -9.60261E+2
   7.22187E+2  -5.70571E+2
   7.29329E+2   6.60562E+2
  -4.34478E+2   7.95579E+2
  -1.10869E+3  -2.59978E+2
   3.26446E+1  -1.19770E+3
   1.19364E+3  -8.08601E+2
   1.39915E+3   6.30752E+2
   2.40307E+2   1.13497E+3
  -2.88400E+2   6.54206E+2
   1.09626E+2   1.33669E+2
  -1.35095E+2   2.29470E+2
  -7.76090E+2   2.73645E+2
  -9.65756E+2  -6.61757E+1
  -6.65768E+2  -1.12021E+3
   4.26502E+2  -1.32358E+3
   1.11269E+3  -6.47919E+2
   9.45259E+2   3.87475E+2
   3.05707E+2   5.22742E+2
  -6.64312E+1   6.65158E+2
  -5.00285E+2   4.75217E+2
  -6.97615E+2   3.02201E+2
  -4.35275E+2  -2.41352E+2
  -1.86725E+2  -4.21354E+2
   3.97612E+2  -3.00250E+2
   1.92020E+2  -5.67185E+1
  -3.09221E+2   5.77616E+2
  -6.92000E+2   3.54692E+2
  -6.21591E+2  -6.59193E+2
   9.92074E+1  -6.40453E+2
   3.24562E+2  -1.04097E+2
  -5.08445E+2   1.66978E+2
  -1.64165E+2  -5.73992E+2
   4.21576E+2  -4.11198E+1
   4.84733E+2   2.81717E+2
  -4.19068E+1   5.56746E+2
  -6.78915E+2   1.24978E+2
  -4.64810E+2  -3.30994E+2
   2.24703E+2  -7.08236E+2
   9.31213E+2   1.06165E+2
   1.20313E+2   9.08714E+2
  -8.88170E+2   7.63510E+2
  -8.35389E+2   9.49810E+1
  -5.31596E+2  -3.46168E+2
  -2.83894E+2  -2.15362E+2
  -1.97083E+2  -1.24594E+2
  -1.54301E+2  -4.95023E+2
   3.00873E+2  -6.50886E+2
   7.13702E+2  -2.40058E+2
   5.13147E+2   4.38025E+2
   8.99352E+1   5.34892E+2
  -6.24733E+2   2.61592E+2
  -1.54763E+2   2.03309E+1
   2.17399E+2   1.65616E+2
  -1.00276E+2   5.26229E+2
  -2.89361E+1   1.15255E+2
   3.99761E+1  -5.12746E+1
  -2.89495E+2   1.77525E+2
  -4.92413E+2   8.97130E+1
  -2.73752E+2  -2.67129E+2
  -6.07110E+1  -5.68054E+2
   2.54681E+2  -6.67173E+2
   5.55697E+2  -3.43849E+2
   5.28563E+2   4.77221E+2
  -7.19893E+1   1.88175E+2
  -3.58303E+2  -1.07068E+2
   2.25269E+2  -1.90008E+2
   3.60642E+2   3.07474E+2
   9.61100E+1   3.03112E+2
  -2.57750E+2   1.30791E+1
  -8.32347E+1  -7.75180E+1
   4.16435E+2  -4.47724E+1
   1.18432E+2   9.09046E+1
  -4.55187E+2   4.15249E+2
  -6.32414E+2  -1.80324E+2
  -3.85684E+1  -4.37186E+2
   7.49823E+2  -3.04063E+1
   1.74510E+2   4.61529E+2
  -2.21589E+2   5.91200E+2
  -5.67143E+2  -7.60972E+1
  -1.99495E+2  -4.42813E+2
   3.16376E+1  -3.12578E+2
  -1.44157E+2  -2.93359E+2
  -4.89264E+1  -4.49155E+2
   1.27512E+2  -3.47040E+2
   4.46218E+2  -8.69295E+1
   4.94320E+2   6.15632E+2
  -3.13600E+2   8.89769E+2
  -9.76717E+2   8.01625E+1
  -6.71881E+2  -6.02603E+2
   4.17339E+1  -4.47287E+2
   2.46677E+2  -1.72714E+2
   1.33191E+2   2.06574E+1
  -1.67529E+2   4.95283E+1
   3.48158E+1   2.61306E+2
  -1.12176E+2   3.94625E+2
  -5.09823E+2   1.03759E+2
  -4.46906E+2  -1.56729E+2
   7.07366E+1  -6.74854E+2
   4.76480E+2  -4.08192E+2
   2.25581E+2   1.06414E+2
   7.57334E+1   1.77414E+2
  -2.73132E+2  -4.98168E+1
   5.58869E+1  -3.02726E+2
   8.06721E+1  -1.15997E+2
   1.27688E+2  -4.61064E+1
  -9.33174E+1   3.16769E+2
  -3.94259E+2  -2.97528E+2
   6.74004E+0  -8.91144E+1
   3.75601E+2   4.00054E+2
  -3.47684E+2   5.41066E+2
  -8.85097E+2   2.13027E+2
  -5.03692E+2  -3.88053E+2
   1.98114E+2  -3.95697E+2
   4.61083E+2  -4.14351E+1
   1.93146E+2   2.52518E+2
   2.72911E+2   1.18873E+1
  -4.49680E+1  -8.56628E+1
   4.99717E+2   5.55367E+1
  -3.28037E+1   7.75610E+2
  -4.90964E+2   1.66483E+2
  -4.57848E+2  -3.18539E+2
   5.14062E+1  -5.76862E+2
   3.54501E+2   8.35962E+1
  -1.01776E+2   4.72747E+2
  -3.32614E+2   4.68945E+2
  -3.73165E+2  -2.04637E+2
  -2.90300E+1  -2.99505E+2
  -5.12749E+1   2.17723E+1
   2.44179E+1  -1.32082E+2
   1.56878E+1  -1.18873E+2
   3.90424E+1  -3.08989E+2
   4.98886E+1  -2.04801E+2
   1.60261E+2   4.05093E+2
  -8.22636E+1   3.54932E+2
  -8.12847E+1  -8.86062E+1
   6.58757E+1  -1.59109E+2
   4.22165E+2   5.55128E+1
  -7.33439E+0   2.93606E+2
  -2.53767E+2   3.07216E+1
  -2.51605E+2  -3.71827E+2
   1.73064E+2  -4.41086E+2
   1.30167E+2   9.90461E+1
  -2.05921E+2   3.39935E+2
  -2.86351E+2  -1.99181E+2
   4.33722E+1  -4.86168E+2
   5.31501E+2   1.22768E+1
   1.25525E+2   6.58179E+1
  -1.82842E+2   1.94904E+2
  -2.98030E+2  -1.47190E+2
   8.77872E+1  -5.79554E+2
   4.85693E+2  -1.19675E+2
   1.14012E+2   3.33483E+2
   1.12433E+2   2.87143E+2
  -6.78922E+1   1.69053E+2
  -1.96731E+2   2.87232E+1
  -7.47028E+1   1.76265E+2
  -3.75282E+2   1.84678E+2
  -4.23977E+2  -1.64701E+2
   7.14292E+1  -5.19173E+2
   4.63441E+2  -2.73697E+2
   3.96252E+2   2.02345E+2
   1.46910E+2   3.29957E+2
  -3.69156E+2   3.07158E+2
  -2.24774E+2  -3.47206E+2
   5.17455E+1  -2.22730E+2
   1.62534E+2  -7.01774E+1
  -1.18625E+2   5.15853E+1
  -4.58489E+1  -7.07332E+1
   1.63231E+2  -2.18979E+2
   1.64045E+2   3.60102E+2
  -1.28176E+2   3.25835E+2
  -3.63230E+2   1.36990E+1
   4.13010E+1  -4.25766E+2
   1.53336E+2  -2.08078E+2
   1.95461E+2   3.58563E+1
  -6.87162E+1   1.01222E+2
  -1.02887E+1   5.78258E+1
  -5.40369E+1  -3.67566E+1
  -1.11678E+1  -3.69022E+1
   1.76470E+1   3.07168E+2
  -3.36672E+2   9.35918E+1
  -2.44225E+2  -2.68148E+2
   4.14308E+2  -4.05185E+2
   4.55875E+2   8.55497E+1
   2.19994E+2   4.41665E+2
  -5.48926E+1   4.17122E+2
  -1.91635E+2  -2.05220E+0
  -5.89356E+1  -2.62768E+2
  -2.72723E+2  -1.68851E+2
   9.22080E+1   1.70928E+1
  -5.06173E+1  -1.10494E+2
  -1.63963E+1  -1.71653E+2
   1.50731E+2  -1.50103E+2
  -8.15211E+1   2.62464E+2
  -2.93011E+2   4.48362E+1
  -2.86684E+2  -8.35592E+1
   9.44174E+1  -1.31021E+2
   3.19061E+2   2.17141E+2
   6.38346E+1   3.88693E+2
  -2.91324E+2  -9.51864E+1
  -9.91398E+1   5.16452E+0
  -6.34023E-1  -1.90122E+2
   2.41382E+2  -1.90486E+2
   4.62748E+0   2.10258E+2
  -8.70655E+1  -1.20937E+2
   4.95623E+1  -1.45952E+2
   2.30049E+2   1.82549E+2
   1.30678E+2   2.98989E+2
  -6.80968E+1   2.42477E+2
  -3.62689E+2   1.43888E+2
  -1.09623E+2  -2.00433E+2
   2.41439E+2   1.80038E+0
   2.47035E+2   6.12333E+1
   4.72926E+1   1.89432E+2
  -2.11789E+1  -5.45546E+1
   1.90657E+2  -1.36448E+2
   1.32773E+2   1.94057E+2
  -1.00126E+2   1.91571E+2
  -3.37198E+2   2.78202E+1
   2.20393E+2  -2.13085E+2
   3.00059E+2  -1.10188E+2
   1.36752E+1   4.05994E+2
  -3.38136E+2   4.12368E+2
  -1.27594E+2  -2.53194E+1
   5.46015E+1  -3.22929E+2
   1.14658E+2  -1.00279E+2
   3.78798E+0  -1.26861E+1
   2.49885E+2   6.04822E-1
  -8.55959E+1  -8.72590E+1
  -1.50485E+2   1.20856E+2
   1.74577E+2   2.99239E+2
  -1.99040E+2   4.01622E+2
  -2.07492E+2   4.91528E+1
  -1.08938E+2  -3.09066E+2
  -5.55204E+1  -3.06237E+2
   3.60241E+2   1.66581E+2
   3.01118E+0   9.77767E+1
  -2.15525E+2   1.71647E+2
   1.51057E+1  -4.51472E+1
   3.02325E+1  -4.58465E+1
   1.51245E+2   1.22239E+2
  -5.48852E+1  -4.59528E+1
   9.87306E-1  -6.75650E+1
   1.71699E+2  -1.42635E+2
   3.09707E+2   2.75114E+2
  -1.75972E+1   8.65470E+1
  -3.00290E+2   5.89584E+1
  -2.21607E+2  -7.13619E+1
   1.19569E+2  -1.90667E+1
   1.16589E+2  -1.01017E+2
  -5.67051E+1  -6.62421E+1
  -1.76434E+2  -8.33839E+1
   1.79507E+2  -7.76391E+0
   1.39005E+2   2.02008E+2
  -1.34359E+2   1.61181E+2
  -3.32377E+2   1.64777E+2
  -2.74544E+2  -2.02319E+2
  -1.33325E+2  -3.36510E+2
   2.95537E+2  -2.10295E+2
   4.26079E+1   7.01814E+1
  -5.53033E+0   1.16315E+2
  -1.08201E+2   9.24418E+0
  -5.73724E+1  -1.37506E+2
