 
 $NMID
 ID=''
 FMTDAT='(2E13.5)'
 TRAMP=   1.00000E+0
 VOLUME=   1.00000E+0
 $END
   2.83891E+4   1.33101E+4
   6.44333E+3  -2.26393E+4
  -1.17174E+4  -5.36337E+3
  -9.07445E+3   1.05988E+4
   1.04601E+3   4.97414E+3
   8.87553E+3  -1.61123E+3
   6.04367E+3  -3.30326E+3
  -3.91013E+3  -3.20700E+3
  -5.38623E+3   8.90805E+2
  -4.38729E+2   5.76699E+3
   1.06176E+3   4.32163E+3
   2.27049E+3  -1.70788E+3
   2.15129E+3  -5.40660E+3
  -2.54045E+3  -3.09305E+3
  -3.45555E+3   1.12626E+3
   1.74077E+3   1.66339E+3
   3.67464E+3   5.00956E+2
   1.58488E+3  -7.89725E+2
  -1.62508E+2  -1.14851E+3
  -1.85727E+3  -3.56699E+2
  -9.90720E+2   8.44669E+2
   1.98571E+3   1.03788E+3
   1.65414E+3   1.27366E+3
  -9.17778E+2  -4.70225E+2
  -6.52817E+2  -2.75230E+3
   5.55091E+2   1.86405E+2
  -4.40697E+2   3.65221E+3
  -1.33194E+3   7.50121E+2
   4.99965E+2  -2.48031E+3
   1.53299E+3  -9.72441E+2
  -5.66817E+2   9.15377E+2
  -2.14212E+3   1.13726E+2
  -9.66382E+2  -1.20151E+3
   9.38042E+2  -1.23496E+3
   1.83475E+3  -5.51569E+2
   1.40201E+3   3.61149E+2
  -6.96413E+2   5.45108E+2
  -1.04464E+3   1.71427E+2
  -3.04853E+2  -1.41697E+2
   9.63830E+1   3.88009E+2
  -4.54058E+2  -7.36558E+2
   1.71356E+2  -9.76926E+2
   8.70310E+2   2.59862E+2
   2.86033E+2   8.89204E+2
   4.23500E+1   4.07222E+2
   1.32703E+2   4.75357E+2
  -1.19082E+3   6.97267E+2
  -1.74338E+3  -4.33665E+2
  -2.75243E+2  -1.45951E+3
   7.79332E+2  -3.74293E+2
   7.04506E+2   2.46088E+2
   4.43265E+1  -3.26673E+2
   2.23110E+2   3.44452E+0
  -2.07464E+2   6.87125E+2
  -3.41132E+2   6.79048E+2
  -4.70725E+2   4.97512E+1
  -2.50307E+2  -5.23470E+2
  -1.90130E+2  -7.59977E+2
   2.38389E+2  -8.51914E+1
   6.17084E+2   5.65125E+2
   3.29783E+2   9.04573E+2
  -2.59448E+2   5.58466E+2
  -8.24718E+2   2.94958E+2
  -1.21507E+3  -3.10731E+2
  -1.00829E+3  -5.98893E+2
  -2.65190E+2  -3.66389E+2
   7.16423E+2  -6.83608E+2
   1.14433E+3  -4.63389E+2
   6.56487E+2   4.56477E+2
  -9.11145E+2   4.98457E+2
  -5.79691E+2  -1.05571E+2
   4.35056E+2  -1.31465E+2
   8.92784E+2   1.12965E+3
  -1.96863E+2   9.28503E+2
  -6.45512E+2  -6.20753E+2
   1.16018E+2  -4.14758E+2
  -2.95195E+2   5.06660E+2
  -6.60260E+2   6.39914E+2
  -1.81711E+2   2.12653E+2
   2.22197E+2  -1.57879E+2
  -6.07225E+1  -3.65401E+2
  -1.71308E+2  -6.50278E+2
   8.45256E+1  -2.86488E+2
  -2.11588E+2   1.10352E+1
   1.61391E+2   1.36402E+2
   3.64277E+2   5.95918E+0
   4.15775E+2  -2.67191E+1
   4.69273E+1   2.56232E+2
  -4.96083E+1  -5.22474E+1
   3.27788E+0   3.01151E+2
   2.23805E+2   3.79420E+2
  -1.00877E+2   3.62121E+2
  -4.56623E+2   1.50132E+2
  -5.81017E+2  -5.38057E+2
   1.18442E+2  -8.31689E+2
   4.28701E+2  -1.79825E+2
   3.09389E+2   8.36797E+1
  -7.88973E+1  -2.64272E+2
   2.21190E+2  -3.11985E+2
   4.37873E+2   4.75596E+2
  -1.90454E+2   3.36920E+2
  -5.23479E+2   6.19721E+1
  -3.62324E+2  -1.93245E+2
  -2.53835E+0  -2.68747E+2
   2.97424E+2  -2.34367E+2
   1.66940E+2   1.16617E+2
  -4.59807E+2   3.07301E+2
  -5.86006E+2  -1.62222E+2
  -1.74674E+2  -9.90135E+2
   1.00304E+3  -3.69004E+2
   4.33101E+2   4.59654E+2
  -1.03005E+2   4.37246E+2
  -3.99753E+2   1.67850E+2
  -9.31188E+1   3.89537E+1
  -1.82567E+2   4.07817E+2
  -1.66986E+2   2.15603E+2
  -4.27983E+2  -2.89622E+2
  -4.03255E+2  -7.02485E+2
   3.32236E+2  -3.71839E+2
   4.71197E+2  -2.57362E+2
   3.03795E+2   3.55447E+2
   1.05287E+2   3.76500E+2
   1.92504E+2   3.78091E+2
  -4.14973E+0   1.75573E+2
  -2.86243E+2  -1.72553E+2
  -3.95363E+1  -1.59895E+1
   2.21924E+2  -2.91750E+2
   2.10080E+2   2.27033E+1
   3.30027E+2   3.85428E+2
   5.67551E+1   3.28720E+2
  -3.05489E+2   3.50058E+2
  -6.55708E+1  -2.62635E+2
   1.26165E+2  -3.52591E+2
   2.02519E+1   3.02724E+1
   1.19964E+2   7.17288E+1
   2.00712E+1  -2.61804E+2
   3.07734E+2  -1.98042E+2
   3.35149E+2   3.70205E+2
  -9.95703E+1   3.75160E+2
  -4.75565E+2   7.12242E+1
  -2.56775E+2  -1.88629E+2
   3.19727E+2  -1.26845E+2
   5.16148E+2   1.34822E+2
   2.91827E+2   4.48958E+2
  -4.69413E+2   3.28929E+2
  -2.72034E+2   1.78132E+2
  -1.01787E+2   1.04719E+2
  -1.14689E+2  -1.16277E+2
   8.42353E+1  -2.94415E+2
   2.53390E-1  -1.29722E+2
   9.83464E+1   9.86772E+1
   4.49650E+2  -2.94045E+2
   3.30360E+2   2.16567E+2
  -2.47089E+1   3.96635E+2
  -2.49136E+2   1.60253E+2
   1.03300E+2   9.08412E+1
   2.49561E+2   1.11299E+2
  -2.00371E+2   1.50566E+2
   4.11880E+1  -3.89808E+1
  -2.31773E+2   4.70694E+1
  -8.44734E+1   7.49284E+1
  -1.22627E+2   2.86160E+2
  -2.82900E+2  -1.68457E+2
   8.90009E+1  -2.52264E+2
   3.55667E+2  -1.76248E+2
  -2.12431E+1   2.18414E+1
  -2.04429E+2   1.87978E+2
  -2.22202E+2   2.29059E+2
   6.13705E+1   1.29108E+2
   1.23298E+2  -5.70419E+1
  -1.94658E+1   1.26977E+2
  -2.13740E+2   2.28205E+1
  -2.24998E+2   7.38550E+1
  -2.99989E+2   2.48353E+2
  -1.05395E+2   6.73685E+1
  -3.68729E+1   2.77862E+2
  -3.50278E+2   2.31339E+2
  -1.04880E+2  -1.75404E+2
   1.32380E+2  -1.85984E+2
   7.29680E+1   1.20088E+2
  -7.55978E+1   5.14735E+2
   1.62382E+0  -1.53945E+1
  -2.83212E+2   1.32580E+2
  -6.26534E+1   1.98458E+2
  -8.23189E+1   3.56840E+1
  -1.19379E+2  -3.27355E+2
  -1.16656E+1  -1.87055E+2
   8.01012E+1  -8.59665E+1
   1.85219E+2   1.70761E+2
   3.80183E+2   3.49100E+2
  -1.24131E+2   4.29862E+2
  -2.55906E+2   2.34742E+2
  -4.01988E+1  -2.53705E+2
  -1.14290E+2   5.43118E+1
   2.33441E+2   3.69498E+1
   1.53302E+2   1.36213E+2
   2.17750E+2   1.22344E+2
  -1.12115E+2  -7.62601E+1
  -4.99272E+1   2.13900E+2
  -1.21887E+2  -5.03704E+1
  -6.58095E+1  -1.13420E+2
   1.52467E+1  -1.64797E+2
   1.26017E+2   6.02188E+1
   5.36582E+1   1.00705E+2
   2.62353E+1   1.41530E+2
   1.41876E+2  -2.54997E+1
  -2.83644E+2   1.49284E+1
   1.03402E+2  -1.62413E+2
   7.10314E+1   7.64341E+1
  -6.83238E+1  -1.17694E+2
  -1.11605E+2  -1.32811E+2
   3.25787E+1   1.96141E+2
   2.67411E+2   2.27289E+2
  -1.77865E+2   4.62839E+2
  -1.78491E+2  -1.13249E+2
  -3.15562E+2  -1.43297E+2
   5.85246E+1  -1.23722E+2
  -8.06508E+1  -4.90972E+0
   2.71410E+2  -6.92324E+1
   1.11317E+1   7.21531E+1
   3.56454E+1   1.41888E+2
  -4.01487E+1   4.29939E+1
  -1.60871E+2  -4.23068E+1
  -1.43608E+2   6.39490E+1
  -1.99501E+2  -5.15270E+1
   2.37833E+2  -5.25276E+1
   1.74503E+2   2.84561E+1
  -8.89623E+1   1.17323E+2
  -9.62401E+1  -8.97839E+1
   2.57569E+0  -1.92082E+2
  -2.97695E+2  -2.87520E+2
  -1.14236E+2   2.65548E+1
  -1.95636E+2   1.06059E+2
  -9.05053E+1  -8.40159E+1
   2.67035E+1  -1.12732E+2
   1.46739E+1   3.85837E+2
   4.51038E+1   2.51022E+1
   7.11736E+1  -7.61425E+1
   4.40142E+1   1.55513E+1
   4.38585E+1  -5.31151E+1
   1.53412E+2   2.18631E+2
   1.84271E+1   1.22642E+2
   3.21627E+1   9.37427E+1
  -1.17652E+2  -3.06029E+1
  -1.71700E+0  -3.62826E+1
   1.19491E+0  -1.33476E+2
   1.18185E+2  -5.75431E+1
  -5.78644E+1  -2.35781E+2
   2.44327E+2  -1.71436E+2
   1.36988E+2   1.22529E+2
  -1.28240E+2   9.24283E+1
  -8.21570E+1   6.30890E+1
  -1.38525E+2  -8.84176E+1
  -8.03886E+1  -1.43316E+2
   4.10185E+2  -1.46235E+2
   9.77491E+1   5.94110E+1
   4.29634E+1   1.00598E+2
  -1.09988E+2  -1.61944E+2
   1.39171E+2  -6.37140E+1
  -5.55882E+1  -2.57916E+1
  -2.58016E+2  -4.98365E+1
  -6.22800E+1  -1.07141E+2
   2.70227E+2  -3.31070E+2
   3.37665E+2  -9.51967E+1
   1.12843E+2  -5.62317E-1
  -6.66047E+0   9.09712E+1
  -1.04827E+2   1.92901E+2
  -1.58290E+2   8.43931E+1
   3.01750E+1   6.95375E+1
   1.06220E+1  -1.13931E+2
   1.88483E+2  -2.01153E+2
   3.47843E+1  -2.50163E+2
  -7.29305E+1  -1.09935E+2
  -1.68571E+2  -2.92587E+2
  -7.02452E+1  -9.62099E+0
  -1.38940E+2  -1.14798E+2
   1.13681E+0  -2.21637E+2
   9.37519E+1  -1.97915E+2
   2.16714E+1   6.36709E+1
   2.51554E+2   3.19182E+1
   1.69391E+2   4.04358E+1
   5.80197E+1  -1.53596E+2
   1.15784E+2  -2.16384E+2
   3.57671E+1  -3.80833E+1
  -1.47112E+2  -3.37334E+1
  -4.59779E+1  -3.06448E+2
  -1.05130E+2  -1.07653E+2
   1.83499E+2  -1.19597E+1
  -7.35003E+1  -8.39601E+1
   2.28232E+1   1.85787E+2
  -1.65998E+1  -2.49999E+2
  -7.39665E+1  -2.84127E+1
  -1.33907E+2  -1.68866E+2
   3.40018E+1  -5.23143E+1
   2.20602E+1  -1.04027E+2
  -2.40169E+1  -1.63661E+2
   8.87037E+1  -1.53885E+2
   2.13061E+2   6.60567E+1
   4.12524E+1   1.96832E+2
  -7.37474E+1  -2.09018E+2
   2.15229E+2  -1.11215E+2
   4.71459E+1   9.77087E+1
  -2.64053E+1   3.55848E+0
  -3.10569E+1  -9.27819E+1
  -1.31165E+1  -1.68112E+2
   2.28339E+2  -2.13662E+2
   7.26376E+1  -8.44185E+1
  -2.89111E+0   7.06324E+0
  -6.37857E+0   1.50446E+2
   1.37071E+1  -7.02527E+1
  -3.17115E+1  -7.21085E+0
  -9.34387E+1   1.02332E+2
  -5.01635E+0   1.05168E+2
   9.20061E+1   4.63728E+1
   3.88203E+1  -1.68229E+2
   2.41580E+2  -5.30268E+1
  -4.07867E+1  -4.71500E+1
  -4.84825E+0   1.14290E+2
  -1.62037E+2   4.97874E+1
   1.23438E+2  -3.14346E+1
   5.08627E+1  -4.16439E+1
   2.90183E+2  -1.05770E+2
  -3.16197E+1   6.91299E+1
   1.88059E+2   5.19258E+1
   3.52217E+1  -6.67503E+1
   4.33778E+1   1.73320E+1
  -1.03054E+2   1.07334E+2
   4.53021E+0   2.04845E+1
  -2.44889E+2  -2.15719E+2
   3.32606E+1  -2.71154E+2
   1.70125E+2  -8.92157E+1
   8.51828E+1   7.39674E+1
   2.41413E+1  -4.25336E+1
   1.47401E+2  -1.92170E+2
   2.11857E+1   7.45487E+1
   1.24635E+2   5.40625E+1
  -1.05736E+2  -6.39763E+0
   6.34292E+1  -1.24179E+2
   1.20647E+2  -3.04098E+2
   1.26726E+2  -3.08474E+2
  -1.21975E+2  -4.58855E+1
  -5.41543E+1   1.56768E+2
  -6.20199E+0   3.00115E+1
  -3.64071E+0  -3.51105E+1
   8.82313E+1  -2.30882E+1
   6.01465E+1  -1.42341E+2
   1.37791E+2  -8.70386E+0
   5.19727E+1   3.73293E+1
   3.59001E+2  -6.50230E+1
  -8.30183E+1   6.97308E+1
  -2.57309E+1  -1.17712E+2
   1.07317E+2  -2.42886E+2
   3.36885E+2  -1.31169E+1
   1.56569E+2   1.29380E+2
  -1.82371E+2   8.55047E+1
   2.88182E+1  -1.69990E+2
   4.87801E+1  -1.59971E+2
   3.03708E+2  -9.37429E+0
  -1.73959E+2   7.10707E+1
   9.24750E+1   1.20051E+2
  -9.96673E+1  -1.91296E+1
   1.43557E+2  -2.97415E+2
   1.46478E+2  -9.87030E+1
   4.87976E+1   2.10594E+2
  -1.16720E+2  -7.88536E+1
   6.91471E+1  -6.79906E+1
  -1.37013E+1  -1.20759E+2
