 
 $NMID
 ID=''
 FMTDAT='(2E13.5)'
 TRAMP=   1.00000E+0
 VOLUME=   1.00000E+0
 $END
  -3.72722E+3   2.05005E+4
   1.53989E+4   8.56026E+3
   7.74008E+3  -1.86020E+4
  -9.96995E+3  -5.51226E+2
   2.82679E+3   1.33363E+4
   4.82137E+3  -9.29070E+3
  -7.76122E+3  -6.13661E+3
   2.90674E+3   8.93068E+3
   7.81458E+3  -3.29073E+3
  -5.28662E+3  -2.64366E+3
  -1.62822E+3   1.04746E+4
   3.84434E+3  -1.55848E+2
  -3.05004E+3  -5.14911E+3
  -1.06503E+3   6.04879E+3
   1.08761E+3   7.50284E+2
  -4.27493E+3  -6.30967E+3
   6.69799E+2   8.04186E+2
   4.14051E+3   2.01451E+3
  -2.60343E+3  -7.24792E+2
  -1.41948E+3   4.61267E+2
   1.56114E+3  -1.28255E+3
  -1.62024E+3  -1.51555E+3
   2.98764E+2   1.23601E+3
   1.51115E+3   5.39351E+2
  -2.28693E+3  -7.48726E+2
  -5.04030E+1  -7.02379E+2
   3.14675E+3  -1.01082E+2
  -9.85897E+2   2.14242E+3
  -1.86010E+3   1.46395E+3
   1.10505E+3  -1.35907E+3
   6.78944E+2   5.02036E+2
  -6.82621E+2   2.02623E+3
  -6.63044E+2   1.17717E+2
  -1.57865E+3   1.01288E+2
  -1.51224E+3  -5.13023E+2
   6.20412E+2  -3.23050E+3
   1.82730E+3  -7.26969E+2
   1.26405E+3   2.08467E+3
  -2.14063E+2   1.87633E+2
  -1.93590E+2  -4.12190E+2
   2.50710E+2   1.77248E+3
  -8.36547E+2   3.84724E+2
  -1.31116E+3  -2.09047E+3
   4.86518E+2  -1.57778E+3
   1.59872E+3  -5.37847E+2
   1.10241E+3   1.74299E+2
   8.99997E+2   1.18219E+3
  -2.76357E+2   1.73793E+3
  -2.03699E+3   2.80844E+2
  -1.65770E+3  -6.79644E+2
  -3.34971E+2  -9.46350E+2
   7.10180E+1  -7.03338E+2
   4.22163E+1  -5.43143E+2
   4.90275E+2  -3.73821E+2
   6.52769E+2  -3.99541E+1
   1.72765E+2   6.51625E+2
  -5.89090E+2   9.83343E+2
  -8.12907E+2  -9.26324E+1
  -7.08416E+2  -1.66368E+3
   5.64691E+2  -1.10391E+3
   9.17964E+2  -2.21081E+2
   5.17882E+2   7.72010E+1
   9.94540E+2   6.88940E+2
   3.77515E+2   1.53275E+3
  -1.19842E+3   1.24077E+3
  -1.92571E+3   3.93361E+2
  -1.16582E+3  -9.95680E+2
  -3.81020E+2  -1.22769E+3
   5.38227E+2  -8.20051E+2
   8.65878E+2   2.91915E+2
  -6.50916E+1   4.20927E+2
  -7.81612E+2  -4.81775E+2
   1.87082E+2  -8.75653E+2
   9.47255E+2  -2.12208E+1
   2.10081E+2   5.27615E+2
  -3.30099E+2   3.01022E+1
   1.65930E+2  -5.67769E+2
   6.25164E+2   1.68483E+2
   6.64703E+2   6.72456E+2
  -1.33470E+2   6.99976E+2
  -6.87403E+2   4.51354E+2
  -4.47014E+2  -1.45497E+2
  -5.73873E+1  -3.32936E+2
  -9.99063E+1  -4.55330E+1
  -2.22554E+2  -5.67521E+1
  -4.93472E+2  -5.77535E+2
   4.33047E+2  -9.88590E+2
   8.48704E+2   9.21326E+1
   3.36071E+2   2.41869E+2
  -1.49752E+2   6.76815E+1
   3.69080E+2  -7.38107E+2
   9.29117E+2   3.40531E+1
   4.32212E+2   6.35780E+2
  -3.67475E+2   1.23426E+3
  -6.74725E+2   3.96257E+2
  -7.27997E+2  -6.75947E+2
  -3.93186E+1  -6.78592E+2
   5.07313E+2  -2.04948E+1
   4.09095E+1  -2.27479E+2
  -1.46375E+2  -5.76549E+2
   6.04383E+2  -6.42505E+2
   7.23893E+2   4.38332E+2
   6.55639E+1   6.12661E+2
  -8.36552E+2   1.31386E+2
  -3.29704E+2  -5.88295E+2
   7.96061E+2  -5.27057E+2
   8.74975E+2   3.83644E+2
  -1.07266E+2   9.31973E+2
  -1.07094E+3   2.10114E+2
  -7.18376E+2  -7.25394E+2
   4.75722E+2  -1.14674E+3
   9.64444E+2  -1.68187E+2
   5.63167E+2   1.65437E+2
   1.05408E+2   2.69483E+2
   5.78766E+2   1.62472E+2
   5.21970E+2   4.08119E+2
   5.88981E+1   8.32194E+2
  -7.84088E+2   5.53766E+2
  -1.02336E+3  -2.03372E+2
  -4.28050E+2  -8.96398E+2
   4.45421E+2  -9.03713E+2
   4.92674E+2  -8.33558E+1
   4.80898E+2  -6.72888E+1
   2.84109E+2  -7.05698E+1
   3.22393E+2   4.67388E+2
  -9.80785E+0   4.00659E+2
  -2.96906E+2  -1.86135E+2
   1.82708E+1  -4.51300E+2
   2.42161E+2  -4.78036E+2
   6.07175E+2  -1.88416E+2
   3.13713E+2   3.64353E+2
  -2.06673E+2   6.53142E+2
  -4.15784E+2   4.69527E+1
  -2.24005E+2  -5.73069E+2
   1.80667E+2  -6.33503E+1
   1.79728E+2  -1.09621E+2
  -1.16219E+2  -1.89978E+2
   4.29745E+2  -4.76109E+2
   5.97087E+2   1.57726E+2
   3.61058E+2   4.50327E+2
  -1.92718E+2   7.08194E+2
  -4.19188E+2   1.14835E+2
  -3.21312E+2  -8.75597E+2
   5.08047E+2  -6.89518E+2
   6.49211E+2   2.10229E+2
   1.71190E+2   5.57812E+2
   4.45322E+1   3.96091E+2
   4.43932E+0   3.88370E+2
  -1.65261E+2   1.49201E+2
  -2.09575E+2   1.38327E+2
  -3.30446E+2   5.99927E+1
  -4.34722E+2  -4.63393E+2
   1.50528E+2  -5.53707E+2
   3.39952E+2   5.81933E+1
   2.57232E+2   1.03648E+2
  -1.95633E+2   1.82417E+2
   1.45541E+2  -9.43637E+1
   2.15024E+2   9.77459E+1
   3.27266E+2   2.42420E+2
   3.93096E+1   3.71164E+2
  -1.18415E+1   2.83014E+2
   2.04576E+1   4.40154E+1
  -1.18884E+2   4.00592E+2
  -2.58579E+2   2.51280E+2
  -4.11775E+2  -2.37217E+2
  -2.60945E+2  -3.80184E+2
   3.26252E+2  -1.79074E+2
   2.01125E+2   1.67927E+2
   2.65707E+1   1.84092E+2
  -1.43999E+2  -2.93669E+1
  -5.43581E+1  -3.53094E+2
   3.14009E+2  -2.09304E+2
  -3.81851E+1   2.51498E+2
   1.01923E+2   1.51545E+2
  -3.14738E+2  -8.00851E+1
   2.70101E+2  -1.78240E+2
   4.18017E+2   3.02441E+2
  -7.02617E+0   4.11489E+2
  -3.55232E+2   1.74988E+1
  -1.21253E+2  -4.99029E+2
   3.31941E+2  -1.42072E+2
   5.08812E+2   6.29587E+1
   2.00697E+2   3.87369E+2
  -4.96630E+1   5.33992E+2
  -3.93706E+2   3.72626E+2
  -9.21280E+1   2.26427E+2
   2.11019E+1  -2.07312E+2
  -1.73331E+2  -2.79649E+2
  -1.21674E+2  -3.21418E+2
   5.04198E+2  -2.73579E+2
   6.86555E+2  -1.11779E+2
   1.13320E+2   5.70029E+2
  -2.77749E+2   6.38970E+2
  -2.30570E+2   1.00658E+2
  -1.54482E+2  -9.78439E+1
   2.07234E+1  -7.42675E+1
   1.99680E+1  -7.86997E+1
  -1.88168E+2  -1.12646E+2
   2.96555E+2   6.04671E+1
   1.42098E+2   1.30111E+2
  -7.42064E+1   4.28272E+2
  -4.10189E+2   1.90991E+2
  -3.91391E+2   6.11535E+1
   1.10253E+2   1.01932E+1
  -7.49189E+0  -1.60873E+2
   1.16404E+2   1.32358E+2
   4.70734E+1   1.08932E+2
  -1.47351E+2   2.68465E+1
  -7.45346E+1   5.12297E+1
   7.71424E+1   3.93423E+1
  -1.51793E+1   1.66304E+2
  -4.00688E+1   2.78581E+1
   2.32933E+2  -5.10636E+2
   1.88626E+2   6.24961E+1
   2.09611E+2   4.45193E+2
  -2.50166E+2   3.50129E+2
  -2.15143E+2   3.08941E+1
   2.59584E+1  -2.08640E+2
   2.81781E+1   9.59283E+1
  -2.61433E+1  -2.75403E+0
  -1.72748E+2   1.58964E+2
  -5.49635E+1  -9.97727E+1
   1.73438E+2  -2.53155E+2
   1.27000E+2   7.86247E+1
  -1.36773E+2   2.18700E+2
  -3.12470E+2  -4.41235E+1
   1.24118E+1  -1.78381E+2
   1.88931E+2  -3.08537E+2
   2.69985E+2   2.98952E+2
   1.41183E+2   2.24958E+2
  -1.82125E+2   1.37499E+2
  -5.37627E+1  -2.74193E+2
   1.55554E+2  -8.90285E+1
   9.28936E+0  -5.15797E+1
  -1.69958E+2   3.44956E+2
   4.33132E+0   7.52083E+1
   2.34585E+2  -6.75321E+1
   1.91350E+2   3.08543E+2
  -7.12429E+1   1.01989E+2
  -2.88959E+2   1.76540E+2
  -1.72274E+2  -1.95705E+2
   3.88378E+2  -2.05421E+2
   2.20114E+2   1.66828E+2
  -2.28035E+2   3.58243E+2
   1.09135E+2  -7.46906E+0
  -1.12188E+2  -5.19864E+1
   4.81904E+1  -2.71004E+2
  -9.82482E+0   1.66779E+2
  -5.62681E+1   6.63509E+1
   6.10941E+1  -2.69089E+2
  -4.39550E+1  -1.00949E+2
   2.74707E+2   3.19418E+2
  -1.23413E+2   4.12490E+1
  -3.54725E+2   2.32353E+2
  -2.34796E+2  -1.50975E+2
   1.60694E+2  -3.93297E+2
   1.66609E+2  -1.86802E+2
   6.28692E+1   1.40348E+2
  -1.72376E+2   8.66346E+1
   8.00580E+1  -1.73065E+2
   5.66306E+1   1.18476E+2
  -7.42930E+1   3.09141E+2
  -1.66399E+2   3.17216E+1
  -2.29450E+2  -3.77185E+2
   1.41888E+2  -2.12782E+2
   2.89865E+2  -1.08929E+2
   2.09959E+2   7.08598E+1
  -8.70003E+1   1.82670E+2
  -9.27423E+1   3.75723E+0
  -2.82082E+2   1.47946E+2
   1.80515E+1   8.08962E+0
   2.69811E+0   3.46634E+1
   1.13645E+2  -2.04495E+1
   4.98082E+1  -3.05490E+2
   3.77860E+2   1.17222E+2
   6.49810E+1   2.84831E+2
  -1.39608E+2   1.50310E+2
  -3.71064E+2   9.89605E+1
   9.06274E+1  -4.51283E+2
   5.25281E+1  -4.88372E+1
  -1.92040E+2   2.09080E+2
  -2.07655E+1   2.87732E+2
   1.52587E+2  -9.42881E+1
   3.70549E+2  -1.14091E+2
   5.70816E+1   4.33275E+1
  -2.20614E+2   2.63579E+2
  -2.24653E+2  -1.60709E+2
  -1.20672E+2  -2.13673E+2
  -6.63034E+1  -2.37892E+2
   3.20896E+2   1.28429E+2
  -7.47270E+1   6.97294E+1
   5.76312E+0   1.73569E+2
  -2.15178E+2   1.39430E+2
   7.46911E+1   1.81656E+2
  -2.23656E+2  -1.84170E+2
  -1.46723E+2   8.08212E+1
  -3.49152E+2   8.01153E+1
  -7.09492E-1  -7.92660E+1
  -2.73879E+1   8.21309E+1
   1.34283E+2   8.19214E+1
  -2.33584E+2   8.02854E+0
  -7.15387E+1  -3.42192E+2
  -2.79695E+0  -5.69917E+1
   2.16370E+2  -3.62145E+1
  -2.04104E+2   1.53105E+2
  -1.48730E+2   8.99446E+1
  -1.32423E+2   1.94762E+2
   5.01231E+1  -3.29399E+2
   7.13066E+1   9.02285E+1
   1.10922E+2  -2.06701E+0
  -3.85591E+1   1.36456E+2
   2.11314E+0  -1.04602E+2
  -7.88677E+1  -8.93253E+1
  -2.24519E+2   1.56496E+2
  -1.34026E+2   1.71675E+2
  -1.70851E+2   6.07239E+1
   1.18556E+2   1.33548E+1
   1.17394E+1   2.81439E+1
  -1.29432E+1   6.42361E+1
  -1.50023E+2   6.41756E+1
  -1.75033E+2  -1.19529E+2
  -1.39150E+2  -8.84192E+1
  -7.19344E+1   1.57883E+2
  -1.40468E+1   6.95796E+1
  -1.01064E+2  -2.35741E+2
   3.55052E+1  -3.78129E+1
   2.52039E+2   4.01651E+1
   1.54109E+2   1.43893E+2
  -1.35389E+2   2.67352E+2
  -1.85300E+1   9.17762E+1
  -2.42631E+2   3.33554E+0
  -1.20226E+2   4.38765E+1
  -1.77786E+2   1.03879E+1
  -1.00303E+2  -7.53491E+1
  -4.44458E+1  -5.52928E+1
   1.48503E+2  -1.30896E+2
   4.68380E+1   3.61527E+1
  -7.81760E+1   2.19639E+2
  -1.66882E+2  -3.65771E+1
  -2.77417E+1  -1.02509E+2
   1.08955E+2  -2.42283E+2
   1.52093E+2   9.45449E+1
  -7.39735E+1   1.74910E+2
   2.16104E+1   2.51140E+1
   4.04686E+1   1.19882E+2
  -9.04216E+1  -1.20667E+2
  -2.09009E+2  -1.09615E+2
  -2.12874E+2  -3.19248E+1
   9.30014E-1  -1.33792E+0
   1.65542E+2   4.86609E+0
   1.16265E+2   2.75583E+1
  -1.08501E+2  -3.09852E+1
   1.20176E+2  -3.35791E+1
  -1.54999E+2   2.78087E+1
  -4.35265E+2   1.36242E+2
   6.56500E+1  -1.80214E+2
  -8.55974E+1   1.30723E+2
   1.24680E+2  -1.35978E+2
  -1.74371E+1   8.88367E+1
   1.15901E+2  -5.76445E+0
  -6.74003E+1  -1.14528E+1
  -2.73014E+2  -9.44292E+1
  -1.41790E+2  -2.46241E+2
   1.38115E+2  -1.99645E+2
  -6.13842E+1  -2.45030E+1
   2.09777E+2   1.61550E+2
   4.33576E+1  -8.62335E+1
