 LCModel (Version 6.3-1N) Copyright: S.W. Provencher.          Ref.: Magn. Reson. Med. 30:672-679 (1993).                
 Slice_N1@22_17  28-Feb-2025 11:43:41
 27 lines in following concentration table = NCONC+1
    Conc.  %SD /Cr+PCr  Metabolite                                         
 4.90E-04   5% 6.5E-04 Mac                                                 
    4.841 118%   6.404 Cr                                                  
    1.206 474%   1.596 PCr                                                 
    5.469  33%   7.235 Ins                                                 
    0.000 999%   0.000 NAA                                                 
   14.438  16%  19.101 Tau                                                 
    0.000 999%   0.000 PCho                                                
    1.631  31%   2.158 GPC                                                 
    9.579  22%  12.673 Glu                                                 
    1.604  91%   2.123 Gln                                                 
    0.000 999%   0.000 Ala                                                 
    0.000 999%   0.000 Asc                                                 
    1.260  73%   1.667 Asp                                                 
    0.767  71%   1.014 GABA                                                
    0.647  87%   0.856 Glc                                                 
    1.326  57%   1.754 GSH                                                 
   55.632   3%  73.600 Lac                                                 
    7.243  19%   9.582 NAAG                                                
    0.000 999%   0.000 PE                                                  
    1.631  31%   2.158 GPC+PCho                                            
    7.243  19%   9.582 NAA+NAAG                                            
   11.184  22%  14.796 Glu+Gln                                             
    6.047  23%   8.000 Cr+PCr                                              
    7.243  19%   9.582 NAA+NAAG                                            
    6.047  23%   8.000 Cr+PCr                                              
   11.184  22%  14.796 Glu+Gln                                             
   6 lines in following misc. output table
  FWHM = 0.089 ppm    S/N =   5                                            
  Data shift =-0.041 ppm                                                   
  Ph: -95 deg       0.0 deg/ppm                                            
  alphaB,S = 7.9E-02,   9.7E+01                                            
   19 spline knots.   Ns = 9(1)                                            
  (11) 6 infls.   ( 7) 1 extrs.                                            
  480 points on ppm-axis = NY
      4.100000     4.091866     4.083733     4.075600     4.067466     4.059333     4.051199     4.043066     4.034933     4.026799
      4.018666     4.010532     4.002399     3.994265     3.986132     3.977998     3.969864     3.961731     3.953597     3.945463
      3.937330     3.929196     3.921062     3.912929     3.904795     3.896662     3.888528     3.880394     3.872261     3.864127
      3.855993     3.847860     3.839726     3.831592     3.823459     3.815325     3.807191     3.799058     3.790924     3.782790
      3.774657     3.766523     3.758389     3.750256     3.742122     3.733989     3.725855     3.717721     3.709588     3.701454
      3.693320     3.685187     3.677053     3.668919     3.660786     3.652652     3.644518     3.636385     3.628251     3.620117
      3.611984     3.603850     3.595716     3.587583     3.579449     3.571316     3.563182     3.555048     3.546915     3.538781
      3.530647     3.522514     3.514380     3.506246     3.498113     3.489979     3.481845     3.473712     3.465578     3.457444
      3.449311     3.441177     3.433043     3.424910     3.416776     3.408643     3.400509     3.392375     3.384242     3.376108
      3.367974     3.359841     3.351707     3.343573     3.335440     3.327306     3.319172     3.311039     3.302905     3.294771
      3.286638     3.278504     3.270370     3.262237     3.254103     3.245970     3.237836     3.229702     3.221569     3.213435
      3.205301     3.197168     3.189034     3.180900     3.172767     3.164633     3.156499     3.148366     3.140232     3.132098
      3.123965     3.115831     3.107697     3.099564     3.091430     3.083297     3.075163     3.067029     3.058896     3.050762
      3.042628     3.034495     3.026361     3.018227     3.010094     3.001960     2.993826     2.985693     2.977559     2.969425
      2.961292     2.953158     2.945024     2.936891     2.928757     2.920624     2.912490     2.904356     2.896223     2.888089
      2.879955     2.871822     2.863688     2.855554     2.847421     2.839287     2.831153     2.823020     2.814886     2.806752
      2.798619     2.790485     2.782351     2.774218     2.766084     2.757951     2.749817     2.741683     2.733550     2.725416
      2.717282     2.709149     2.701015     2.692881     2.684748     2.676614     2.668480     2.660347     2.652213     2.644079
      2.635946     2.627812     2.619678     2.611545     2.603411     2.595278     2.587144     2.579010     2.570877     2.562743
      2.554609     2.546476     2.538342     2.530208     2.522075     2.513941     2.505807     2.497674     2.489540     2.481406
      2.473273     2.465139     2.457006     2.448872     2.440738     2.432605     2.424471     2.416337     2.408204     2.400070
      2.391936     2.383803     2.375669     2.367535     2.359402     2.351268     2.343134     2.335001     2.326867     2.318733
      2.310600     2.302466     2.294333     2.286199     2.278065     2.269932     2.261798     2.253664     2.245531     2.237397
      2.229263     2.221130     2.212996     2.204862     2.196729     2.188595     2.180461     2.172328     2.164194     2.156060
      2.147927     2.139793     2.131660     2.123526     2.115392     2.107259     2.099125     2.090991     2.082858     2.074724
      2.066590     2.058457     2.050323     2.042189     2.034056     2.025922     2.017788     2.009655     2.001521     1.993387
      1.985254     1.977120     1.968987     1.960853     1.952719     1.944586     1.936452     1.928318     1.920185     1.912051
      1.903917     1.895784     1.887650     1.879516     1.871383     1.863249     1.855115     1.846982     1.838848     1.830714
      1.822581     1.814447     1.806314     1.798180     1.790046     1.781913     1.773779     1.765645     1.757512     1.749378
      1.741244     1.733111     1.724977     1.716843     1.708710     1.700576     1.692442     1.684309     1.676175     1.668041
      1.659908     1.651774     1.643641     1.635507     1.627373     1.619240     1.611106     1.602972     1.594839     1.586705
      1.578571     1.570438     1.562304     1.554170     1.546037     1.537903     1.529769     1.521636     1.513502     1.505368
      1.497235     1.489101     1.480968     1.472834     1.464700     1.456567     1.448433     1.440299     1.432166     1.424032
      1.415898     1.407765     1.399631     1.391497     1.383364     1.375230     1.367096     1.358963     1.350829     1.342695
      1.334562     1.326428     1.318295     1.310161     1.302027     1.293894     1.285760     1.277626     1.269493     1.261359
      1.253225     1.245092     1.236958     1.228824     1.220691     1.212557     1.204423     1.196290     1.188156     1.180022
      1.171889     1.163755     1.155622     1.147488     1.139354     1.131221     1.123087     1.114953     1.106820     1.098686
      1.090552     1.082419     1.074285     1.066151     1.058018     1.049884     1.041750     1.033617     1.025483     1.017349
      1.009216     1.001082     0.992949     0.984815     0.976681     0.968548     0.960414     0.952280     0.944147     0.936013
      0.927879     0.919746     0.911612     0.903478     0.895345     0.887211     0.879077     0.870944     0.862810     0.854676
      0.846543     0.838409     0.830276     0.822142     0.814008     0.805875     0.797741     0.789607     0.781474     0.773340
      0.765206     0.757073     0.748939     0.740805     0.732672     0.724538     0.716404     0.708271     0.700137     0.692003
      0.683870     0.675736     0.667603     0.659469     0.651335     0.643202     0.635068     0.626934     0.618801     0.610667
      0.602533     0.594400     0.586266     0.578132     0.569999     0.561865     0.553731     0.545598     0.537464     0.529330
      0.521197     0.513063     0.504930     0.496796     0.488662     0.480529     0.472395     0.464261     0.456128     0.447994
      0.439861     0.431727     0.423593     0.415460     0.407326     0.399192     0.391059     0.382925     0.374792     0.366658
      0.358524     0.350391     0.342257     0.334124     0.325990     0.317856     0.309723     0.301589     0.293455     0.285322
      0.277188     0.269055     0.260921     0.252787     0.244654     0.236520     0.228386     0.220253     0.212119     0.203986
 NY phased data points follow
  -2.03528E+01 -4.96639E+01 -3.29283E+01 -2.48545E+01 -2.82240E+01 -1.78414E+01 -3.25140E+01 -2.73077E+01 -3.16922E+01 -4.35160E+01
  -3.40969E+01 -3.44904E+01 -4.67681E+01 -4.46299E+01 -4.87961E+01 -5.46058E+01 -5.25441E+01 -4.98510E+01 -5.32773E+01 -5.64243E+01
  -5.39997E+01 -6.38909E+01 -6.40792E+01 -7.07458E+01 -6.75080E+01 -6.54126E+01 -5.42180E+01 -5.13592E+01 -5.17343E+01 -2.03218E+01
  -3.94462E+01 -3.34045E+01 -8.71100E+00 -8.40380E+00 -1.74717E+01 -3.35018E+01 -3.22137E+01 -3.49370E+01 -3.87530E+01 -3.32249E+01
  -1.47713E+01 -5.02084E+01 -6.22148E+01 -6.02201E+01 -6.74066E+01 -3.67397E+01 -3.55227E+01 -2.77967E+01 -2.39972E+01 -1.00049E+01
   4.80796E+00  1.00597E+01 -1.19584E+00 -3.41772E-01  2.02155E+01 -2.20993E+00 -7.91310E+00 -1.21566E+01 -1.29732E+01 -2.33207E+01
  -3.27539E+01 -2.60704E+01 -1.02925E+01 -4.92683E+00 -1.58389E+01 -6.68420E+00 -3.18108E+01 -1.68983E+01 -3.80860E+00 -3.32985E+01
  -3.25073E+01 -2.52751E+01 -2.75576E+01 -2.78879E+01 -1.37677E+01 -1.60831E+01 -1.36627E+01 -8.54302E+00  3.69800E+00  1.03248E+00
   5.35414E+00  7.76437E+00 -4.95461E+00  3.65638E-01 -2.73810E+01 -1.70742E+01 -2.89595E+01 -4.93750E+01 -2.47909E+01 -2.36475E+01
  -1.13641E+01 -6.03313E+00  6.27352E+00  1.26265E+01  1.56313E+01  2.56853E+01  3.77507E+01  4.49789E+01  4.03642E+01  5.14039E+01
   4.16095E+01  3.92244E+01  4.97312E+01  3.98480E+01  3.63612E+01  1.99265E+01 -1.46197E+01 -2.91714E+01 -3.91610E+01 -5.94725E+01
  -8.05849E+01 -9.80076E+01 -1.27297E+02 -1.44496E+02 -1.34037E+02 -1.26349E+02 -7.97694E+01 -7.17143E+01 -8.50621E+01 -4.72460E+01
  -3.07987E+01 -1.39048E+01 -1.41835E+01 -1.44995E+01 -4.88242E+00  1.10987E+00  1.11077E+01  7.81069E+00  2.66983E+01  2.93602E+01
   2.66353E+01  3.63334E+01  3.31254E+01  3.03659E+01  9.88642E+00 -9.18284E+00 -2.64261E+01 -4.35879E+01 -3.52652E+01 -4.67564E+01
  -7.87219E+01 -7.60247E+01 -6.36702E+01 -6.14296E+01 -4.80215E+01 -4.34384E+01 -4.29182E+01 -4.67940E+01 -5.89004E+01 -4.36682E+01
  -4.35345E+01 -4.00136E+01 -2.24819E+01 -4.37870E+01 -2.78485E+01 -9.04062E+00 -2.32221E+01 -1.44471E+01 -9.94009E+00 -8.53209E+00
  -1.03875E+01 -6.52719E+00 -1.03614E+01 -1.60166E+01  4.39943E+00 -5.60724E+00 -2.16607E+01 -1.75011E+01 -1.04231E+01 -9.79665E+00
  -2.73814E+01 -2.85300E+01 -2.70406E+01 -3.11662E+01 -4.02060E+01 -4.09813E+01 -2.57642E+01 -3.72595E+01 -4.80937E+01 -4.64465E+01
  -3.49308E+01 -3.56062E+01 -6.55867E+01 -7.27406E+01 -5.82289E+01 -4.96173E+01 -6.60898E+01 -8.27825E+01 -7.43447E+01 -6.87852E+01
  -6.83560E+01 -5.92199E+01 -4.84749E+01 -4.38386E+01 -3.54034E+01 -3.93287E+01 -4.44832E+01 -3.80920E+01 -4.48213E+01 -4.15778E+01
  -3.96828E+01 -3.79760E+01 -2.39032E+01 -2.96847E+01 -2.52833E+01 -1.54309E+01 -2.18802E+01 -3.41600E+01 -3.89038E+01 -3.48115E+01
  -4.10273E+01 -4.45095E+01 -5.40628E+01 -5.81816E+01 -4.89263E+01 -3.80095E+01 -2.90167E+01 -9.26478E+00  1.12583E+01 -2.19349E+00
   4.23665E+00  6.86575E+00 -1.08331E+01 -7.65076E+00 -1.21046E+01 -1.96339E+01 -1.27352E+01 -9.18845E+00 -1.44570E+01 -3.73796E+00
   1.51580E+00 -7.44052E+00 -9.77355E+00 -9.26369E+00 -3.99968E+00  3.60634E+00 -1.04061E+01 -1.07935E+01 -1.25544E+01 -3.72058E+01
  -1.45748E+01 -1.81887E+01 -2.91152E+01 -2.33795E+01 -1.86782E+01 -6.84431E+00 -1.53475E+01  1.23516E+01  7.47543E+00 -1.62297E+00
  -4.46259E+00 -8.10477E+00  2.07694E+00 -8.17609E+00  1.03082E+01  1.67366E+00  1.04344E+01  2.63238E+01  3.38567E+01  5.36666E+01
   9.23184E+01  1.50653E+02  1.55678E+02  1.37869E+02  1.15643E+02  1.63113E+02  1.65122E+02  1.17602E+02  1.25615E+02  9.99683E+01
   9.46340E+01  8.99668E+01  8.66438E+01  9.08079E+01  9.21836E+01  8.07694E+01  7.33387E+01  1.03296E+02  1.01103E+02  9.35835E+01
   7.80078E+01  7.61600E+01  7.95772E+01  7.70716E+01  8.19229E+01  6.91183E+01  7.82578E+01  6.68290E+01  6.04788E+01  7.02606E+01
   5.96148E+01  6.10194E+01  4.77363E+01  3.89339E+01  4.89442E+01  3.76204E+01  2.66350E+01  2.07724E+01  1.76736E+01  3.28973E+01
   3.41417E+01  2.70434E+01  2.23257E+01  1.29918E+01  1.98707E+01  2.68351E+01  2.32167E+01  2.57324E+01  1.86980E+01  2.15107E+01
   3.26277E+01  1.65059E+01  5.08069E+00  4.27756E+00  1.55217E+01  8.56467E+00 -1.26713E+01 -6.53198E+00  2.31210E+00  3.24994E+00
  -4.93990E+00  3.00764E+00  8.72542E+00  1.35440E+01  9.25402E+00  8.22653E+00  3.16103E+01  2.47826E+01  3.17012E+01  4.11471E+01
   4.49464E+01  5.28716E+01  5.43268E+01  4.39053E+01  2.55245E+01  3.67397E+01  3.06548E+01  3.12006E+01  2.66552E+01  1.62288E+01
   2.28497E+01  1.86045E+01  1.22289E+01 -1.32522E+01 -2.31191E+01 -4.63197E+01 -8.89432E+01 -1.24887E+02 -1.67381E+02 -2.07615E+02
  -2.62194E+02 -3.23311E+02 -3.61313E+02 -3.76576E+02 -3.81654E+02 -3.67411E+02 -3.57030E+02 -3.26404E+02 -3.12816E+02 -2.98990E+02
  -2.52778E+02 -2.41062E+02 -2.09290E+02 -1.95851E+02 -1.75630E+02 -1.57239E+02 -1.49762E+02 -1.08728E+02 -1.14869E+02 -9.38431E+01
  -7.59033E+01 -8.49498E+01 -6.77644E+01 -4.46625E+01 -2.85647E+01 -3.15193E+01 -1.95804E+01 -8.07529E+00  3.08380E+00  3.20291E+00
   9.22639E+00  2.00744E+01  1.81067E+01  2.17305E+01  3.23736E+01  4.38509E+01  3.41808E+01  6.93197E+01  7.94374E+01  6.75795E+01
   8.79468E+01  6.05731E+01  7.01223E+01  7.60015E+01  5.97017E+01  6.45359E+01  4.21904E+01  4.44987E+01  4.23734E+01  2.60259E+01
   8.52566E+00 -1.02526E+01 -1.14768E+01 -3.01163E+01 -3.30062E+01 -5.64250E+01 -8.54953E+01 -6.45698E+01 -7.81505E+01 -7.97706E+01
  -7.31658E+01 -8.92895E+01 -7.47925E+01 -8.10657E+01 -7.77523E+01 -7.33609E+01 -8.69931E+01 -7.41587E+01 -7.12994E+01 -6.80333E+01
  -6.40366E+01 -6.25150E+01 -7.19099E+01 -7.45302E+01 -6.38231E+01 -7.15997E+01 -6.06753E+01 -5.71369E+01 -6.08441E+01 -6.20061E+01
  -5.15569E+01 -4.83568E+01 -6.53863E+01 -5.36361E+01 -6.12071E+01 -5.76615E+01 -5.22567E+01 -6.18349E+01 -6.16008E+01 -5.90395E+01
  -4.49893E+01 -5.71213E+01 -5.44049E+01 -5.53676E+01 -5.88431E+01 -4.74242E+01 -4.55917E+01 -5.20510E+01 -6.42997E+01 -5.01840E+01
  -5.52835E+01 -5.37004E+01 -5.30420E+01 -5.19754E+01 -3.29894E+01 -4.97768E+01 -5.53283E+01 -4.93471E+01 -3.93381E+01 -4.94042E+01
  -5.73645E+01 -3.92104E+01 -4.65573E+01 -4.33131E+01 -4.08945E+01 -5.22329E+01 -4.84357E+01 -3.84820E+01 -3.50284E+01 -4.22682E+01
  -5.09710E+01 -4.08684E+01 -3.29330E+01 -5.12062E+01 -4.01887E+01 -3.05093E+01 -3.94289E+01 -2.70975E+01 -4.10909E+01 -4.88512E+01
 NY points of the fit to the data follow
  -1.11031E+02 -1.06712E+02 -1.00405E+02 -9.21296E+01 -8.21560E+01 -7.06332E+01 -5.73510E+01 -4.26238E+01 -2.76198E+01 -1.45346E+01
  -5.06259E+00 -2.56493E+00 -4.00198E+00 -1.11478E+01 -1.92571E+01 -2.74647E+01 -3.54307E+01 -4.22128E+01 -4.76091E+01 -5.18022E+01
  -5.49470E+01 -5.69406E+01 -5.75756E+01 -5.66333E+01 -5.43025E+01 -5.11717E+01 -4.77981E+01 -4.40286E+01 -3.90193E+01 -3.26003E+01
  -2.53533E+01 -1.86386E+01 -1.38478E+01 -1.24453E+01 -1.31702E+01 -1.40701E+01 -1.52591E+01 -1.67173E+01 -1.82839E+01 -1.99769E+01
  -2.18348E+01 -2.36666E+01 -2.51943E+01 -2.63045E+01 -2.72154E+01 -2.81543E+01 -2.89105E+01 -2.88103E+01 -2.72131E+01 -2.39372E+01
  -1.98446E+01 -1.65982E+01 -1.42560E+01 -1.27636E+01 -1.28659E+01 -1.39392E+01 -1.57038E+01 -1.73356E+01 -1.86229E+01 -1.95713E+01
  -2.02609E+01 -2.06283E+01 -2.02192E+01 -1.89302E+01 -1.73887E+01 -1.59757E+01 -1.42903E+01 -1.19615E+01 -8.95166E+00 -5.23788E+00
  -1.63782E+00  1.21807E+00  3.81506E+00  5.56493E+00  4.59290E+00  2.41907E+00 -2.33173E-01 -2.05535E+00 -2.07744E+00 -5.44074E-01
   1.18535E+00  1.50979E+00  6.89772E-01 -7.90587E-01 -3.48955E+00 -7.28977E+00 -1.15705E+01 -1.61361E+01 -2.05278E+01 -2.34654E+01
  -2.31048E+01 -1.82396E+01 -9.02772E+00  4.25228E+00  1.60496E+01  2.63941E+01  3.20111E+01  3.43863E+01  3.49184E+01  3.46489E+01
   3.23007E+01  2.75571E+01  2.11063E+01  1.35784E+01  5.18190E+00 -4.27952E+00 -1.50623E+01 -2.73379E+01 -4.12839E+01 -5.67330E+01
  -7.27968E+01 -8.77623E+01 -9.84234E+01 -1.03011E+02 -1.03216E+02 -9.86017E+01 -9.29790E+01 -8.46547E+01 -7.28844E+01 -5.72529E+01
  -4.30045E+01 -3.07766E+01 -1.89290E+01 -8.85528E+00 -1.46941E+00  3.97626E+00  8.39727E+00  1.23632E+01  1.57597E+01  1.81106E+01
   1.89902E+01  1.79904E+01  1.47953E+01  9.20073E+00  1.52139E+00 -7.55883E+00 -1.73683E+01 -2.76442E+01 -3.91275E+01 -5.24096E+01
  -6.56514E+01 -7.44075E+01 -7.53817E+01 -7.37426E+01 -7.22947E+01 -7.07756E+01 -6.90494E+01 -6.70595E+01 -6.48698E+01 -6.26249E+01
  -6.02446E+01 -5.75947E+01 -5.46373E+01 -5.15660E+01 -4.85266E+01 -4.56577E+01 -4.30230E+01 -4.05044E+01 -3.81138E+01 -3.59587E+01
  -3.40575E+01 -3.22063E+01 -3.01992E+01 -2.80961E+01 -2.62559E+01 -2.48691E+01 -2.37711E+01 -2.28014E+01 -2.18234E+01 -2.09457E+01
  -2.02670E+01 -1.97775E+01 -1.95079E+01 -1.97149E+01 -2.07237E+01 -2.23648E+01 -2.40433E+01 -2.52020E+01 -2.62507E+01 -2.79864E+01
  -3.07366E+01 -3.36864E+01 -3.55818E+01 -3.64044E+01 -3.66270E+01 -3.63119E+01 -3.56161E+01 -3.47699E+01 -3.38967E+01 -3.28653E+01
  -3.14588E+01 -2.96713E+01 -2.77811E+01 -2.59909E+01 -2.44067E+01 -2.29889E+01 -2.17941E+01 -2.08984E+01 -2.05866E+01 -2.10462E+01
  -2.22468E+01 -2.36438E+01 -2.50529E+01 -2.71813E+01 -2.94780E+01 -3.12221E+01 -3.29147E+01 -3.40318E+01 -3.49408E+01 -3.53835E+01
  -3.48831E+01 -3.38327E+01 -3.22495E+01 -3.00605E+01 -2.70797E+01 -2.32002E+01 -1.86177E+01 -1.34959E+01 -8.19907E+00 -2.75672E+00
   2.90295E+00  8.60225E+00  1.35989E+01  1.68910E+01  1.82411E+01  1.72182E+01  1.33316E+01  8.72404E+00  3.12680E+00 -2.88001E+00
  -8.52876E+00 -1.47341E+01 -2.17109E+01 -2.92593E+01 -3.67318E+01 -4.35371E+01 -4.91367E+01 -5.31965E+01 -5.55295E+01 -5.59986E+01
  -5.46461E+01 -5.16376E+01 -4.78082E+01 -4.46286E+01 -4.09453E+01 -3.59306E+01 -3.02585E+01 -2.46479E+01 -2.06985E+01 -1.71061E+01
  -1.29903E+01 -8.10243E+00 -1.93523E+00  5.78882E+00  1.49536E+01  2.53455E+01  3.66937E+01  4.88296E+01  6.23466E+01  7.79445E+01
   9.57205E+01  1.13519E+02  1.26016E+02  1.28031E+02  1.23180E+02  1.17705E+02  1.12245E+02  1.06979E+02  1.02156E+02  9.77834E+01
   9.39190E+01  9.04282E+01  8.71695E+01  8.41439E+01  8.14735E+01  7.91964E+01  7.73876E+01  7.59993E+01  7.48473E+01  7.37138E+01
   7.23433E+01  7.06850E+01  6.84869E+01  6.58167E+01  6.26702E+01  5.89380E+01  5.48321E+01  5.04014E+01  4.58564E+01  4.12530E+01
   3.66497E+01  3.21166E+01  2.77477E+01  2.36600E+01  1.99099E+01  1.65444E+01  1.37098E+01  1.15030E+01  1.01225E+01  9.67056E+00
   1.01520E+01  1.16189E+01  1.39480E+01  1.69086E+01  2.02247E+01  2.36759E+01  2.71268E+01  3.05709E+01  3.39168E+01  3.70586E+01
   3.99423E+01  4.26158E+01  4.50377E+01  4.71998E+01  4.90463E+01  5.05139E+01  5.14402E+01  5.16738E+01  5.11931E+01  5.00064E+01
   4.81294E+01  4.55807E+01  4.24151E+01  3.87841E+01  3.48973E+01  3.09564E+01  2.72436E+01  2.40347E+01  2.15005E+01  1.99397E+01
   1.98764E+01  2.20950E+01  2.77091E+01  3.76069E+01  4.37860E+01  4.65948E+01  4.39551E+01  3.68989E+01  3.07325E+01  2.79695E+01
   2.74779E+01  2.58762E+01  1.96134E+01  6.65873E+00 -1.33103E+01 -3.92484E+01 -7.01983E+01 -1.06663E+02 -1.51016E+02 -2.05650E+02
  -2.68380E+02 -3.28194E+02 -3.66664E+02 -3.70715E+02 -3.54058E+02 -3.17650E+02 -2.81710E+02 -2.56718E+02 -2.38248E+02 -2.23441E+02
  -2.10665E+02 -1.98847E+02 -1.87340E+02 -1.75904E+02 -1.64517E+02 -1.53181E+02 -1.41940E+02 -1.30860E+02 -1.19959E+02 -1.09218E+02
  -9.86600E+01 -8.82245E+01 -7.78019E+01 -6.72166E+01 -5.64356E+01 -4.54011E+01 -3.41686E+01 -2.28356E+01 -1.15646E+01 -5.17084E-01
   1.01531E+01  2.03694E+01  3.00892E+01  3.91804E+01  4.74371E+01  5.46617E+01  6.04824E+01  6.45301E+01  6.66003E+01  6.65429E+01
   6.41006E+01  5.92041E+01  5.19877E+01  4.27139E+01  3.18310E+01  2.00605E+01  8.22474E+00 -2.97202E+00 -1.32964E+01 -2.27966E+01
  -3.17188E+01 -4.01707E+01 -4.82258E+01 -5.58580E+01 -6.27780E+01 -6.86766E+01 -7.33687E+01 -7.68766E+01 -7.92434E+01 -8.07065E+01
  -8.14838E+01 -8.17209E+01 -8.15332E+01 -8.11187E+01 -8.05436E+01 -7.98557E+01 -7.90141E+01 -7.80586E+01 -7.69944E+01 -7.58547E+01
  -7.47031E+01 -7.35505E+01 -7.24098E+01 -7.12915E+01 -7.02592E+01 -6.92133E+01 -6.81076E+01 -6.69856E+01 -6.59513E+01 -6.49830E+01
  -6.39724E+01 -6.29839E+01 -6.20169E+01 -6.10711E+01 -6.01075E+01 -5.91717E+01 -5.83006E+01 -5.75064E+01 -5.67601E+01 -5.59774E+01
  -5.51553E+01 -5.43203E+01 -5.35041E+01 -5.27147E+01 -5.19877E+01 -5.12809E+01 -5.05918E+01 -4.99529E+01 -4.93275E+01 -4.87441E+01
  -4.81656E+01 -4.75873E+01 -4.69517E+01 -4.62886E+01 -4.56226E+01 -4.50207E+01 -4.44557E+01 -4.38729E+01 -4.32757E+01 -4.26344E+01
  -4.19627E+01 -4.13709E+01 -4.08609E+01 -4.03857E+01 -3.99030E+01 -3.94384E+01 -3.89655E+01 -3.85285E+01 -3.81071E+01 -3.77199E+01
  -3.72757E+01 -3.68132E+01 -3.63037E+01 -3.57682E+01 -3.52448E+01 -3.47826E+01 -3.44009E+01 -3.40186E+01 -3.35346E+01 -3.29184E+01
 NY background values follow
    -3.091E+01   -3.184E+01   -3.277E+01   -3.369E+01   -3.461E+01   -3.553E+01   -3.643E+01   -3.733E+01   -3.822E+01   -3.910E+01
    -3.998E+01   -4.084E+01   -4.168E+01   -4.252E+01   -4.334E+01   -4.414E+01   -4.493E+01   -4.570E+01   -4.646E+01   -4.719E+01
    -4.791E+01   -4.860E+01   -4.927E+01   -4.992E+01   -5.055E+01   -5.115E+01   -5.173E+01   -5.227E+01   -5.280E+01   -5.329E+01
    -5.375E+01   -5.418E+01   -5.459E+01   -5.496E+01   -5.530E+01   -5.562E+01   -5.590E+01   -5.615E+01   -5.638E+01   -5.657E+01
    -5.674E+01   -5.688E+01   -5.699E+01   -5.707E+01   -5.712E+01   -5.715E+01   -5.714E+01   -5.711E+01   -5.705E+01   -5.696E+01
    -5.685E+01   -5.671E+01   -5.654E+01   -5.634E+01   -5.612E+01   -5.587E+01   -5.559E+01   -5.529E+01   -5.496E+01   -5.461E+01
    -5.423E+01   -5.382E+01   -5.339E+01   -5.293E+01   -5.245E+01   -5.195E+01   -5.142E+01   -5.088E+01   -5.031E+01   -4.971E+01
    -4.910E+01   -4.847E+01   -4.782E+01   -4.715E+01   -4.647E+01   -4.576E+01   -4.504E+01   -4.430E+01   -4.355E+01   -4.278E+01
    -4.200E+01   -4.121E+01   -4.040E+01   -3.957E+01   -3.874E+01   -3.789E+01   -3.704E+01   -3.617E+01   -3.529E+01   -3.441E+01
    -3.352E+01   -3.261E+01   -3.170E+01   -3.079E+01   -2.987E+01   -2.894E+01   -2.801E+01   -2.708E+01   -2.614E+01   -2.521E+01
    -2.427E+01   -2.333E+01   -2.239E+01   -2.146E+01   -2.052E+01   -1.959E+01   -1.867E+01   -1.774E+01   -1.683E+01   -1.591E+01
    -1.501E+01   -1.411E+01   -1.322E+01   -1.234E+01   -1.147E+01   -1.061E+01   -9.766E+00   -8.930E+00   -8.107E+00   -7.298E+00
    -6.503E+00   -5.724E+00   -4.960E+00   -4.213E+00   -3.482E+00   -2.769E+00   -2.075E+00   -1.398E+00   -7.417E-01   -1.047E-01
     5.119E-01    1.107E+00    1.681E+00    2.233E+00    2.762E+00    3.268E+00    3.750E+00    4.207E+00    4.639E+00    5.046E+00
     5.426E+00    5.780E+00    6.106E+00    6.405E+00    6.674E+00    6.915E+00    7.126E+00    7.306E+00    7.456E+00    7.574E+00
     7.661E+00    7.715E+00    7.739E+00    7.734E+00    7.701E+00    7.642E+00    7.559E+00    7.453E+00    7.324E+00    7.176E+00
     7.009E+00    6.824E+00    6.624E+00    6.409E+00    6.182E+00    5.943E+00    5.694E+00    5.437E+00    5.172E+00    4.902E+00
     4.628E+00    4.352E+00    4.074E+00    3.796E+00    3.521E+00    3.248E+00    2.981E+00    2.719E+00    2.465E+00    2.221E+00
     1.987E+00    1.764E+00    1.553E+00    1.353E+00    1.165E+00    9.877E-01    8.221E-01    6.679E-01    5.251E-01    3.935E-01
     2.732E-01    1.642E-01    6.633E-02   -2.031E-02   -9.578E-02   -1.601E-01   -2.133E-01   -2.554E-01   -2.865E-01   -3.065E-01
    -3.155E-01   -3.135E-01   -3.006E-01   -2.767E-01   -2.419E-01   -1.962E-01   -1.396E-01   -7.225E-02    5.934E-03    9.491E-02
     1.946E-01    3.044E-01    4.228E-01    5.482E-01    6.793E-01    8.145E-01    9.524E-01    1.091E+00    1.230E+00    1.367E+00
     1.501E+00    1.629E+00    1.752E+00    1.867E+00    1.972E+00    2.067E+00    2.149E+00    2.218E+00    2.271E+00    2.308E+00
     2.327E+00    2.326E+00    2.303E+00    2.258E+00    2.189E+00    2.095E+00    1.973E+00    1.822E+00    1.642E+00    1.430E+00
     1.184E+00    9.052E-01    5.923E-01    2.453E-01   -1.356E-01   -5.506E-01   -9.997E-01   -1.483E+00   -2.001E+00   -2.552E+00
    -3.138E+00   -3.759E+00   -4.414E+00   -5.103E+00   -5.827E+00   -6.586E+00   -7.379E+00   -8.206E+00   -9.069E+00   -9.966E+00
    -1.090E+01   -1.187E+01   -1.287E+01   -1.390E+01   -1.498E+01   -1.608E+01   -1.723E+01   -1.840E+01   -1.962E+01   -2.086E+01
    -2.215E+01   -2.347E+01   -2.482E+01   -2.620E+01   -2.761E+01   -2.905E+01   -3.052E+01   -3.201E+01   -3.353E+01   -3.507E+01
    -3.663E+01   -3.821E+01   -3.981E+01   -4.143E+01   -4.306E+01   -4.470E+01   -4.635E+01   -4.802E+01   -4.969E+01   -5.138E+01
    -5.306E+01   -5.476E+01   -5.645E+01   -5.815E+01   -5.984E+01   -6.154E+01   -6.323E+01   -6.492E+01   -6.660E+01   -6.827E+01
    -6.993E+01   -7.159E+01   -7.323E+01   -7.485E+01   -7.646E+01   -7.806E+01   -7.963E+01   -8.118E+01   -8.271E+01   -8.422E+01
    -8.570E+01   -8.715E+01   -8.858E+01   -8.997E+01   -9.133E+01   -9.265E+01   -9.394E+01   -9.520E+01   -9.641E+01   -9.758E+01
    -9.871E+01   -9.979E+01   -1.008E+02   -1.018E+02   -1.028E+02   -1.037E+02   -1.045E+02   -1.053E+02   -1.060E+02   -1.067E+02
    -1.073E+02   -1.078E+02   -1.083E+02   -1.088E+02   -1.091E+02   -1.095E+02   -1.097E+02   -1.099E+02   -1.101E+02   -1.101E+02
    -1.102E+02   -1.102E+02   -1.101E+02   -1.099E+02   -1.098E+02   -1.095E+02   -1.092E+02   -1.089E+02   -1.085E+02   -1.080E+02
    -1.075E+02   -1.070E+02   -1.063E+02   -1.057E+02   -1.050E+02   -1.042E+02   -1.034E+02   -1.026E+02   -1.016E+02   -1.007E+02
    -9.969E+01   -9.864E+01   -9.755E+01   -9.642E+01   -9.524E+01   -9.403E+01   -9.279E+01   -9.151E+01   -9.020E+01   -8.887E+01
    -8.750E+01   -8.612E+01   -8.471E+01   -8.328E+01   -8.183E+01   -8.037E+01   -7.890E+01   -7.742E+01   -7.592E+01   -7.442E+01
    -7.292E+01   -7.142E+01   -6.991E+01   -6.841E+01   -6.691E+01   -6.542E+01   -6.394E+01   -6.247E+01   -6.101E+01   -5.957E+01
    -5.815E+01   -5.675E+01   -5.536E+01   -5.400E+01   -5.265E+01   -5.133E+01   -5.002E+01   -4.874E+01   -4.747E+01   -4.623E+01
    -4.501E+01   -4.381E+01   -4.264E+01   -4.149E+01   -4.036E+01   -3.925E+01   -3.817E+01   -3.711E+01   -3.608E+01   -3.507E+01
    -3.409E+01   -3.313E+01   -3.220E+01   -3.129E+01   -3.041E+01   -2.956E+01   -2.874E+01   -2.794E+01   -2.717E+01   -2.643E+01
    -2.572E+01   -2.503E+01   -2.438E+01   -2.375E+01   -2.315E+01   -2.257E+01   -2.201E+01   -2.148E+01   -2.098E+01   -2.049E+01
    -2.003E+01   -1.959E+01   -1.917E+01   -1.877E+01   -1.839E+01   -1.802E+01   -1.768E+01   -1.735E+01   -1.704E+01   -1.674E+01
    -1.646E+01   -1.619E+01   -1.593E+01   -1.569E+01   -1.546E+01   -1.524E+01   -1.504E+01   -1.484E+01   -1.465E+01   -1.447E+01
    -1.430E+01   -1.413E+01   -1.397E+01   -1.382E+01   -1.368E+01   -1.354E+01   -1.341E+01   -1.328E+01   -1.316E+01   -1.305E+01
    -1.294E+01   -1.283E+01   -1.273E+01   -1.263E+01   -1.253E+01   -1.244E+01   -1.235E+01   -1.226E+01   -1.218E+01   -1.210E+01
    -1.202E+01   -1.194E+01   -1.186E+01   -1.178E+01   -1.170E+01   -1.163E+01   -1.155E+01   -1.147E+01   -1.139E+01   -1.131E+01
 Mac      Conc. = 4.90E-04
  -6.48169E+01 -6.68148E+01 -6.88808E+01 -7.09438E+01 -7.30555E+01 -7.52962E+01 -7.77033E+01 -8.01421E+01 -8.23845E+01 -8.44382E+01
  -8.63670E+01 -8.81772E+01 -8.98284E+01 -9.12583E+01 -9.23478E+01 -9.29870E+01 -9.31170E+01 -9.27480E+01 -9.19445E+01 -9.07775E+01
  -8.93009E+01 -8.74440E+01 -8.50828E+01 -8.20561E+01 -7.84972E+01 -7.48634E+01 -7.16739E+01 -6.90571E+01 -6.66753E+01 -6.45564E+01
  -6.27817E+01 -6.11747E+01 -5.95788E+01 -5.79856E+01 -5.64186E+01 -5.49168E+01 -5.35532E+01 -5.23784E+01 -5.13515E+01 -5.04460E+01
  -4.96527E+01 -4.88517E+01 -4.79082E+01 -4.67973E+01 -4.56950E+01 -4.48969E+01 -4.45506E+01 -4.45038E+01 -4.44436E+01 -4.42615E+01
  -4.40772E+01 -4.40202E+01 -4.41718E+01 -4.45302E+01 -4.49446E+01 -4.53110E+01 -4.55044E+01 -4.54344E+01 -4.50658E+01 -4.44438E+01
  -4.36225E+01 -4.25456E+01 -4.12216E+01 -3.97202E+01 -3.81420E+01 -3.66709E+01 -3.53900E+01 -3.42896E+01 -3.33370E+01 -3.25751E+01
  -3.18591E+01 -3.09783E+01 -2.98979E+01 -2.85944E+01 -2.70646E+01 -2.53916E+01 -2.35309E+01 -2.15579E+01 -1.96554E+01 -1.81461E+01
  -1.70698E+01 -1.62435E+01 -1.55186E+01 -1.48064E+01 -1.39799E+01 -1.30490E+01 -1.19848E+01 -1.08688E+01 -9.75047E+00 -8.63286E+00
  -7.52558E+00 -6.53143E+00 -5.80635E+00 -5.41299E+00 -5.38669E+00 -5.85914E+00 -6.88624E+00 -8.52635E+00 -1.07202E+01 -1.33853E+01
  -1.64065E+01 -1.97265E+01 -2.32435E+01 -2.68366E+01 -3.03640E+01 -3.38006E+01 -3.70851E+01 -4.01753E+01 -4.30625E+01 -4.56970E+01
