 
 $NMID
 ID=''
 FMTDAT='(2E13.5)'
 TRAMP=   1.00000E+0
 VOLUME=   1.00000E+0
 $END
   2.08480E+5   7.10669E+5
  -1.35273E+5   1.91176E+6
   4.52160E+4   1.83631E+6
  -1.28112E+5   1.75009E+6
  -1.94216E+5   1.86624E+6
  -1.43323E+5   1.79731E+6
  -2.44369E+5   1.69522E+6
  -3.27833E+5   1.75164E+6
  -3.05831E+5   1.74893E+6
  -3.41352E+5   1.69578E+6
  -3.82515E+5   1.68076E+6
  -4.09401E+5   1.63944E+6
  -4.65069E+5   1.62026E+6
  -4.75963E+5   1.62852E+6
  -4.75951E+5   1.58103E+6
  -5.22436E+5   1.54053E+6
  -5.58491E+5   1.54258E+6
  -5.80451E+5   1.50943E+6
  -6.23643E+5   1.47236E+6
  -6.50754E+5   1.45368E+6
  -6.78627E+5   1.41305E+6
  -7.19782E+5   1.38225E+6
  -7.39486E+5   1.36493E+6
  -7.58472E+5   1.32809E+6
  -7.92026E+5   1.29199E+6
  -8.04081E+5   1.27185E+6
  -8.18097E+5   1.24268E+6
  -8.40220E+5   1.21823E+6
  -8.51084E+5   1.19254E+6
  -8.62832E+5   1.15936E+6
  -8.88573E+5   1.13148E+6
  -9.03182E+5   1.10335E+6
  -9.19128E+5   1.06677E+6
  -9.38732E+5   1.03656E+6
  -9.52393E+5   1.00487E+6
  -9.68178E+5   9.69487E+5
  -9.87577E+5   9.39106E+5
  -1.00118E+6   9.06455E+5
  -1.01104E+6   8.70109E+5
  -1.02201E+6   8.41975E+5
  -1.02881E+6   8.13582E+5
  -1.03578E+6   7.81334E+5
  -1.04018E+6   7.53534E+5
  -1.04412E+6   7.27813E+5
  -1.04970E+6   6.98845E+5
  -1.05652E+6   6.70910E+5
  -1.06078E+6   6.40804E+5
  -1.06670E+6   6.07358E+5
  -1.07079E+6   5.74444E+5
  -1.07379E+6   5.42408E+5
  -1.07760E+6   5.10632E+5
  -1.08129E+6   4.79249E+5
  -1.08355E+6   4.47618E+5
  -1.08599E+6   4.16598E+5
  -1.08608E+6   3.86274E+5
  -1.08575E+6   3.56419E+5
  -1.08481E+6   3.26610E+5
  -1.08195E+6   2.98357E+5
  -1.07744E+6   2.72024E+5
  -1.07503E+6   2.45353E+5
  -1.07275E+6   2.17494E+5
  -1.06838E+6   1.89907E+5
  -1.06373E+6   1.63069E+5
  -1.05935E+6   1.34994E+5
  -1.05318E+6   1.05727E+5
  -1.04524E+6   7.86685E+4
  -1.03719E+6   5.30226E+4
  -1.02989E+6   2.68982E+4
  -1.02297E+6   9.70960E+2
  -1.01479E+6  -2.39720E+4
  -1.00510E+6  -4.82201E+4
  -9.95037E+5  -7.14995E+4
  -9.85637E+5  -9.34965E+4
  -9.76085E+5  -1.15831E+5
  -9.65105E+5  -1.37881E+5
  -9.53253E+5  -1.59623E+5
  -9.41513E+5  -1.80824E+5
  -9.29998E+5  -2.02163E+5
  -9.17132E+5  -2.22955E+5
  -9.03207E+5  -2.44546E+5
  -8.89166E+5  -2.64683E+5
  -8.75038E+5  -2.83621E+5
  -8.60747E+5  -3.01702E+5
  -8.45601E+5  -3.20407E+5
  -8.29980E+5  -3.38174E+5
  -8.14704E+5  -3.53809E+5
  -7.99873E+5  -3.68740E+5
  -7.84351E+5  -3.83482E+5
  -7.68229E+5  -3.97495E+5
  -7.52842E+5  -4.09881E+5
  -7.37207E+5  -4.22042E+5
  -7.21069E+5  -4.34541E+5
  -7.04937E+5  -4.47239E+5
  -6.87642E+5  -4.58478E+5
  -6.69865E+5  -4.68734E+5
  -6.52059E+5  -4.79300E+5
  -6.35458E+5  -4.88827E+5
  -6.18434E+5  -4.98418E+5
  -6.00416E+5  -5.07024E+5
  -5.82816E+5  -5.14793E+5
  -5.65981E+5  -5.21874E+5
  -5.48819E+5  -5.29192E+5
  -5.30697E+5  -5.36032E+5
  -5.12688E+5  -5.40812E+5
  -4.96045E+5  -5.45049E+5
  -4.79982E+5  -5.49239E+5
  -4.63006E+5  -5.53330E+5
  -4.45071E+5  -5.56886E+5
  -4.27295E+5  -5.59969E+5
  -4.10694E+5  -5.61495E+5
  -3.94149E+5  -5.63495E+5
  -3.77053E+5  -5.65775E+5
  -3.59883E+5  -5.68230E+5
  -3.42139E+5  -5.69245E+5
  -3.25089E+5  -5.69762E+5
  -3.08230E+5  -5.70363E+5
  -2.91084E+5  -5.70752E+5
  -2.74142E+5  -5.69942E+5
  -2.57580E+5  -5.68021E+5
  -2.42087E+5  -5.65979E+5
  -2.27012E+5  -5.64382E+5
  -2.11464E+5  -5.62934E+5
  -1.95854E+5  -5.60545E+5
  -1.80382E+5  -5.57851E+5
  -1.65238E+5  -5.54800E+5
  -1.49651E+5  -5.51209E+5
  -1.35163E+5  -5.46975E+5
  -1.20610E+5  -5.42770E+5
  -1.06045E+5  -5.38530E+5
  -9.15908E+4  -5.33932E+5
  -7.69212E+4  -5.29251E+5
  -6.22359E+4  -5.24046E+5
  -4.85245E+4  -5.17797E+5
  -3.51673E+4  -5.11984E+5
  -2.20938E+4  -5.06322E+5
  -9.03270E+3  -4.99782E+5
   3.32674E+3  -4.92805E+5
   1.52157E+4  -4.85987E+5
   2.76310E+4  -4.79025E+5
   3.97715E+4  -4.71727E+5
   5.11272E+4  -4.63604E+5
   6.19906E+4  -4.55444E+5
   7.22913E+4  -4.47253E+5
   8.21943E+4  -4.39387E+5
   9.22692E+4  -4.31261E+5
   1.01948E+5  -4.22894E+5
   1.11159E+5  -4.13787E+5
   1.20054E+5  -4.04710E+5
   1.28612E+5  -3.95754E+5
   1.36403E+5  -3.86560E+5
   1.43978E+5  -3.77353E+5
   1.50746E+5  -3.68087E+5
   1.57540E+5  -3.58738E+5
   1.64214E+5  -3.49889E+5
   1.70583E+5  -3.40403E+5
   1.76651E+5  -3.30718E+5
   1.81737E+5  -3.21006E+5
   1.86749E+5  -3.11951E+5
   1.91759E+5  -3.02337E+5
   1.96461E+5  -2.92251E+5
   2.00587E+5  -2.83255E+5
   2.04648E+5  -2.73704E+5
   2.08419E+5  -2.63908E+5
   2.12079E+5  -2.54260E+5
   2.15019E+5  -2.44671E+5
   2.17613E+5  -2.35418E+5
   2.20220E+5  -2.26229E+5
   2.22614E+5  -2.17307E+5
   2.24670E+5  -2.07666E+5
   2.26283E+5  -1.99012E+5
   2.27755E+5  -1.89974E+5
   2.28856E+5  -1.81103E+5
   2.30288E+5  -1.72259E+5
   2.30755E+5  -1.63495E+5
   2.31413E+5  -1.54704E+5
   2.32093E+5  -1.46033E+5
   2.32133E+5  -1.37679E+5
   2.32388E+5  -1.28682E+5
   2.32358E+5  -1.19960E+5
   2.31525E+5  -1.11885E+5
   2.31172E+5  -1.03793E+5
   2.30594E+5  -9.58239E+4
   2.29851E+5  -8.76326E+4
   2.28746E+5  -7.97755E+4
   2.27472E+5  -7.19729E+4
   2.26036E+5  -6.43116E+4
   2.24270E+5  -5.68322E+4
   2.22786E+5  -4.95322E+4
   2.20630E+5  -4.24661E+4
   2.18343E+5  -3.57833E+4
   2.16646E+5  -2.86664E+4
   2.14463E+5  -2.17970E+4
   2.12068E+5  -1.49208E+4
   2.09414E+5  -8.28133E+3
   2.06664E+5  -1.68840E+3
   2.03833E+5   4.81261E+3
   2.00820E+5   1.10674E+4
   1.97587E+5   1.70140E+4
   1.94305E+5   2.32488E+4
   1.91169E+5   2.93040E+4
   1.87671E+5   3.48415E+4
   1.83915E+5   4.07844E+4
   1.80355E+5   4.61114E+4
   1.76435E+5   5.13498E+4
   1.72708E+5   5.61021E+4
   1.68622E+5   6.12509E+4
   1.64504E+5   6.58992E+4
   1.60373E+5   7.05055E+4
   1.55997E+5   7.50494E+4
   1.51689E+5   7.95970E+4
   1.47306E+5   8.36244E+4
   1.42939E+5   8.73436E+4
   1.38500E+5   9.13760E+4
   1.33684E+5   9.49690E+4
   1.29227E+5   9.84783E+4
   1.24701E+5   1.01682E+5
   1.19799E+5   1.04535E+5
   1.14949E+5   1.07491E+5
   1.10473E+5   1.10069E+5
   1.05625E+5   1.12798E+5
   1.01087E+5   1.15082E+5
   9.63229E+4   1.17170E+5
   9.17224E+4   1.19589E+5
   8.68907E+4   1.21386E+5
   8.23643E+4   1.23008E+5
   7.76142E+4   1.24857E+5
   7.30613E+4   1.26040E+5
   6.84653E+4   1.27485E+5
   6.39012E+4   1.28895E+5
   5.96153E+4   1.29984E+5
   5.50567E+4   1.30688E+5
   5.06065E+4   1.31445E+5
   4.63073E+4   1.31821E+5
   4.19864E+4   1.32297E+5
   3.80407E+4   1.32748E+5
   3.36777E+4   1.32896E+5
   2.97232E+4   1.33439E+5
   2.55977E+4   1.33257E+5
   2.18281E+4   1.32890E+5
   1.79827E+4   1.33008E+5
   1.42079E+4   1.32565E+5
   1.03644E+4   1.32105E+5
   6.82000E+3   1.31655E+5
   3.15226E+3   1.30946E+5
  -4.55517E+2   1.30507E+5
  -3.90607E+3   1.29789E+5
  -7.27437E+3   1.28807E+5
  -1.03323E+4   1.28005E+5
  -1.36758E+4   1.27237E+5
  -1.68353E+4   1.26023E+5
  -2.01162E+4   1.24880E+5
  -2.31433E+4   1.23698E+5
  -2.59762E+4   1.22247E+5
  -2.87102E+4   1.20917E+5
  -3.17849E+4   1.19362E+5
  -3.45147E+4   1.17797E+5
  -3.72088E+4   1.16242E+5
  -3.97491E+4   1.14682E+5
  -4.23964E+4   1.13024E+5
  -4.49620E+4   1.11107E+5
  -4.75096E+4   1.09622E+5
  -5.01209E+4   1.07518E+5
  -5.22378E+4   1.05715E+5
  -5.44473E+4   1.03522E+5
  -5.67138E+4   1.01884E+5
  -5.89886E+4   9.96539E+4
  -6.10599E+4   9.76195E+4
  -6.31743E+4   9.55406E+4
  -6.48321E+4   9.31698E+4
  -6.64743E+4   9.06602E+4
  -6.81360E+4   8.86297E+4
  -6.97822E+4   8.63693E+4
  -7.13858E+4   8.40304E+4
  -7.28299E+4   8.17804E+4
  -7.46260E+4   7.92481E+4
  -7.59317E+4   7.68725E+4
  -7.73335E+4   7.46425E+4
  -7.83749E+4   7.21288E+4
  -7.93775E+4   6.96417E+4
  -8.07709E+4   6.71868E+4
  -8.15035E+4   6.48338E+4
  -8.26299E+4   6.20841E+4
  -8.35987E+4   6.00084E+4
  -8.39105E+4   5.74385E+4
  -8.49104E+4   5.49079E+4
  -8.54300E+4   5.23987E+4
  -8.59818E+4   5.01960E+4
  -8.67099E+4   4.77947E+4
  -8.71020E+4   4.52984E+4
  -8.76767E+4   4.26647E+4
  -8.77839E+4   4.03215E+4
  -8.77303E+4   3.81830E+4
  -8.83136E+4   3.56310E+4
  -8.86147E+4   3.33501E+4
  -8.84023E+4   3.09072E+4
  -8.84570E+4   2.88564E+4
  -8.83641E+4   2.66553E+4
  -8.84763E+4   2.44538E+4
  -8.82928E+4   2.20778E+4
  -8.82639E+4   1.99072E+4
  -8.79134E+4   1.78932E+4
  -8.78155E+4   1.54573E+4
  -8.73232E+4   1.34480E+4
  -8.67410E+4   1.13833E+4
  -8.65312E+4   9.43234E+3
  -8.62168E+4   7.38798E+3
  -8.57203E+4   5.35999E+3
  -8.50030E+4   3.38743E+3
  -8.44805E+4   1.44169E+3
  -8.36691E+4  -6.03858E+2
  -8.31769E+4  -2.09667E+3
  -8.24173E+4  -4.25993E+3
  -8.17112E+4  -6.24417E+3
  -8.07071E+4  -7.82632E+3
  -7.98919E+4  -9.65034E+3
  -7.90478E+4  -1.12414E+4
  -7.81387E+4  -1.32067E+4
  -7.74379E+4  -1.47577E+4
  -7.62768E+4  -1.61904E+4
  -7.52642E+4  -1.77788E+4
  -7.44727E+4  -1.95647E+4
  -7.32753E+4  -2.10612E+4
  -7.22613E+4  -2.22570E+4
  -7.10564E+4  -2.38461E+4
  -7.00326E+4  -2.52881E+4
  -6.87911E+4  -2.67628E+4
  -6.77354E+4  -2.81976E+4
  -6.66794E+4  -2.94670E+4
  -6.55106E+4  -3.04240E+4
  -6.41471E+4  -3.17940E+4
  -6.29418E+4  -3.30622E+4
  -6.17695E+4  -3.41534E+4
  -6.04705E+4  -3.49722E+4
  -5.91974E+4  -3.61693E+4
  -5.80835E+4  -3.71000E+4
  -5.67858E+4  -3.79900E+4
  -5.51773E+4  -3.92519E+4
  -5.39746E+4  -4.01183E+4
  -5.23907E+4  -4.09503E+4
  -5.12070E+4  -4.19148E+4
  -4.99287E+4  -4.24305E+4
  -4.86168E+4  -4.32947E+4
  -4.73725E+4  -4.38971E+4
  -4.58719E+4  -4.46967E+4
  -4.46433E+4  -4.53484E+4
  -4.32034E+4  -4.57940E+4
  -4.19575E+4  -4.63809E+4
  -4.06584E+4  -4.69225E+4
  -3.93961E+4  -4.72466E+4
  -3.80930E+4  -4.77571E+4
  -3.64114E+4  -4.80413E+4
  -3.53011E+4  -4.81701E+4
  -3.41715E+4  -4.86555E+4
  -3.27905E+4  -4.88435E+4
  -3.15919E+4  -4.89959E+4
  -3.02158E+4  -4.92257E+4
  -2.89684E+4  -4.95647E+4
  -2.77850E+4  -4.95785E+4
  -2.65604E+4  -4.96365E+4
  -2.52916E+4  -4.96922E+4
  -2.40567E+4  -4.95949E+4
  -2.29329E+4  -4.97389E+4
  -2.14124E+4  -4.95841E+4
  -2.04740E+4  -4.92958E+4
  -1.94450E+4  -4.94287E+4
  -1.83920E+4  -4.91579E+4
  -1.70686E+4  -4.91769E+4
