 
 $NMID
 ID=''
 FMTDAT='(2E13.5)'
 TRAMP=   1.00000E+0
 VOLUME=   1.00000E+0
 $END
  -5.48960E+5   9.82405E+4
  -1.39174E+6  -2.29210E+5
  -1.30508E+6  -7.81737E+4
  -1.20453E+6  -2.32118E+5
  -1.32339E+6  -3.08455E+5
  -1.32684E+6  -2.13567E+5
  -1.22594E+6  -2.07046E+5
  -1.19982E+6  -2.61277E+5
  -1.18489E+6  -2.88075E+5
  -1.19956E+6  -3.21867E+5
  -1.22692E+6  -2.93235E+5
  -1.16336E+6  -2.50045E+5
  -1.09849E+6  -2.93372E+5
  -1.11408E+6  -3.35103E+5
  -1.12291E+6  -3.23218E+5
  -1.10519E+6  -3.05450E+5
  -1.08290E+6  -2.94694E+5
  -1.03893E+6  -3.10248E+5
  -1.02231E+6  -3.51911E+5
  -1.03653E+6  -3.55863E+5
  -1.01819E+6  -3.37544E+5
  -9.85083E+5  -3.41269E+5
  -9.65545E+5  -3.52211E+5
  -9.46683E+5  -3.64679E+5
  -9.36065E+5  -3.74731E+5
  -9.31749E+5  -3.59524E+5
  -9.08192E+5  -3.50103E+5
  -8.84113E+5  -3.57240E+5
  -8.70178E+5  -3.58674E+5
  -8.58363E+5  -3.54618E+5
  -8.47438E+5  -3.58565E+5
  -8.30127E+5  -3.53372E+5
  -8.05721E+5  -3.50694E+5
  -7.89676E+5  -3.55695E+5
  -7.76425E+5  -3.56670E+5
  -7.59892E+5  -3.54674E+5
  -7.46388E+5  -3.54386E+5
  -7.30364E+5  -3.51918E+5
  -7.09136E+5  -3.50231E+5
  -6.94350E+5  -3.50063E+5
  -6.82522E+5  -3.46684E+5
  -6.68126E+5  -3.41786E+5
  -6.52259E+5  -3.35184E+5
  -6.36333E+5  -3.28728E+5
  -6.20576E+5  -3.26460E+5
  -6.09552E+5  -3.26157E+5
  -5.96791E+5  -3.22753E+5
  -5.79986E+5  -3.17579E+5
  -5.62562E+5  -3.12853E+5
  -5.46960E+5  -3.11965E+5
  -5.33023E+5  -3.12476E+5
  -5.20407E+5  -3.09359E+5
  -5.07723E+5  -3.03924E+5
  -4.92266E+5  -3.01335E+5
  -4.76332E+5  -2.99894E+5
  -4.63101E+5  -2.98270E+5
  -4.52628E+5  -2.95362E+5
  -4.40547E+5  -2.90352E+5
  -4.26313E+5  -2.84610E+5
  -4.12931E+5  -2.81869E+5
  -4.01717E+5  -2.80765E+5
  -3.91200E+5  -2.78576E+5
  -3.79775E+5  -2.74378E+5
  -3.67196E+5  -2.70016E+5
  -3.54151E+5  -2.67595E+5
  -3.42344E+5  -2.66223E+5
  -3.31689E+5  -2.63794E+5
  -3.22346E+5  -2.59273E+5
  -3.12487E+5  -2.55839E+5
  -3.00804E+5  -2.54229E+5
  -2.89616E+5  -2.52159E+5
  -2.81481E+5  -2.48671E+5
  -2.74613E+5  -2.45769E+5
  -2.65510E+5  -2.42664E+5
  -2.54955E+5  -2.39048E+5
  -2.45765E+5  -2.36384E+5
  -2.38730E+5  -2.34532E+5
  -2.31250E+5  -2.31977E+5
  -2.22927E+5  -2.28163E+5
  -2.14241E+5  -2.24570E+5
  -2.06165E+5  -2.22748E+5
  -1.98500E+5  -2.20427E+5
  -1.92603E+5  -2.17046E+5
  -1.86032E+5  -2.13134E+5
  -1.79026E+5  -2.09863E+5
  -1.72040E+5  -2.06608E+5
  -1.66337E+5  -2.03777E+5
  -1.61571E+5  -2.00083E+5
  -1.56483E+5  -1.96038E+5
  -1.51170E+5  -1.91717E+5
  -1.45891E+5  -1.87752E+5
  -1.41434E+5  -1.84435E+5
  -1.37163E+5  -1.80999E+5
  -1.32194E+5  -1.76715E+5
  -1.27283E+5  -1.72030E+5
  -1.22926E+5  -1.68215E+5
  -1.18825E+5  -1.65124E+5
  -1.15026E+5  -1.61406E+5
  -1.10776E+5  -1.56532E+5
  -1.07079E+5  -1.52326E+5
  -1.03456E+5  -1.48695E+5
  -9.98480E+4  -1.45116E+5
  -9.64829E+4  -1.40341E+5
  -9.39234E+4  -1.35604E+5
  -9.03592E+4  -1.31384E+5
  -8.73774E+4  -1.27469E+5
  -8.50155E+4  -1.23474E+5
  -8.20986E+4  -1.19265E+5
  -7.90614E+4  -1.14588E+5
  -7.60080E+4  -1.10164E+5
  -7.37984E+4  -1.06068E+5
  -7.15350E+4  -1.02716E+5
  -6.89145E+4  -9.88668E+4
  -6.63621E+4  -9.44818E+4
  -6.40678E+4  -9.03394E+4
  -6.19968E+4  -8.72187E+4
  -5.96028E+4  -8.35672E+4
  -5.74192E+4  -7.94340E+4
  -5.57340E+4  -7.55158E+4
  -5.38793E+4  -7.20445E+4
  -5.22421E+4  -6.87197E+4
  -5.05787E+4  -6.53598E+4
  -4.91431E+4  -6.17424E+4
  -4.74412E+4  -5.85465E+4
  -4.58161E+4  -5.56401E+4
  -4.41396E+4  -5.24739E+4
  -4.30141E+4  -4.93141E+4
  -4.20656E+4  -4.61735E+4
  -4.07520E+4  -4.33192E+4
  -3.92677E+4  -4.03757E+4
  -3.82087E+4  -3.79643E+4
  -3.76118E+4  -3.54698E+4
  -3.64658E+4  -3.23727E+4
  -3.56503E+4  -2.99751E+4
  -3.48217E+4  -2.74107E+4
  -3.43455E+4  -2.52762E+4
  -3.37965E+4  -2.27938E+4
  -3.35222E+4  -2.05857E+4
  -3.27230E+4  -1.80386E+4
  -3.21336E+4  -1.62135E+4
  -3.16152E+4  -1.42353E+4
  -3.13224E+4  -1.20706E+4
  -3.12985E+4  -1.00998E+4
  -3.10934E+4  -8.11872E+3
  -3.06957E+4  -6.66785E+3
  -3.10719E+4  -5.06495E+3
  -3.10316E+4  -3.14787E+3
  -3.11868E+4  -1.52101E+3
  -3.12821E+4   4.19982E+1
  -3.11052E+4   1.59270E+3
  -3.10272E+4   2.89700E+3
  -3.14856E+4   4.25896E+3
  -3.21392E+4   5.61146E+3
  -3.22609E+4   7.06949E+3
  -3.24648E+4   8.27424E+3
  -3.25623E+4   9.37882E+3
  -3.29016E+4   1.04603E+4
  -3.35052E+4   1.18763E+4
  -3.39259E+4   1.29131E+4
  -3.42401E+4   1.40353E+4
  -3.44000E+4   1.46928E+4
  -3.49290E+4   1.54763E+4
  -3.53931E+4   1.64854E+4
  -3.59335E+4   1.74446E+4
  -3.63259E+4   1.83803E+4
  -3.67770E+4   1.89558E+4
  -3.72379E+4   1.96946E+4
  -3.77632E+4   2.01530E+4
  -3.82989E+4   2.09736E+4
  -3.87935E+4   2.13217E+4
  -3.92705E+4   2.17306E+4
  -3.99163E+4   2.22354E+4
  -4.04355E+4   2.24707E+4
  -4.10010E+4   2.27284E+4
  -4.15705E+4   2.32321E+4
  -4.20576E+4   2.32691E+4
  -4.26763E+4   2.34462E+4
  -4.32526E+4   2.34447E+4
  -4.37349E+4   2.36373E+4
  -4.42772E+4   2.36240E+4
  -4.49776E+4   2.36553E+4
  -4.54569E+4   2.35997E+4
  -4.61043E+4   2.33377E+4
  -4.68042E+4   2.32799E+4
  -4.73183E+4   2.32906E+4
  -4.77016E+4   2.30121E+4
  -4.83633E+4   2.30560E+4
  -4.90353E+4   2.27554E+4
  -4.95736E+4   2.29073E+4
  -5.01187E+4   2.24485E+4
  -5.09676E+4   2.22769E+4
  -5.13268E+4   2.20946E+4
  -5.20502E+4   2.17411E+4
  -5.27489E+4   2.13983E+4
  -5.33192E+4   2.10011E+4
  -5.35626E+4   2.07424E+4
  -5.42857E+4   2.02383E+4
  -5.47856E+4   1.97842E+4
  -5.53538E+4   1.94081E+4
  -5.59328E+4   1.90721E+4
  -5.65697E+4   1.87856E+4
  -5.68925E+4   1.82173E+4
  -5.71392E+4   1.76744E+4
  -5.78863E+4   1.75224E+4
  -5.82883E+4   1.69005E+4
  -5.86492E+4   1.64507E+4
  -5.91018E+4   1.57489E+4
  -5.94379E+4   1.52963E+4
  -5.98687E+4   1.50635E+4
  -6.04629E+4   1.44426E+4
  -6.05783E+4   1.39136E+4
  -6.07802E+4   1.31255E+4
  -6.12557E+4   1.27355E+4
  -6.18073E+4   1.21256E+4
  -6.19501E+4   1.13664E+4
  -6.18947E+4   1.08300E+4
  -6.20294E+4   1.04200E+4
  -6.22214E+4   9.72082E+3
  -6.25064E+4   9.29678E+3
  -6.26019E+4   8.74992E+3
  -6.26220E+4   8.32664E+3
  -6.29124E+4   7.48184E+3
  -6.28591E+4   6.97668E+3
  -6.28239E+4   6.32645E+3
  -6.27917E+4   5.53113E+3
  -6.25820E+4   4.83840E+3
  -6.25515E+4   4.41322E+3
  -6.25496E+4   3.63604E+3
  -6.24769E+4   3.00675E+3
  -6.23365E+4   2.18653E+3
  -6.22302E+4   1.46741E+3
  -6.21831E+4   1.15899E+3
  -6.16236E+4   3.18275E+2
  -6.15111E+4  -2.56829E+2
  -6.12972E+4  -8.80291E+2
  -6.11791E+4  -1.30734E+3
  -6.07924E+4  -1.91473E+3
  -6.04371E+4  -2.68147E+3
  -6.02071E+4  -3.43369E+3
  -5.98778E+4  -4.08161E+3
  -5.93181E+4  -4.46339E+3
  -5.91037E+4  -5.30620E+3
  -5.89044E+4  -6.01547E+3
  -5.82929E+4  -6.51127E+3
  -5.79202E+4  -7.23546E+3
  -5.72795E+4  -7.65749E+3
  -5.70122E+4  -8.75011E+3
  -5.64994E+4  -9.11904E+3
  -5.60232E+4  -9.72140E+3
  -5.56358E+4  -1.03879E+4
  -5.51749E+4  -1.07162E+4
  -5.46787E+4  -1.17000E+4
  -5.42903E+4  -1.22082E+4
  -5.35368E+4  -1.31854E+4
  -5.29667E+4  -1.35492E+4
  -5.23925E+4  -1.39781E+4
  -5.17788E+4  -1.47423E+4
  -5.14078E+4  -1.53090E+4
  -5.07127E+4  -1.60709E+4
  -5.01789E+4  -1.66267E+4
  -4.95413E+4  -1.74753E+4
  -4.89187E+4  -1.83781E+4
  -4.85284E+4  -1.86844E+4
  -4.77061E+4  -1.91062E+4
  -4.73029E+4  -2.02148E+4
  -4.64818E+4  -2.06968E+4
  -4.61046E+4  -2.11577E+4
  -4.52636E+4  -2.20116E+4
  -4.44144E+4  -2.26930E+4
  -4.39109E+4  -2.30274E+4
  -4.34513E+4  -2.34580E+4
  -4.25823E+4  -2.39591E+4
  -4.18788E+4  -2.45485E+4
  -4.10467E+4  -2.51006E+4
  -4.05891E+4  -2.57347E+4
  -4.01840E+4  -2.61697E+4
  -3.92675E+4  -2.65867E+4
  -3.84050E+4  -2.70733E+4
  -3.79309E+4  -2.74550E+4
  -3.74038E+4  -2.80510E+4
  -3.64248E+4  -2.85389E+4
  -3.56513E+4  -2.88552E+4
  -3.53275E+4  -2.93976E+4
  -3.46694E+4  -2.96424E+4
  -3.38687E+4  -2.99218E+4
  -3.29337E+4  -3.01933E+4
  -3.25455E+4  -3.02785E+4
  -3.18121E+4  -3.06794E+4
  -3.12975E+4  -3.10717E+4
  -3.05185E+4  -3.11174E+4
  -2.98825E+4  -3.16663E+4
  -2.90744E+4  -3.16819E+4
  -2.85302E+4  -3.18411E+4
  -2.74625E+4  -3.18283E+4
  -2.71765E+4  -3.23920E+4
  -2.64642E+4  -3.23473E+4
  -2.55803E+4  -3.26874E+4
  -2.49687E+4  -3.25274E+4
  -2.41516E+4  -3.29007E+4
  -2.33346E+4  -3.28155E+4
  -2.25253E+4  -3.28408E+4
  -2.20979E+4  -3.29972E+4
  -2.13071E+4  -3.29674E+4
  -2.08573E+4  -3.30127E+4
  -1.98655E+4  -3.30455E+4
  -1.89680E+4  -3.30161E+4
  -1.87789E+4  -3.29739E+4
  -1.77374E+4  -3.30267E+4
  -1.71666E+4  -3.31694E+4
  -1.63942E+4  -3.28668E+4
  -1.55036E+4  -3.30844E+4
  -1.50706E+4  -3.27388E+4
  -1.42117E+4  -3.27050E+4
  -1.35977E+4  -3.27431E+4
  -1.27130E+4  -3.25647E+4
  -1.20950E+4  -3.27786E+4
  -1.14251E+4  -3.25030E+4
  -1.08812E+4  -3.23636E+4
  -1.00925E+4  -3.24137E+4
  -9.57518E+3  -3.23470E+4
  -8.65809E+3  -3.19933E+4
  -8.10982E+3  -3.18829E+4
  -7.40887E+3  -3.18213E+4
  -6.82810E+3  -3.17050E+4
  -5.85684E+3  -3.13928E+4
  -5.34050E+3  -3.12294E+4
  -4.82584E+3  -3.15299E+4
  -4.00306E+3  -3.12310E+4
  -3.38234E+3  -3.06917E+4
  -2.68785E+3  -3.04862E+4
  -2.09318E+3  -3.03227E+4
  -1.58205E+3  -2.99950E+4
  -9.49864E+2  -2.97118E+4
  -3.34137E+2  -2.95542E+4
   3.00386E+2  -2.94822E+4
   8.33826E+2  -2.92362E+4
   1.55547E+3  -2.92199E+4
   1.89279E+3  -2.84993E+4
   2.53116E+3  -2.87689E+4
   3.07184E+3  -2.80296E+4
   3.56031E+3  -2.80855E+4
   4.05166E+3  -2.76821E+4
   4.73345E+3  -2.71664E+4
   5.14900E+3  -2.70610E+4
   5.62715E+3  -2.64400E+4
   6.10614E+3  -2.63211E+4
   6.78080E+3  -2.59052E+4
   7.01802E+3  -2.53762E+4
   7.34160E+3  -2.50170E+4
   7.81200E+3  -2.48468E+4
   8.21031E+3  -2.45406E+4
   8.58785E+3  -2.41218E+4
   9.06722E+3  -2.34862E+4
   9.52334E+3  -2.30604E+4
   9.75435E+3  -2.28153E+4
   1.03366E+4  -2.22333E+4
   1.06741E+4  -2.20010E+4
   1.09373E+4  -2.16856E+4
   1.12034E+4  -2.13937E+4
   1.16647E+4  -2.07706E+4
   1.21509E+4  -2.05114E+4
   1.23380E+4  -1.99299E+4
   1.27443E+4  -1.96106E+4
   1.30296E+4  -1.90069E+4
   1.34301E+4  -1.86334E+4
   1.37436E+4  -1.83107E+4
   1.40336E+4  -1.78356E+4
