 LCModel (Version 6.3-1N) Copyright: S.W. Provencher.          Ref.: Magn. Reson. Med. 30:672-679 (1993).                
 Slice_N1@23_22  28-Feb-2025 11:43:41
 27 lines in following concentration table = NCONC+1
    Conc.  %SD /Cr+PCr  Metabolite                                         
 6.02E-05  40% 9.5E-05 Mac                                                 
    5.076  38%   8.000 Cr                                                  
    0.000 999%   0.000 PCr                                                 
   39.535   7%  62.304 Ins                                                 
   17.304  10%  27.270 NAA                                                 
    0.000 999%   0.000 Tau                                                 
    0.000 999%   0.000 PCho                                                
    0.000 999%   0.000 GPC                                                 
   16.580  22%  26.129 Glu                                                 
    0.000 999%   0.000 Gln                                                 
    0.000 999%   0.000 Ala                                                 
   94.104   8% 148.303 Asc                                                 
    0.278 415%   0.439 Asp                                                 
    1.428  47%   2.250 GABA                                                
    0.828  85%   1.305 Glc                                                 
    1.718  78%   2.708 GSH                                                 
   18.299  11%  28.839 Lac                                                 
    0.000 999%   0.000 NAAG                                                
    0.000 999%   0.000 PE                                                  
    0.000 999%   0.000 GPC+PCho                                            
   17.304  10%  27.270 NAA+NAAG                                            
   16.580  22%  26.129 Glu+Gln                                             
    5.076  38%   8.000 Cr+PCr                                              
   17.304  10%  27.270 NAA+NAAG                                            
    5.076  38%   8.000 Cr+PCr                                              
   16.580  22%  26.129 Glu+Gln                                             
   6 lines in following misc. output table
  FWHM = 0.195 ppm    S/N =   3                                            
  Data shift = 0.041 ppm                                                   
  Ph:  21 deg       0.0 deg/ppm                                            
  alphaB,S = 1.9E-01,   5.1E+01                                            
   13 spline knots.   Ns = 9(2)                                            
  (15) 7 infls.   (11) 5 extrs.                                            
  480 points on ppm-axis = NY
      4.100000     4.091866     4.083733     4.075600     4.067466     4.059333     4.051199     4.043066     4.034933     4.026799
      4.018666     4.010532     4.002399     3.994265     3.986132     3.977998     3.969864     3.961731     3.953597     3.945463
      3.937330     3.929196     3.921062     3.912929     3.904795     3.896662     3.888528     3.880394     3.872261     3.864127
      3.855993     3.847860     3.839726     3.831592     3.823459     3.815325     3.807191     3.799058     3.790924     3.782790
      3.774657     3.766523     3.758389     3.750256     3.742122     3.733989     3.725855     3.717721     3.709588     3.701454
      3.693320     3.685187     3.677053     3.668919     3.660786     3.652652     3.644518     3.636385     3.628251     3.620117
      3.611984     3.603850     3.595716     3.587583     3.579449     3.571316     3.563182     3.555048     3.546915     3.538781
      3.530647     3.522514     3.514380     3.506246     3.498113     3.489979     3.481845     3.473712     3.465578     3.457444
      3.449311     3.441177     3.433043     3.424910     3.416776     3.408643     3.400509     3.392375     3.384242     3.376108
      3.367974     3.359841     3.351707     3.343573     3.335440     3.327306     3.319172     3.311039     3.302905     3.294771
      3.286638     3.278504     3.270370     3.262237     3.254103     3.245970     3.237836     3.229702     3.221569     3.213435
      3.205301     3.197168     3.189034     3.180900     3.172767     3.164633     3.156499     3.148366     3.140232     3.132098
      3.123965     3.115831     3.107697     3.099564     3.091430     3.083297     3.075163     3.067029     3.058896     3.050762
      3.042628     3.034495     3.026361     3.018227     3.010094     3.001960     2.993826     2.985693     2.977559     2.969425
      2.961292     2.953158     2.945024     2.936891     2.928757     2.920624     2.912490     2.904356     2.896223     2.888089
      2.879955     2.871822     2.863688     2.855554     2.847421     2.839287     2.831153     2.823020     2.814886     2.806752
      2.798619     2.790485     2.782351     2.774218     2.766084     2.757951     2.749817     2.741683     2.733550     2.725416
      2.717282     2.709149     2.701015     2.692881     2.684748     2.676614     2.668480     2.660347     2.652213     2.644079
      2.635946     2.627812     2.619678     2.611545     2.603411     2.595278     2.587144     2.579010     2.570877     2.562743
      2.554609     2.546476     2.538342     2.530208     2.522075     2.513941     2.505807     2.497674     2.489540     2.481406
      2.473273     2.465139     2.457006     2.448872     2.440738     2.432605     2.424471     2.416337     2.408204     2.400070
      2.391936     2.383803     2.375669     2.367535     2.359402     2.351268     2.343134     2.335001     2.326867     2.318733
      2.310600     2.302466     2.294333     2.286199     2.278065     2.269932     2.261798     2.253664     2.245531     2.237397
      2.229263     2.221130     2.212996     2.204862     2.196729     2.188595     2.180461     2.172328     2.164194     2.156060
      2.147927     2.139793     2.131660     2.123526     2.115392     2.107259     2.099125     2.090991     2.082858     2.074724
      2.066590     2.058457     2.050323     2.042189     2.034056     2.025922     2.017788     2.009655     2.001521     1.993387
      1.985254     1.977120     1.968987     1.960853     1.952719     1.944586     1.936452     1.928318     1.920185     1.912051
      1.903917     1.895784     1.887650     1.879516     1.871383     1.863249     1.855115     1.846982     1.838848     1.830714
      1.822581     1.814447     1.806314     1.798180     1.790046     1.781913     1.773779     1.765645     1.757512     1.749378
      1.741244     1.733111     1.724977     1.716843     1.708710     1.700576     1.692442     1.684309     1.676175     1.668041
      1.659908     1.651774     1.643641     1.635507     1.627373     1.619240     1.611106     1.602972     1.594839     1.586705
      1.578571     1.570438     1.562304     1.554170     1.546037     1.537903     1.529769     1.521636     1.513502     1.505368
      1.497235     1.489101     1.480968     1.472834     1.464700     1.456567     1.448433     1.440299     1.432166     1.424032
      1.415898     1.407765     1.399631     1.391497     1.383364     1.375230     1.367096     1.358963     1.350829     1.342695
      1.334562     1.326428     1.318295     1.310161     1.302027     1.293894     1.285760     1.277626     1.269493     1.261359
      1.253225     1.245092     1.236958     1.228824     1.220691     1.212557     1.204423     1.196290     1.188156     1.180022
      1.171889     1.163755     1.155622     1.147488     1.139354     1.131221     1.123087     1.114953     1.106820     1.098686
      1.090552     1.082419     1.074285     1.066151     1.058018     1.049884     1.041750     1.033617     1.025483     1.017349
      1.009216     1.001082     0.992949     0.984815     0.976681     0.968548     0.960414     0.952280     0.944147     0.936013
      0.927879     0.919746     0.911612     0.903478     0.895345     0.887211     0.879077     0.870944     0.862810     0.854676
      0.846543     0.838409     0.830276     0.822142     0.814008     0.805875     0.797741     0.789607     0.781474     0.773340
      0.765206     0.757073     0.748939     0.740805     0.732672     0.724538     0.716404     0.708271     0.700137     0.692003
      0.683870     0.675736     0.667603     0.659469     0.651335     0.643202     0.635068     0.626934     0.618801     0.610667
      0.602533     0.594400     0.586266     0.578132     0.569999     0.561865     0.553731     0.545598     0.537464     0.529330
      0.521197     0.513063     0.504930     0.496796     0.488662     0.480529     0.472395     0.464261     0.456128     0.447994
      0.439861     0.431727     0.423593     0.415460     0.407326     0.399192     0.391059     0.382925     0.374792     0.366658
      0.358524     0.350391     0.342257     0.334124     0.325990     0.317856     0.309723     0.301589     0.293455     0.285322
      0.277188     0.269055     0.260921     0.252787     0.244654     0.236520     0.228386     0.220253     0.212119     0.203986
 NY phased data points follow
   9.89113E+01  1.19487E+02  1.43236E+02  1.51742E+02  1.76017E+02  1.73973E+02  1.82696E+02  2.00086E+02  2.18766E+02  2.25956E+02
   2.46076E+02  2.41511E+02  2.54227E+02  2.61635E+02  2.24259E+02  2.21414E+02  1.84450E+02  1.61258E+02  1.39902E+02  1.01756E+02
   8.81214E+01  8.19352E+01  6.90461E+01  5.52957E+01  4.65392E+01  3.46423E+01  3.43587E+01  2.17128E+01  2.66816E+01  2.14479E+01
   1.60821E+01  8.51731E+00  1.42414E+01  3.39672E+01  1.37640E+01  1.21240E+01  1.19526E+01  1.44361E+01 -1.12156E+01 -1.07702E+01
   1.53322E+01  2.05980E+01  2.57219E+01  8.86430E+00  1.84417E+01  5.17569E-01 -3.39723E+00  7.59405E+00 -4.02645E+00  4.97698E+00
  -8.97849E+00 -7.92554E+00  5.64854E+00 -3.92253E+00  1.12588E+01  1.24446E+01 -5.47970E+00  1.55016E+01  2.04538E+01  1.84172E+01
   6.31618E+00  9.30594E+00  2.71432E+01  1.65316E+01  1.53401E+01  3.52740E+00  4.75651E+00  8.63441E+00  2.00983E+01  1.92383E+01
   2.16003E+01  3.47461E+01  1.59086E+01  2.61949E+01  2.27466E+01  1.46946E+01  2.40003E+01  2.11739E+01  3.16268E+01  5.97525E+01
   4.96242E+01  3.77259E+01  4.81209E+01  3.28130E+01  4.75797E+01  5.71023E+01  5.55611E+01  6.24983E+01  6.71609E+01  7.11524E+01
   7.59550E+01  7.87325E+01  7.40624E+01  8.49494E+01  8.05892E+01  7.85219E+01  6.40441E+01  6.44921E+01  6.86736E+01  5.42807E+01
   6.15372E+01  5.56629E+01  5.31171E+01  4.77150E+01  5.47936E+01  5.06980E+01  2.50131E+01  6.96687E+00  1.58644E+01  3.37147E+01
   1.65467E+01  1.37472E+01  1.89794E+01  3.29087E+01  2.77609E+01  2.99819E+01  3.59269E+01  2.69598E+01  4.02348E+01  3.19611E+01
   5.56653E+01  5.99741E+01  5.26820E+01  6.36862E+01  5.78453E+01  7.50982E+01  6.77260E+01  7.49955E+01  6.43805E+01  2.76925E+01
   1.73943E+01  1.97580E+01  4.46762E+01  3.45857E+01  3.10495E+01  2.70459E+01  1.83920E+00  1.31937E+01  2.81605E+00 -6.20295E+00
   4.13805E+00 -6.56066E+00 -3.56117E+00 -1.92886E+01 -2.08487E+01  8.49484E+00 -8.39882E+00 -3.18781E+00  1.38148E+00 -1.42476E+01
  -3.43588E+00 -6.63348E+00 -2.22618E+01 -1.89703E+01 -1.13073E+00 -1.64511E+01 -2.85150E+00  4.85020E+00 -8.29997E+00 -7.95165E+00
  -1.00790E+01  1.46983E+01 -9.18993E+00  4.10902E+00  9.75769E+00 -6.74637E+00  1.60870E+00 -7.73425E+00  1.86884E+01 -8.18832E+00
   2.72177E+00  8.86026E+00  3.49633E+00  2.26537E+01 -5.97732E+00  1.50830E+01 -7.63445E+00 -1.28027E+01  7.45457E+00 -9.51094E+00
  -8.25541E+00 -1.28019E+01 -1.03429E+00  1.50403E+01  9.70600E+00 -2.12345E+01 -1.54042E+01 -1.35995E+01 -3.24191E+01 -2.27611E+01
  -2.08266E+01 -6.35234E+00  2.74647E+00 -1.64555E+01 -1.75882E+01 -1.79345E+01 -2.23583E+01  8.29260E+00 -6.11205E+00 -2.10987E+01
  -1.94912E+00 -2.74555E+01 -3.35000E+01 -9.80669E+00 -5.16672E+00 -2.62315E+01 -2.15323E+01 -4.78414E+00 -1.84403E+01 -3.70140E+00
   1.34587E+01  2.80555E+00  1.03233E+01  2.12463E+01  1.85083E+01  1.13257E+01  8.85148E-01 -5.47213E-01  1.70695E+01  2.16169E+01
   8.30268E+00  2.36229E+01  1.55321E+01  1.37081E+01  2.01949E+01 -5.51879E+00  3.15647E+00  6.39085E+00 -5.81527E-01 -2.15728E+01
  -1.45557E+01 -1.03090E+00 -2.60620E+01 -1.53469E+01 -3.43862E+01 -4.86662E+01 -4.29112E+01 -5.22330E+01 -4.04972E+01 -4.42950E+01
  -4.52086E+01 -4.55238E+01 -5.98957E+01 -5.72094E+01 -7.09814E+01 -6.56575E+01 -3.61893E+01 -5.36848E+01 -5.21204E+01 -4.42064E+01
  -5.39779E+01 -5.73109E+01 -5.31326E+01 -4.01476E+01 -1.75827E+01  3.60286E+01  2.26906E+01 -5.83993E-01  3.76953E+00 -4.24744E+00
   1.90679E+01  1.24817E+01  2.04425E+01  3.70954E+01  3.48676E+01  3.08690E+01  1.83004E+01  4.59223E+01  5.40796E+01  4.58570E+01
   5.42328E+01  4.43882E+01  3.38455E+01  4.55184E+01  5.64218E+01  4.84941E+01  6.25901E+01  5.35990E+01  3.68581E+01  4.52535E+01
   4.20716E+01  5.40323E+01  5.04787E+01  6.11823E+01  5.42630E+01  3.39593E+01  5.84763E+01  4.64273E+01  2.78092E+01  2.48029E+01
   3.61246E+01  4.18795E+01  3.11064E+01  3.73205E+01  4.21120E+01  4.22042E+01  3.42754E+01  3.10053E+01  2.77731E+01  2.85559E+01
   3.19767E+01  3.32863E+01  3.70027E+01  3.67754E+01  4.16572E+01  4.81954E+01  3.12191E+01  3.20721E+01  5.98978E+01  4.46159E+01
   4.01127E+01  4.90257E+01  4.95973E+01  5.08875E+01  6.22686E+01  7.59260E+01  8.00569E+01  9.45406E+01  7.53171E+01  9.16778E+01
   1.15833E+02  1.22639E+02  1.23213E+02  1.03555E+02  1.05825E+02  8.80758E+01  9.83953E+01  8.86696E+01  6.43672E+01  7.43114E+01
   6.42484E+01  6.10282E+01  6.44729E+01  5.59180E+01  4.49274E+01  4.29758E+01  2.65786E+01  2.82185E+01  3.60483E+01  1.94060E+01
   2.18942E+01  4.41134E+01  3.22443E+01  3.34295E+01  4.86245E+01  1.93206E+01  2.85388E+01  3.07067E+01  3.53619E+01  3.99859E+01
   2.92681E+01  4.51707E+01  3.26713E+01  3.23220E+01  2.23312E+01  1.42811E+01  1.98191E+01  2.21626E+01  2.00443E+01  3.76882E+00
   1.05431E+01  1.95367E+01  2.67058E+01  3.79324E+01  3.37906E+01  1.66086E+01  1.92786E+01  1.17561E+01  2.56056E+01  3.29742E+01
   5.53574E+00  1.71181E+01  2.74775E+01  4.72711E+01  4.76265E+01  5.71874E+01  6.39257E+01  4.64612E+01  7.05856E+01  6.81656E+01
   7.00306E+01  8.09834E+01  8.15272E+01  9.16641E+01  9.16821E+01  9.24448E+01  9.93500E+01  9.10458E+01  7.38874E+01  7.67029E+01
   7.45912E+01  7.51378E+01  6.16736E+01  5.44853E+01  6.76126E+01  5.82174E+01  4.91801E+01  3.80213E+01  4.53646E+01  5.27333E+01
   3.89826E+01  2.44994E+01  1.63506E+01  2.62234E+01  1.88065E+01  1.25350E+01  1.73581E+01  2.68159E+01  1.86708E+01 -5.91835E+00
   7.53495E+00  6.25442E+00  5.88244E+00  9.60832E+00  6.23993E+00  1.91782E+01  4.68028E+00  2.91724E+00 -1.75727E-01 -6.00011E+00
   2.75979E-01  9.21843E+00  2.29587E+01  1.15092E+01  1.30391E+01 -1.00384E+01 -9.95170E+00  1.94927E+01 -8.36020E+00  5.72536E+00
   1.84246E+01 -6.13084E+00 -5.50170E+00  7.60712E+00  1.19885E+01 -6.95729E+00  5.80055E+00  7.16438E+00  9.36710E+00  2.87053E+01
   1.66791E+00  2.05448E+00 -2.22462E-02 -9.28719E-01  2.09648E+01  5.27229E+00  2.34344E-01  7.41793E+00 -4.90347E+00  6.78618E+00
   1.08144E+01 -1.10815E+01  1.38864E+01  7.59753E+00 -4.96374E+00  1.62884E+01  1.12418E+01  3.45925E+00 -9.43126E+00  7.07411E+00
   8.21734E+00  1.09937E+01  1.40717E+01  3.11927E-01  7.51565E+00 -6.66394E+00  4.82295E+00  2.11088E+01  1.58662E+01  6.93847E+00
   6.72211E+00  1.26167E+01  8.72006E+00 -4.14092E+00  1.91474E+00  9.33591E+00 -2.17628E+00  1.82456E+01  3.37560E+00  8.94234E+00
 NY points of the fit to the data follow
   1.27463E+02  1.33911E+02  1.36543E+02  1.46674E+02  1.50229E+02  1.60835E+02  1.66429E+02  1.75144E+02  1.79867E+02  1.86872E+02
   1.90971E+02  1.96915E+02  1.98749E+02  2.00816E+02  1.98717E+02  1.94811E+02  1.91137E+02  1.83961E+02  1.80236E+02  1.73873E+02
   1.65907E+02  1.51658E+02  1.19511E+02  9.67703E+01  6.77483E+01  4.86159E+01  3.61783E+01  2.71759E+01  2.37303E+01  1.70715E+01
   1.75603E+01  1.09469E+01  1.04405E+01  2.67723E+00  3.08312E-02 -8.03547E+00 -7.48088E+00 -1.12463E+01 -2.27470E+00 -3.90796E+00
   7.84125E+00  8.77852E+00  8.27190E+00  6.21824E+00  1.27317E+01  5.65045E+00  1.59091E+01  1.57147E+01  2.41550E+01  2.43655E+01
   2.71865E+01  2.31577E+01  1.51424E+01  1.44358E-01 -1.81559E+00 -1.35655E+01 -1.19926E+01 -1.60173E+01 -4.79485E+00 -2.55722E+00
   1.00245E+01  1.42891E+01  2.07331E+01  2.14626E+01  2.38654E+01  1.98288E+01  2.06915E+01  1.64806E+01  1.69103E+01  1.62650E+01
   1.60219E+01  1.65956E+01  1.86465E+01  1.88680E+01  2.40499E+01  2.76338E+01  3.52632E+01  4.24915E+01  5.08949E+01  5.82769E+01
   6.48708E+01  7.00296E+01  7.32503E+01  7.16583E+01  7.61638E+01  7.05073E+01  6.91749E+01  6.81660E+01  6.54685E+01  6.54698E+01
   6.48743E+01  6.55628E+01  6.54106E+01  6.49963E+01  6.46384E+01  6.22897E+01  6.07427E+01  5.69474E+01  5.39572E+01  5.09161E+01
   4.67140E+01  4.47396E+01  4.17390E+01  3.97653E+01  3.84598E+01  3.74384E+01  3.62915E+01  3.67738E+01  3.62031E+01  3.71619E+01
   3.81400E+01  3.87850E+01  4.13940E+01  4.42129E+01  4.53771E+01  4.16685E+01  4.18428E+01  3.57365E+01  3.63869E+01  3.14896E+01
   3.33257E+01  2.96814E+01  3.29550E+01  2.96397E+01  3.36739E+01  3.03652E+01  3.35292E+01  2.88073E+01  3.10576E+01  2.46096E+01
   2.64452E+01  2.06994E+01  2.23439E+01  1.76149E+01  1.88895E+01  1.39772E+01  1.48564E+01  1.05702E+01  1.12791E+01  8.51658E+00
   9.27292E+00  7.23445E+00  7.88824E+00  4.83649E+00  5.20409E+00  1.52663E+00  1.53884E+00 -1.96408E+00 -2.17229E+00 -4.78465E+00
  -5.04103E+00 -6.26269E+00 -6.33670E+00 -5.71022E+00 -4.01045E+00 -3.04780E+00 -2.16290E+00 -1.85594E+00 -5.21375E-01  1.87694E+00
   3.73101E+00  4.47075E+00  5.23187E+00  4.62400E+00  4.80195E+00  3.97375E+00  4.18404E+00  3.31144E+00  3.38339E+00  2.33286E+00
   2.11324E+00  1.03061E+00  7.88509E-01 -3.93349E-01 -1.20171E+00 -2.94455E+00 -3.21603E+00 -3.58138E+00 -4.87265E+00 -4.02626E+00
  -3.98138E+00 -3.37313E+00 -2.79388E+00 -3.57431E+00 -2.66044E+00 -3.09809E+00 -2.92835E+00 -3.21294E+00 -3.75868E+00 -4.53304E+00
  -5.93539E+00 -7.30538E+00 -9.48364E+00 -1.18058E+01 -1.46436E+01 -1.74828E+01 -1.84727E+01 -2.17861E+01 -1.70936E+01 -1.85572E+01
  -1.26466E+01 -1.11151E+01 -7.46204E+00 -6.02167E+00 -4.16149E+00 -2.63918E+00 -1.76555E+00 -3.65893E-01  1.02117E+00  1.72849E+00
   4.30088E+00  4.57632E+00  7.01081E+00  7.45641E+00  7.79794E+00  7.82780E+00  6.57078E+00  5.64297E+00  3.65471E+00  2.06119E+00
  -7.29478E-01 -2.56246E+00 -6.19369E+00 -8.53092E+00 -1.17363E+01 -1.40105E+01 -1.61118E+01 -1.69515E+01 -1.89618E+01 -1.84683E+01
  -2.10768E+01 -2.10913E+01 -2.44139E+01 -2.50487E+01 -3.03579E+01 -3.10864E+01 -3.95894E+01 -4.37156E+01 -6.24716E+01 -6.64324E+01
  -6.42584E+01 -6.51096E+01 -5.40293E+01 -5.46834E+01 -4.37731E+01 -4.52012E+01 -3.56438E+01 -3.76469E+01 -3.00605E+01 -3.28349E+01
  -2.63742E+01 -2.95328E+01 -1.90205E+01 -2.13618E+01 -6.02135E+00 -7.69667E+00  5.42119E+00  3.40539E+00  1.35979E+01  1.14594E+01
   2.27018E+01  2.07647E+01  3.04906E+01  2.80585E+01  3.30747E+01  2.97915E+01  3.22971E+01  2.93142E+01  3.50310E+01  3.30639E+01
   4.08969E+01  3.95518E+01  4.73995E+01  4.63394E+01  5.21409E+01  5.10869E+01  5.31533E+01  5.17908E+01  5.05998E+01  4.93033E+01
   4.85054E+01  4.75646E+01  4.71663E+01  4.65384E+01  4.64378E+01  4.61416E+01  4.62607E+01  4.62816E+01  4.65291E+01  4.67965E+01
   4.71111E+01  4.75401E+01  4.79382E+01  4.84470E+01  4.89580E+01  4.95362E+01  5.01223E+01  5.07584E+01  5.14077E+01  5.20889E+01
   5.27793E+01  5.35048E+01  5.42225E+01  5.49997E+01  5.57282E+01  5.64917E+01  5.71981E+01  5.79391E+01  5.86365E+01  5.93870E+01
   6.01457E+01  6.09964E+01  6.19481E+01  6.30506E+01  6.43322E+01  6.58202E+01  6.75574E+01  6.96031E+01  7.20601E+01  7.51374E+01
   7.91221E+01  8.45747E+01  9.17827E+01  8.98029E+01  9.37545E+01  8.51497E+01  7.96401E+01  7.30840E+01  6.69874E+01  6.34470E+01
   5.93795E+01  5.75032E+01  5.48956E+01  5.35155E+01  5.17051E+01  4.87801E+01  4.59200E+01  4.11671E+01  3.58536E+01  3.24627E+01
   2.69920E+01  2.61259E+01  2.28491E+01  2.24157E+01  1.99165E+01  1.99513E+01  1.75789E+01  1.94906E+01  1.89628E+01  2.16621E+01
   2.28512E+01  2.36406E+01  2.39052E+01  2.30319E+01  2.11912E+01  2.06473E+01  1.83819E+01  1.93598E+01  1.80735E+01  2.09628E+01
   2.15822E+01  2.57117E+01  2.82071E+01  3.17935E+01  3.46790E+01  3.72330E+01  3.92907E+01  4.12092E+01  4.27136E+01  4.41875E+01
   4.52992E+01  4.64316E+01  4.72669E+01  4.81192E+01  4.86839E+01  4.92239E+01  4.94965E+01  4.96905E+01  4.96438E+01  4.95234E+01
   4.92101E+01  4.88322E+01  4.83315E+01  4.77793E+01  4.71659E+01  4.64853E+01  4.57787E+01  4.49879E+01  4.42060E+01  4.33451E+01
   4.25351E+01  4.16421E+01  4.08088E+01  3.98989E+01  3.90344E+01  3.80816E+01  3.71622E+01  3.61873E+01  3.52646E+01  3.42912E+01
   3.34055E+01  3.24785E+01  3.16609E+01  3.07938E+01  3.00363E+01  2.92252E+01  2.85165E+01  2.77618E+01  2.70921E+01  2.63876E+01
   2.57579E+01  2.51076E+01  2.45164E+01  2.39294E+01  2.33681E+01  2.28240E+01  2.22845E+01  2.17622E+01  2.12333E+01  2.07263E+01
   2.02057E+01  1.97002E+01  1.91824E+01  1.86697E+01  1.81543E+01  1.76523E+01  1.71367E+01  1.66467E+01  1.61400E+01  1.56402E+01
   1.51471E+01  1.46470E+01  1.41681E+01  1.36707E+01  1.32108E+01  1.27082E+01  1.22643E+01  1.17604E+01  1.13324E+01  1.08231E+01
   1.03980E+01  9.88769E+00  9.46320E+00  8.95146E+00  8.53326E+00  8.03154E+00  7.63175E+00  7.12915E+00  6.73784E+00  6.21466E+00
   5.82513E+00  5.29457E+00  4.90622E+00  4.37741E+00  3.98646E+00  3.47094E+00  3.06939E+00  2.55911E+00  2.16951E+00  1.66594E+00
   1.29893E+00  8.18527E-01  4.79938E-01  3.53056E-02 -2.61131E-01 -6.44616E-01 -8.76885E-01 -1.17768E+00 -1.30767E+00 -1.45308E+00
  -1.38820E+00 -1.26423E+00 -8.44607E-01 -1.87889E-01  9.72758E-01  2.75623E+00  5.63158E+00  1.02680E+01  1.83000E+01  3.34701E+01
 NY background values follow
     1.905E+02    1.887E+02    1.869E+02    1.852E+02    1.834E+02    1.817E+02    1.799E+02    1.782E+02    1.764E+02    1.747E+02
     1.729E+02    1.712E+02    1.694E+02    1.677E+02    1.659E+02    1.642E+02    1.625E+02    1.607E+02    1.590E+02    1.573E+02
     1.556E+02    1.539E+02    1.522E+02    1.504E+02    1.488E+02    1.471E+02    1.454E+02    1.437E+02    1.420E+02    1.404E+02
     1.387E+02    1.370E+02    1.354E+02    1.338E+02    1.321E+02    1.305E+02    1.289E+02    1.273E+02    1.257E+02    1.241E+02
     1.225E+02    1.210E+02    1.194E+02    1.179E+02    1.163E+02    1.148E+02    1.133E+02    1.118E+02    1.103E+02    1.088E+02
     1.073E+02    1.059E+02    1.044E+02    1.030E+02    1.016E+02    1.002E+02    9.876E+01    9.737E+01    9.599E+01    9.463E+01
     9.327E+01    9.192E+01    9.059E+01    8.926E+01    8.795E+01    8.665E+01    8.535E+01    8.407E+01    8.280E+01    8.154E+01
     8.029E+01    7.904E+01    7.781E+01    7.659E+01    7.538E+01    7.417E+01    7.298E+01    7.179E+01    7.062E+01    6.945E+01
     6.830E+01    6.715E+01    6.601E+01    6.489E+01    6.377E+01    6.266E+01    6.155E+01    6.046E+01    5.937E+01    5.830E+01
     5.723E+01    5.617E+01    5.512E+01    5.408E+01    5.304E+01    5.202E+01    5.100E+01    4.999E+01    4.898E+01    4.799E+01
     4.700E+01    4.602E+01    4.505E+01    4.409E+01    4.313E+01    4.218E+01    4.124E+01    4.031E+01    3.938E+01    3.846E+01
     3.755E+01    3.665E+01    3.575E+01    3.486E+01    3.398E+01    3.311E+01    3.224E+01    3.139E+01    3.053E+01    2.969E+01
     2.885E+01    2.802E+01    2.720E+01    2.638E+01    2.558E+01    2.478E+01    2.398E+01    2.319E+01    2.241E+01    2.164E+01
     2.087E+01    2.012E+01    1.936E+01    1.862E+01    1.788E+01    1.715E+01    1.642E+01    1.570E+01    1.499E+01    1.429E+01
     1.359E+01    1.290E+01    1.221E+01    1.153E+01    1.086E+01    1.020E+01    9.538E+00    8.886E+00    8.241E+00    7.602E+00
     6.971E+00    6.346E+00    5.727E+00    5.116E+00    4.512E+00    3.915E+00    3.325E+00    2.742E+00    2.166E+00    1.597E+00
     1.036E+00    4.814E-01   -6.536E-02   -6.047E-01   -1.137E+00   -1.661E+00   -2.178E+00   -2.687E+00   -3.189E+00   -3.683E+00
    -4.169E+00   -4.648E+00   -5.119E+00   -5.581E+00   -6.036E+00   -6.483E+00   -6.922E+00   -7.353E+00   -7.776E+00   -8.190E+00
    -8.597E+00   -8.995E+00   -9.385E+00   -9.766E+00   -1.014E+01   -1.050E+01   -1.086E+01   -1.121E+01   -1.155E+01   -1.188E+01
    -1.220E+01   -1.251E+01   -1.282E+01   -1.311E+01   -1.340E+01   -1.368E+01   -1.395E+01   -1.421E+01   -1.446E+01   -1.471E+01
    -1.494E+01   -1.517E+01   -1.539E+01   -1.560E+01   -1.581E+01   -1.600E+01   -1.619E+01   -1.637E+01   -1.654E+01   -1.671E+01
    -1.687E+01   -1.702E+01   -1.716E+01   -1.730E+01   -1.742E+01   -1.755E+01   -1.766E+01   -1.777E+01   -1.787E+01   -1.796E+01
    -1.805E+01   -1.813E+01   -1.820E+01   -1.827E+01   -1.833E+01   -1.838E+01   -1.843E+01   -1.847E+01   -1.851E+01   -1.854E+01
    -1.856E+01   -1.858E+01   -1.859E+01   -1.860E+01   -1.860E+01   -1.859E+01   -1.858E+01   -1.856E+01   -1.854E+01   -1.851E+01
    -1.848E+01   -1.844E+01   -1.840E+01   -1.835E+01   -1.829E+01   -1.823E+01   -1.816E+01   -1.809E+01   -1.801E+01   -1.793E+01
    -1.783E+01   -1.773E+01   -1.763E+01   -1.751E+01   -1.739E+01   -1.726E+01   -1.713E+01   -1.699E+01   -1.683E+01   -1.668E+01
    -1.651E+01   -1.633E+01   -1.615E+01   -1.596E+01   -1.575E+01   -1.554E+01   -1.532E+01   -1.510E+01   -1.486E+01   -1.461E+01
    -1.435E+01   -1.409E+01   -1.381E+01   -1.353E+01   -1.323E+01   -1.292E+01   -1.260E+01   -1.228E+01   -1.194E+01   -1.159E+01
    -1.123E+01   -1.085E+01   -1.047E+01   -1.007E+01   -9.668E+00   -9.249E+00   -8.819E+00   -8.376E+00   -7.921E+00   -7.454E+00
    -6.975E+00   -6.485E+00   -5.985E+00   -5.474E+00   -4.954E+00   -4.424E+00   -3.885E+00   -3.338E+00   -2.784E+00   -2.221E+00
    -1.652E+00   -1.076E+00   -4.943E-01    9.323E-02    6.859E-01    1.283E+00    1.885E+00    2.490E+00    3.099E+00    3.710E+00
     4.324E+00    4.940E+00    5.557E+00    6.175E+00    6.794E+00    7.413E+00    8.031E+00    8.649E+00    9.265E+00    9.880E+00
     1.049E+01    1.110E+01    1.171E+01    1.231E+01    1.291E+01    1.350E+01    1.409E+01    1.468E+01    1.526E+01    1.583E+01
     1.639E+01    1.695E+01    1.750E+01    1.804E+01    1.857E+01    1.910E+01    1.961E+01    2.012E+01    2.061E+01    2.109E+01
     2.157E+01    2.203E+01    2.248E+01    2.292E+01    2.335E+01    2.377E+01    2.418E+01    2.458E+01    2.496E+01    2.533E+01
     2.569E+01    2.604E+01    2.637E+01    2.669E+01    2.700E+01    2.730E+01    2.758E+01    2.785E+01    2.810E+01    2.834E+01
     2.857E+01    2.878E+01    2.898E+01    2.916E+01    2.933E+01    2.948E+01    2.962E+01    2.975E+01    2.985E+01    2.994E+01
     3.002E+01    3.008E+01    3.012E+01    3.015E+01    3.016E+01    3.015E+01    3.013E+01    3.008E+01    3.002E+01    2.995E+01
     2.985E+01    2.974E+01    2.961E+01    2.946E+01    2.929E+01    2.911E+01    2.891E+01    2.868E+01    2.845E+01    2.819E+01
     2.793E+01    2.764E+01    2.734E+01    2.703E+01    2.671E+01    2.637E+01    2.602E+01    2.565E+01    2.528E+01    2.490E+01
     2.450E+01    2.410E+01    2.368E+01    2.326E+01    2.283E+01    2.239E+01    2.194E+01    2.149E+01    2.103E+01    2.057E+01
     2.010E+01    1.962E+01    1.914E+01    1.866E+01    1.818E+01    1.769E+01    1.720E+01    1.671E+01    1.622E+01    1.573E+01
     1.524E+01    1.475E+01    1.426E+01    1.377E+01    1.328E+01    1.280E+01    1.232E+01    1.185E+01    1.138E+01    1.091E+01
     1.045E+01    9.994E+00    9.545E+00    9.103E+00    8.667E+00    8.237E+00    7.812E+00    7.394E+00    6.980E+00    6.572E+00
     6.169E+00    5.771E+00    5.377E+00    4.988E+00    4.603E+00    4.222E+00    3.845E+00    3.472E+00    3.102E+00    2.736E+00
     2.373E+00    2.013E+00    1.655E+00    1.301E+00    9.483E-01    5.981E-01    2.500E-01   -9.625E-02   -4.408E-01   -7.840E-01
    -1.126E+00   -1.467E+00   -1.806E+00   -2.145E+00   -2.484E+00   -2.822E+00   -3.160E+00   -3.498E+00   -3.836E+00   -4.175E+00
    -4.514E+00   -4.854E+00   -5.195E+00   -5.537E+00   -5.881E+00   -6.226E+00   -6.572E+00   -6.921E+00   -7.271E+00   -7.624E+00
 Mac      Conc. = 6.02E-05
   1.85374E+02  1.83631E+02  1.81924E+02  1.80215E+02  1.78525E+02  1.76842E+02  1.75195E+02  1.73552E+02  1.71958E+02  1.70364E+02
   1.68828E+02  1.67266E+02  1.65732E+02  1.64165E+02  1.62622E+02  1.61086E+02  1.59592E+02  1.58097E+02  1.56608E+02  1.55119E+02
   1.53624E+02  1.52136E+02  1.50661E+02  1.49175E+02  1.47721E+02  1.46229E+02  1.44780E+02  1.43282E+02  1.41820E+02  1.40321E+02
   1.38828E+02  1.37314E+02  1.35788E+02  1.34246E+02  1.32714E+02  1.31186E+02  1.29680E+02  1.28155E+02  1.26670E+02  1.25160E+02
   1.23667E+02  1.22159E+02  1.20648E+02  1.19136E+02  1.17632E+02  1.16129E+02  1.14633E+02  1.13137E+02  1.11681E+02  1.10256E+02
   1.08866E+02  1.07495E+02  1.06155E+02  1.04793E+02  1.03473E+02  1.02098E+02  1.00774E+02  9.94003E+01  9.80743E+01  9.67117E+01
   9.53959E+01  9.40734E+01  9.28026E+01  9.15245E+01  9.03066E+01  8.90655E+01  8.78840E+01  8.66653E+01  8.55062E+01  8.43062E+01
   8.31548E+01  8.19661E+01  8.08158E+01  7.96031E+01  7.84369E+01  7.71946E+01  7.60101E+01  7.47625E+01  7.35879E+01  7.23379E+01
   7.11543E+01  6.98839E+01  6.86586E+01  6.73210E+01  6.59804E+01  6.45386E+01  6.31167E+01  6.16440E+01  6.02264E+01  5.87947E+01
   5.74430E+01  5.60850E+01  5.47928E+01  5.35014E+01  5.22509E+01  5.10189E+01  4.98075E+01  4.86221E+01  4.74710E+01  4.63522E+01
   4.53037E+01  4.42868E+01  4.33610E+01  4.24779E+01  4.16702E+01  4.09136E+01  4.00833E+01  3.92088E+01  3.82743E+01  3.73453E+01
