 
 $NMID
 ID=''
 FMTDAT='(2E13.5)'
 TRAMP=   1.00000E+0
 VOLUME=   1.00000E+0
 $END
   7.28499E+5  -3.63760E+4
   1.80354E+6   5.92940E+5
   1.81525E+6   3.88056E+5
   1.72423E+6   4.48353E+5
   1.80216E+6   4.52688E+5
   1.75323E+6   3.56428E+5
   1.69614E+6   3.92539E+5
   1.76860E+6   4.04500E+5
   1.74989E+6   3.25399E+5
   1.68530E+6   3.41703E+5
   1.70844E+6   3.64907E+5
   1.70703E+6   3.26296E+5
   1.67667E+6   3.18133E+5
   1.67324E+6   3.15725E+5
   1.65188E+6   3.01968E+5
   1.63886E+6   3.03311E+5
   1.64664E+6   2.88353E+5
   1.61767E+6   2.73897E+5
   1.60178E+6   2.85292E+5
   1.61313E+6   2.67519E+5
   1.59024E+6   2.47414E+5
   1.56705E+6   2.54608E+5
   1.57103E+6   2.47097E+5
   1.55921E+6   2.29979E+5
   1.53661E+6   2.30892E+5
   1.52662E+6   2.19387E+5
   1.51662E+6   2.10665E+5
   1.50615E+6   2.09410E+5
   1.49006E+6   2.01822E+5
   1.47051E+6   1.93600E+5
   1.46550E+6   1.92166E+5
   1.45584E+6   1.78836E+5
   1.43347E+6   1.74893E+5
   1.42254E+6   1.76507E+5
   1.41497E+6   1.60687E+5
   1.39726E+6   1.46436E+5
   1.38616E+6   1.49184E+5
   1.37881E+6   1.45412E+5
   1.36084E+6   1.33170E+5
   1.34508E+6   1.28775E+5
   1.33394E+6   1.28586E+5
   1.32029E+6   1.21709E+5
   1.30379E+6   1.11811E+5
   1.29021E+6   1.08438E+5
   1.27772E+6   1.08581E+5
   1.26628E+6   1.03406E+5
   1.25016E+6   9.82715E+4
   1.23391E+6   1.00983E+5
   1.22129E+6   1.00867E+5
   1.20764E+6   9.41622E+4
   1.19088E+6   9.15302E+4
   1.17787E+6   9.35347E+4
   1.16745E+6   9.11930E+4
   1.15322E+6   8.72552E+4
   1.13695E+6   8.63585E+4
   1.12442E+6   8.79206E+4
   1.11178E+6   8.76495E+4
   1.09495E+6   8.51762E+4
   1.07896E+6   8.38230E+4
   1.06839E+6   8.32940E+4
   1.05624E+6   8.26740E+4
   1.04039E+6   8.21796E+4
   1.02619E+6   8.27731E+4
   1.01414E+6   8.41157E+4
   9.99541E+5   8.44853E+4
   9.83167E+5   8.31836E+4
   9.67819E+5   8.27403E+4
   9.55748E+5   8.27396E+4
   9.44197E+5   8.34951E+4
   9.30015E+5   8.50115E+4
   9.15101E+5   8.61953E+4
   9.02049E+5   8.65786E+4
   8.90060E+5   8.66289E+4
   8.76587E+5   8.76493E+4
   8.62100E+5   8.99477E+4
   8.49352E+5   9.04408E+4
   8.37060E+5   9.06358E+4
   8.23387E+5   9.18450E+4
   8.09939E+5   9.38748E+4
   7.97551E+5   9.56629E+4
   7.84716E+5   9.63764E+4
   7.70752E+5   9.75760E+4
   7.58219E+5   9.88114E+4
   7.46434E+5   1.01052E+5
   7.33594E+5   1.02808E+5
   7.20692E+5   1.04141E+5
   7.08847E+5   1.05145E+5
   6.97459E+5   1.06455E+5
   6.84991E+5   1.08161E+5
   6.72712E+5   1.08973E+5
   6.61310E+5   1.09562E+5
   6.50665E+5   1.10021E+5
   6.38854E+5   1.11099E+5
   6.26853E+5   1.12359E+5
   6.14864E+5   1.12632E+5
   6.04015E+5   1.11807E+5
   5.93716E+5   1.12461E+5
   5.83003E+5   1.13003E+5
   5.72172E+5   1.13083E+5
   5.61681E+5   1.13232E+5
   5.51915E+5   1.14148E+5
   5.41606E+5   1.15165E+5
   5.30869E+5   1.15542E+5
   5.19985E+5   1.15709E+5
   5.10525E+5   1.15343E+5
   5.01376E+5   1.14728E+5
   4.92202E+5   1.15172E+5
   4.82160E+5   1.15585E+5
   4.72019E+5   1.15200E+5
   4.62247E+5   1.13733E+5
   4.54023E+5   1.13314E+5
   4.45604E+5   1.13825E+5
   4.36570E+5   1.14052E+5
   4.27131E+5   1.13885E+5
   4.18120E+5   1.13960E+5
   4.09910E+5   1.14392E+5
   4.00969E+5   1.14541E+5
   3.91350E+5   1.14332E+5
   3.82686E+5   1.13941E+5
   3.74786E+5   1.12773E+5
   3.67490E+5   1.12408E+5
   3.59163E+5   1.12673E+5
   3.51394E+5   1.12691E+5
   3.43644E+5   1.12429E+5
   3.35511E+5   1.12033E+5
   3.27375E+5   1.11765E+5
   3.19723E+5   1.11960E+5
   3.12215E+5   1.11537E+5
   3.04877E+5   1.11315E+5
   2.97497E+5   1.11951E+5
   2.90122E+5   1.12847E+5
   2.82701E+5   1.12988E+5
   2.75139E+5   1.12931E+5
   2.68360E+5   1.13196E+5
   2.61546E+5   1.13417E+5
   2.54620E+5   1.13515E+5
   2.48029E+5   1.13294E+5
   2.41532E+5   1.13767E+5
   2.35315E+5   1.14192E+5
   2.29001E+5   1.14255E+5
   2.22327E+5   1.14426E+5
   2.16097E+5   1.14204E+5
   2.10321E+5   1.14008E+5
   2.04955E+5   1.13979E+5
   1.99329E+5   1.14651E+5
   1.93307E+5   1.15066E+5
   1.87661E+5   1.14897E+5
   1.82261E+5   1.14903E+5
   1.76798E+5   1.14936E+5
   1.71837E+5   1.14869E+5
   1.66523E+5   1.14837E+5
   1.62025E+5   1.14708E+5
   1.57659E+5   1.14599E+5
   1.53152E+5   1.14813E+5
   1.48043E+5   1.14785E+5
   1.43736E+5   1.14492E+5
   1.39696E+5   1.14482E+5
   1.35629E+5   1.14253E+5
   1.31636E+5   1.14113E+5
   1.27597E+5   1.13533E+5
   1.23727E+5   1.13503E+5
   1.20143E+5   1.13274E+5
   1.16262E+5   1.12846E+5
   1.12687E+5   1.12377E+5
   1.09120E+5   1.11768E+5
   1.06084E+5   1.11311E+5
   1.02782E+5   1.11143E+5
   9.95737E+4   1.10924E+5
   9.67809E+4   1.10618E+5
   9.35100E+4   1.10031E+5
   9.10465E+4   1.09478E+5
   8.79200E+4   1.08803E+5
   8.54356E+4   1.08493E+5
   8.23400E+4   1.07953E+5
   7.95779E+4   1.07333E+5
   7.71496E+4   1.06822E+5
   7.45579E+4   1.06405E+5
   7.18403E+4   1.05970E+5
   6.90245E+4   1.04707E+5
   6.66509E+4   1.04089E+5
   6.44547E+4   1.03559E+5
   6.17617E+4   1.03167E+5
   5.94247E+4   1.02471E+5
   5.69571E+4   1.01713E+5
   5.44128E+4   1.00682E+5
   5.19776E+4   9.99199E+4
   4.98764E+4   9.91194E+4
   4.73217E+4   9.84459E+4
   4.52686E+4   9.74983E+4
   4.32671E+4   9.70042E+4
   4.10310E+4   9.66781E+4
   3.87721E+4   9.59421E+4
   3.62075E+4   9.50680E+4
   3.40426E+4   9.40560E+4
   3.20234E+4   9.33208E+4
   2.99333E+4   9.25499E+4
   2.77416E+4   9.18546E+4
   2.55308E+4   9.10194E+4
   2.32700E+4   9.06173E+4
   2.12350E+4   8.99334E+4
   1.89266E+4   8.90824E+4
   1.67313E+4   8.80993E+4
   1.46988E+4   8.73694E+4
   1.28025E+4   8.68791E+4
   1.09306E+4   8.61254E+4
   8.69883E+3   8.54094E+4
   6.96326E+3   8.47978E+4
   5.21201E+3   8.39884E+4
   3.32843E+3   8.32762E+4
   1.14207E+3   8.23841E+4
  -6.52974E+2   8.16527E+4
  -2.25986E+3   8.09989E+4
  -3.89577E+3   8.00787E+4
  -6.07066E+3   7.95098E+4
  -7.89185E+3   7.88957E+4
  -9.53743E+3   7.80916E+4
  -1.12576E+4   7.70147E+4
  -1.25962E+4   7.63601E+4
  -1.40185E+4   7.55021E+4
  -1.54430E+4   7.50348E+4
  -1.70690E+4   7.42759E+4
  -1.85440E+4   7.35756E+4
  -1.97637E+4   7.28699E+4
  -2.11682E+4   7.21226E+4
  -2.26873E+4   7.09131E+4
  -2.37461E+4   7.02931E+4
  -2.49054E+4   6.97026E+4
  -2.60144E+4   6.89286E+4
  -2.75863E+4   6.83725E+4
  -2.87122E+4   6.74517E+4
  -2.99252E+4   6.64832E+4
  -3.08248E+4   6.57818E+4
  -3.19812E+4   6.51156E+4
  -3.29288E+4   6.43605E+4
  -3.38226E+4   6.34271E+4
  -3.44294E+4   6.25232E+4
  -3.56487E+4   6.19765E+4
  -3.63794E+4   6.13245E+4
  -3.69991E+4   6.03661E+4
  -3.79211E+4   5.95145E+4
  -3.88234E+4   5.88160E+4
  -3.93474E+4   5.82232E+4
  -4.01664E+4   5.74494E+4
  -4.09015E+4   5.66314E+4
  -4.14978E+4   5.55900E+4
  -4.20921E+4   5.49810E+4
  -4.27702E+4   5.41029E+4
  -4.33924E+4   5.32893E+4
  -4.37279E+4   5.22580E+4
  -4.43314E+4   5.17597E+4
  -4.47158E+4   5.08047E+4
  -4.53044E+4   5.01603E+4
  -4.58322E+4   4.92765E+4
  -4.61426E+4   4.84495E+4
  -4.63927E+4   4.74626E+4
  -4.69336E+4   4.66667E+4
  -4.75748E+4   4.58718E+4
  -4.79033E+4   4.47883E+4
  -4.85270E+4   4.41697E+4
  -4.87078E+4   4.30329E+4
  -4.93363E+4   4.18994E+4
  -4.97466E+4   4.10837E+4
  -5.00560E+4   4.00096E+4
  -5.05193E+4   3.92656E+4
  -5.06524E+4   3.85825E+4
  -5.10359E+4   3.76130E+4
  -5.15968E+4   3.67363E+4
  -5.17559E+4   3.57004E+4
  -5.20242E+4   3.48142E+4
  -5.22410E+4   3.39365E+4
  -5.25403E+4   3.32703E+4
  -5.29960E+4   3.23831E+4
  -5.28234E+4   3.11860E+4
  -5.32436E+4   3.05038E+4
  -5.33690E+4   2.95946E+4
  -5.37570E+4   2.88361E+4
  -5.40663E+4   2.79684E+4
  -5.41404E+4   2.69996E+4
  -5.40373E+4   2.62455E+4
  -5.45683E+4   2.56232E+4
  -5.44318E+4   2.45592E+4
  -5.46544E+4   2.37621E+4
  -5.43931E+4   2.30251E+4
  -5.46452E+4   2.21302E+4
  -5.46597E+4   2.12674E+4
  -5.48196E+4   2.03851E+4
  -5.45894E+4   1.99030E+4
  -5.44793E+4   1.90911E+4
  -5.46252E+4   1.85558E+4
  -5.44105E+4   1.74662E+4
  -5.44469E+4   1.69809E+4
  -5.44552E+4   1.63998E+4
  -5.44982E+4   1.58357E+4
  -5.42940E+4   1.49220E+4
  -5.41850E+4   1.44164E+4
  -5.38573E+4   1.38280E+4
  -5.38155E+4   1.31095E+4
  -5.35513E+4   1.26616E+4
  -5.36912E+4   1.18360E+4
  -5.32022E+4   1.12146E+4
  -5.32482E+4   1.07503E+4
  -5.25726E+4   1.04002E+4
  -5.26650E+4   1.00470E+4
  -5.25907E+4   9.10645E+3
  -5.19595E+4   8.58312E+3
  -5.16707E+4   7.96198E+3
  -5.14884E+4   7.47318E+3
  -5.10704E+4   7.18026E+3
  -5.05904E+4   6.56109E+3
  -5.05652E+4   5.95647E+3
  -4.99052E+4   5.63639E+3
  -4.95907E+4   5.32663E+3
  -4.94358E+4   4.65192E+3
  -4.90595E+4   4.15107E+3
  -4.83297E+4   3.74136E+3
  -4.80597E+4   3.29458E+3
  -4.76419E+4   2.67586E+3
  -4.72558E+4   2.32876E+3
  -4.66302E+4   1.81246E+3
  -4.62259E+4   1.46787E+3
  -4.58562E+4   1.14332E+3
  -4.55805E+4   7.83165E+2
  -4.48435E+4   3.50706E+2
  -4.42208E+4  -1.48428E+2
  -4.40237E+4  -4.23846E+2
  -4.32731E+4  -5.45241E+2
  -4.30095E+4  -1.21648E+3
  -4.25662E+4  -1.67120E+3
  -4.18412E+4  -2.07732E+3
  -4.14198E+4  -2.33753E+3
  -4.09383E+4  -2.70213E+3
  -4.05759E+4  -2.79057E+3
  -3.98147E+4  -3.35943E+3
  -3.95240E+4  -3.67771E+3
  -3.90487E+4  -3.93501E+3
  -3.86681E+4  -4.37518E+3
  -3.82625E+4  -4.66202E+3
  -3.75717E+4  -5.20022E+3
  -3.70024E+4  -5.23022E+3
  -3.64773E+4  -5.69165E+3
  -3.61560E+4  -5.88117E+3
  -3.58277E+4  -6.20721E+3
  -3.51200E+4  -6.51772E+3
  -3.45867E+4  -6.93593E+3
  -3.39443E+4  -7.02402E+3
  -3.37007E+4  -7.51811E+3
  -3.29851E+4  -7.61760E+3
  -3.25808E+4  -7.88048E+3
  -3.21412E+4  -7.91273E+3
  -3.19866E+4  -8.41404E+3
  -3.12447E+4  -8.50013E+3
  -3.08436E+4  -8.99109E+3
  -3.00915E+4  -9.25284E+3
  -2.96380E+4  -9.08355E+3
  -2.95064E+4  -9.40201E+3
  -2.87526E+4  -9.41528E+3
  -2.85423E+4  -9.72846E+3
  -2.79761E+4  -9.64097E+3
  -2.75444E+4  -1.01000E+4
  -2.71716E+4  -1.04168E+4
  -2.68886E+4  -1.05226E+4
  -2.63324E+4  -1.05600E+4
  -2.57820E+4  -1.06017E+4
  -2.54623E+4  -1.08101E+4
  -2.49762E+4  -1.06962E+4
  -2.48241E+4  -1.09296E+4
  -2.43152E+4  -1.10501E+4
