 
 $NMID
 ID=''
 FMTDAT='(2E13.5)'
 TRAMP=   1.00000E+0
 VOLUME=   1.00000E+0
 $END
   7.48755E+5  -1.20570E+4
   1.83958E+6   6.70604E+5
   1.81606E+6   5.11857E+5
   1.68351E+6   6.25583E+5
   1.75803E+6   6.73513E+5
   1.72604E+6   5.91828E+5
   1.66183E+6   6.33956E+5
   1.69525E+6   6.75330E+5
   1.65417E+6   6.54383E+5
   1.59756E+6   7.10751E+5
   1.60794E+6   7.44345E+5
   1.56640E+6   7.37546E+5
   1.52368E+6   7.85128E+5
   1.52308E+6   8.18322E+5
   1.47666E+6   8.30118E+5
   1.43601E+6   8.74782E+5
   1.43471E+6   8.99457E+5
   1.39961E+6   9.06119E+5
   1.36728E+6   9.36608E+5
   1.36300E+6   9.45413E+5
   1.32798E+6   9.51749E+5
   1.29621E+6   9.79844E+5
   1.28014E+6   9.92603E+5
   1.24284E+6   1.00096E+6
   1.20656E+6   1.02528E+6
   1.18560E+6   1.03166E+6
   1.14667E+6   1.04544E+6
   1.10830E+6   1.07161E+6
   1.07573E+6   1.08113E+6
   1.04102E+6   1.08608E+6
   1.01375E+6   1.10245E+6
   9.89154E+5   1.10630E+6
   9.56452E+5   1.10949E+6
   9.32100E+5   1.11778E+6
   9.10626E+5   1.11623E+6
   8.87391E+5   1.11582E+6
   8.68182E+5   1.12262E+6
   8.43655E+5   1.12476E+6
   8.11359E+5   1.12610E+6
   7.84193E+5   1.13106E+6
   7.54984E+5   1.13276E+6
   7.21630E+5   1.13323E+6
   6.92467E+5   1.13363E+6
   6.63735E+5   1.13342E+6
   6.30718E+5   1.13314E+6
   6.01378E+5   1.13396E+6
   5.73085E+5   1.13182E+6
   5.43450E+5   1.12914E+6
   5.17313E+5   1.12308E+6
   4.93295E+5   1.11735E+6
   4.68908E+5   1.11352E+6
   4.45222E+5   1.10957E+6
   4.21413E+5   1.10372E+6
   3.97132E+5   1.09932E+6
   3.71804E+5   1.09367E+6
   3.45397E+5   1.08714E+6
   3.18096E+5   1.08035E+6
   2.91884E+5   1.07225E+6
   2.67552E+5   1.06317E+6
   2.43389E+5   1.05531E+6
   2.18718E+5   1.04714E+6
   1.94529E+5   1.03790E+6
   1.71553E+5   1.02862E+6
   1.48843E+5   1.01839E+6
   1.26834E+5   1.00686E+6
   1.06395E+5   9.94462E+5
   8.67875E+4   9.82860E+5
   6.71405E+4   9.71464E+5
   4.74083E+4   9.60875E+5
   2.61470E+4   9.50150E+5
   5.87436E+3   9.37356E+5
  -1.34708E+4   9.24073E+5
  -3.15711E+4   9.11950E+5
  -5.06438E+4   8.99889E+5
  -6.95855E+4   8.86164E+5
  -8.69135E+4   8.71861E+5
  -1.03186E+5   8.58584E+5
  -1.20200E+5   8.45270E+5
  -1.36307E+5   8.30587E+5
  -1.51492E+5   8.16107E+5
  -1.66598E+5   8.01746E+5
  -1.80937E+5   7.87052E+5
  -1.94799E+5   7.72567E+5
  -2.09651E+5   7.57712E+5
  -2.24013E+5   7.42772E+5
  -2.37426E+5   7.26818E+5
  -2.50491E+5   7.12004E+5
  -2.63929E+5   6.96635E+5
  -2.76285E+5   6.81114E+5
  -2.86993E+5   6.65867E+5
  -2.96967E+5   6.50508E+5
  -3.07419E+5   6.35719E+5
  -3.17447E+5   6.20873E+5
  -3.26040E+5   6.05356E+5
  -3.33303E+5   5.90404E+5
  -3.40130E+5   5.75589E+5
  -3.47567E+5   5.62191E+5
  -3.54905E+5   5.47990E+5
  -3.61382E+5   5.33797E+5
  -3.66700E+5   5.19583E+5
  -3.73133E+5   5.05768E+5
  -3.79503E+5   4.91604E+5
  -3.85365E+5   4.76085E+5
  -3.89279E+5   4.61435E+5
  -3.93364E+5   4.47898E+5
  -3.97325E+5   4.34823E+5
  -4.01254E+5   4.21074E+5
  -4.04715E+5   4.06551E+5
  -4.06971E+5   3.92552E+5
  -4.08233E+5   3.79902E+5
  -4.10087E+5   3.67641E+5
  -4.12592E+5   3.54711E+5
  -4.14626E+5   3.41343E+5
  -4.15616E+5   3.28269E+5
  -4.16367E+5   3.15778E+5
  -4.17278E+5   3.03207E+5
  -4.17813E+5   2.90529E+5
  -4.17194E+5   2.77663E+5
  -4.16288E+5   2.65596E+5
  -4.15672E+5   2.54366E+5
  -4.15511E+5   2.43038E+5
  -4.14595E+5   2.31652E+5
  -4.13289E+5   2.20444E+5
  -4.11796E+5   2.08957E+5
  -4.10348E+5   1.97418E+5
  -4.07856E+5   1.85691E+5
  -4.05401E+5   1.74700E+5
  -4.02778E+5   1.63742E+5
  -4.01019E+5   1.53013E+5
  -3.98197E+5   1.41731E+5
  -3.95738E+5   1.30213E+5
  -3.92410E+5   1.18657E+5
  -3.89028E+5   1.08136E+5
  -3.85814E+5   9.80251E+4
  -3.82227E+5   8.77127E+4
  -3.78721E+5   7.74728E+4
  -3.75029E+5   6.79801E+4
  -3.71028E+5   5.86993E+4
  -3.67832E+5   4.95771E+4
  -3.63903E+5   4.00176E+4
  -3.59571E+5   3.10132E+4
  -3.54680E+5   2.23088E+4
  -3.50420E+5   1.42728E+4
  -3.46287E+5   5.77884E+3
  -3.42331E+5  -2.92026E+3
  -3.36937E+5  -1.09508E+4
  -3.32438E+5  -1.88274E+4
  -3.27718E+5  -2.63496E+4
  -3.22679E+5  -3.40421E+4
  -3.17785E+5  -4.08747E+4
  -3.12574E+5  -4.76576E+4
  -3.08090E+5  -5.41025E+4
  -3.03358E+5  -6.03113E+4
  -2.98532E+5  -6.66791E+4
  -2.93852E+5  -7.25069E+4
  -2.88680E+5  -7.80826E+4
  -2.83969E+5  -8.33459E+4
  -2.79324E+5  -8.84404E+4
  -2.74128E+5  -9.31685E+4
  -2.69350E+5  -9.79749E+4
  -2.64913E+5  -1.02668E+5
  -2.59622E+5  -1.07201E+5
  -2.54581E+5  -1.11437E+5
  -2.49662E+5  -1.15286E+5
  -2.44869E+5  -1.18933E+5
  -2.40009E+5  -1.22123E+5
  -2.35177E+5  -1.25540E+5
  -2.30699E+5  -1.29058E+5
  -2.25784E+5  -1.31918E+5
  -2.20690E+5  -1.34398E+5
  -2.16303E+5  -1.37016E+5
  -2.11630E+5  -1.39513E+5
  -2.06894E+5  -1.41992E+5
  -2.01876E+5  -1.44077E+5
  -1.97265E+5  -1.45854E+5
  -1.92978E+5  -1.48297E+5
  -1.88123E+5  -1.50339E+5
  -1.82879E+5  -1.51963E+5
  -1.78060E+5  -1.53093E+5
  -1.73802E+5  -1.54483E+5
  -1.69398E+5  -1.56051E+5
  -1.64581E+5  -1.57502E+5
  -1.59881E+5  -1.58451E+5
  -1.54993E+5  -1.59675E+5
  -1.50267E+5  -1.60403E+5
  -1.45866E+5  -1.60921E+5
  -1.41381E+5  -1.61503E+5
  -1.37042E+5  -1.61898E+5
  -1.32875E+5  -1.62283E+5
  -1.28972E+5  -1.62948E+5
  -1.24409E+5  -1.63401E+5
  -1.19860E+5  -1.64024E+5
  -1.14949E+5  -1.64119E+5
  -1.10726E+5  -1.64110E+5
  -1.06579E+5  -1.64137E+5
  -1.02278E+5  -1.64245E+5
  -9.77937E+4  -1.64168E+5
  -9.35289E+4  -1.63987E+5
  -8.92297E+4  -1.63821E+5
  -8.53603E+4  -1.63906E+5
  -8.08167E+4  -1.63522E+5
  -7.66752E+4  -1.62822E+5
  -7.25418E+4  -1.61732E+5
  -6.88659E+4  -1.61786E+5
  -6.50750E+4  -1.61270E+5
  -6.09876E+4  -1.60584E+5
  -5.68863E+4  -1.59768E+5
  -5.32050E+4  -1.58994E+5
  -4.94675E+4  -1.58023E+5
  -4.59170E+4  -1.57444E+5
  -4.21488E+4  -1.56485E+5
  -3.87386E+4  -1.55216E+5
  -3.52283E+4  -1.54575E+5
  -3.16765E+4  -1.53615E+5
  -2.82883E+4  -1.52557E+5
  -2.48710E+4  -1.50933E+5
  -2.16701E+4  -1.49516E+5
  -1.88561E+4  -1.48585E+5
  -1.58529E+4  -1.47111E+5
  -1.29804E+4  -1.45617E+5
  -1.00752E+4  -1.44252E+5
  -7.45845E+3  -1.43019E+5
  -4.83760E+3  -1.41650E+5
  -1.97586E+3  -1.40398E+5
   2.84439E+2  -1.38628E+5
   2.91697E+3  -1.37072E+5
   5.16594E+3  -1.35423E+5
   7.34637E+3  -1.34106E+5
   9.59946E+3  -1.32891E+5
   1.18498E+4  -1.30661E+5
   1.39596E+4  -1.28985E+5
   1.57369E+4  -1.27529E+5
   1.77801E+4  -1.25862E+5
   1.95434E+4  -1.24361E+5
   2.12475E+4  -1.22681E+5
   2.28646E+4  -1.21086E+5
   2.43810E+4  -1.19399E+5
   2.59122E+4  -1.17766E+5
   2.74629E+4  -1.15824E+5
   2.88755E+4  -1.14193E+5
   2.98935E+4  -1.12370E+5
   3.09717E+4  -1.10768E+5
   3.24665E+4  -1.09179E+5
   3.39595E+4  -1.07440E+5
   3.50903E+4  -1.05567E+5
   3.59088E+4  -1.03618E+5
   3.70711E+4  -1.02319E+5
   3.80460E+4  -1.00466E+5
   3.88331E+4  -9.87479E+4
   3.97071E+4  -9.70763E+4
   4.05249E+4  -9.52620E+4
   4.15969E+4  -9.36309E+4
   4.23813E+4  -9.16379E+4
   4.29207E+4  -8.98684E+4
   4.38892E+4  -8.82400E+4
   4.43856E+4  -8.64133E+4
   4.52778E+4  -8.50261E+4
   4.61044E+4  -8.32520E+4
   4.66970E+4  -8.12383E+4
   4.72200E+4  -7.95656E+4
   4.79368E+4  -7.76730E+4
   4.84497E+4  -7.59596E+4
   4.90050E+4  -7.41881E+4
   4.94435E+4  -7.23912E+4
   4.99033E+4  -7.10865E+4
   5.05755E+4  -6.92051E+4
   5.09414E+4  -6.76195E+4
   5.13359E+4  -6.59206E+4
   5.17096E+4  -6.42373E+4
   5.21913E+4  -6.26586E+4
   5.26309E+4  -6.10880E+4
   5.27979E+4  -5.92490E+4
   5.31106E+4  -5.81387E+4
   5.35559E+4  -5.64125E+4
   5.37808E+4  -5.49203E+4
   5.37462E+4  -5.34479E+4
   5.43385E+4  -5.13727E+4
   5.43587E+4  -4.99897E+4
   5.46063E+4  -4.85090E+4
   5.46966E+4  -4.69475E+4
   5.47441E+4  -4.54863E+4
   5.49712E+4  -4.41366E+4
   5.50643E+4  -4.24078E+4
   5.51594E+4  -4.13169E+4
   5.51150E+4  -3.98928E+4
   5.50536E+4  -3.85552E+4
   5.47372E+4  -3.72034E+4
   5.46919E+4  -3.59352E+4
   5.47671E+4  -3.47649E+4
   5.49599E+4  -3.35588E+4
   5.47697E+4  -3.18820E+4
   5.46476E+4  -3.09272E+4
   5.44623E+4  -2.96258E+4
   5.39711E+4  -2.83535E+4
   5.41045E+4  -2.73452E+4
   5.37725E+4  -2.59019E+4
   5.36659E+4  -2.51980E+4
   5.34681E+4  -2.39318E+4
   5.29867E+4  -2.26230E+4
   5.29296E+4  -2.16288E+4
   5.27344E+4  -2.08957E+4
   5.23016E+4  -1.98672E+4
   5.21279E+4  -1.86614E+4
   5.16359E+4  -1.77575E+4
   5.15014E+4  -1.68398E+4
   5.09177E+4  -1.57799E+4
   5.06283E+4  -1.50704E+4
   5.02758E+4  -1.38707E+4
   4.98287E+4  -1.29662E+4
   4.95887E+4  -1.20654E+4
   4.90701E+4  -1.12540E+4
   4.88380E+4  -1.07477E+4
   4.81510E+4  -9.67740E+3
   4.76184E+4  -8.99018E+3
   4.71506E+4  -8.04503E+3
   4.67531E+4  -7.52109E+3
   4.60755E+4  -6.60754E+3
   4.59907E+4  -5.59923E+3
   4.53235E+4  -4.78029E+3
   4.48251E+4  -4.42932E+3
   4.42947E+4  -3.39313E+3
   4.39899E+4  -2.75099E+3
   4.32815E+4  -2.11623E+3
   4.29836E+4  -1.21194E+3
   4.21479E+4  -6.73445E+2
   4.20128E+4   1.91149E+2
   4.13271E+4   6.81773E+2
   4.08182E+4   1.40433E+3
   4.06642E+4   2.18795E+3
   3.97961E+4   2.49853E+3
   3.92231E+4   3.25187E+3
   3.86630E+4   3.58369E+3
   3.80828E+4   4.29539E+3
   3.75878E+4   5.02232E+3
   3.73127E+4   5.37819E+3
   3.67013E+4   6.14897E+3
   3.62082E+4   6.42736E+3
   3.55887E+4   7.15360E+3
   3.51661E+4   7.43362E+3
   3.44358E+4   8.10212E+3
   3.38649E+4   8.46389E+3
   3.33745E+4   9.02460E+3
   3.28664E+4   9.40333E+3
   3.24512E+4   9.79704E+3
   3.14986E+4   1.02341E+4
   3.11723E+4   1.06575E+4
   3.06445E+4   1.12141E+4
   3.00774E+4   1.15811E+4
   2.97574E+4   1.17824E+4
   2.92855E+4   1.20141E+4
   2.88562E+4   1.25931E+4
   2.80544E+4   1.30834E+4
   2.76485E+4   1.34064E+4
   2.71502E+4   1.34673E+4
   2.64935E+4   1.37773E+4
   2.58918E+4   1.41542E+4
   2.56799E+4   1.43440E+4
   2.52579E+4   1.46397E+4
   2.45847E+4   1.50953E+4
   2.42820E+4   1.51847E+4
   2.38117E+4   1.54740E+4
   2.30867E+4   1.59548E+4
   2.26141E+4   1.57597E+4
   2.21310E+4   1.60700E+4
   2.17719E+4   1.60821E+4
   2.16464E+4   1.65858E+4
   2.08678E+4   1.67786E+4
