 LCModel (Version 6.3-1N) Copyright: S.W. Provencher.          Ref.: Magn. Reson. Med. 30:672-679 (1993).                
 Slice_N1@11_13  28-Feb-2025 11:36:38
 27 lines in following concentration table = NCONC+1
    Conc.  %SD /Cr+PCr  Metabolite                                         
 3.07E-04   4% 3.3E-04 Mac                                                 
    3.665  24%   3.973 Cr                                                  
    3.715  22%   4.027 PCr                                                 
    5.937  14%   6.435 Ins                                                 
    8.895   8%   9.643 NAA                                                 
    7.542  11%   8.176 Tau                                                 
    1.279  59%   1.386 PCho                                                
    0.379 193%   0.411 GPC                                                 
    9.272  11%  10.051 Glu                                                 
    5.436  15%   5.893 Gln                                                 
 9.30E-03 999% 1.0E-02 Ala                                                 
    2.535  45%   2.748 Asc                                                 
    1.359  58%   1.473 Asp                                                 
    0.607  73%   0.658 GABA                                                
    0.601  89%   0.652 Glc                                                 
    1.043  46%   1.130 GSH                                                 
    2.907  22%   3.152 Lac                                                 
    1.122  43%   1.216 NAAG                                                
    1.973  50%   2.138 PE                                                  
    1.658  16%   1.797 GPC+PCho                                            
   10.017   8%  10.859 NAA+NAAG                                            
   14.708   9%  15.944 Glu+Gln                                             
    7.380   9%   8.000 Cr+PCr                                              
   10.017   8%  10.859 NAA+NAAG                                            
    7.380   9%   8.000 Cr+PCr                                              
   14.708   9%  15.944 Glu+Gln                                             
   6 lines in following misc. output table
  FWHM = 0.016 ppm    S/N =   4                                            
  Data shift = 0.024 ppm                                                   
  Ph: 169 deg       0.0 deg/ppm                                            
  alphaB,S = 3.2E-01,   3.3E-01                                            
   19 spline knots.   Ns = 5(1)                                            
   2 inflections.     1 extrema                                            
  480 points on ppm-axis = NY
      4.100000     4.091866     4.083733     4.075600     4.067466     4.059333     4.051199     4.043066     4.034933     4.026799
      4.018666     4.010532     4.002399     3.994265     3.986132     3.977998     3.969864     3.961731     3.953597     3.945463
      3.937330     3.929196     3.921062     3.912929     3.904795     3.896662     3.888528     3.880394     3.872261     3.864127
      3.855993     3.847860     3.839726     3.831592     3.823459     3.815325     3.807191     3.799058     3.790924     3.782790
      3.774657     3.766523     3.758389     3.750256     3.742122     3.733989     3.725855     3.717721     3.709588     3.701454
      3.693320     3.685187     3.677053     3.668919     3.660786     3.652652     3.644518     3.636385     3.628251     3.620117
      3.611984     3.603850     3.595716     3.587583     3.579449     3.571316     3.563182     3.555048     3.546915     3.538781
      3.530647     3.522514     3.514380     3.506246     3.498113     3.489979     3.481845     3.473712     3.465578     3.457444
      3.449311     3.441177     3.433043     3.424910     3.416776     3.408643     3.400509     3.392375     3.384242     3.376108
      3.367974     3.359841     3.351707     3.343573     3.335440     3.327306     3.319172     3.311039     3.302905     3.294771
      3.286638     3.278504     3.270370     3.262237     3.254103     3.245970     3.237836     3.229702     3.221569     3.213435
      3.205301     3.197168     3.189034     3.180900     3.172767     3.164633     3.156499     3.148366     3.140232     3.132098
      3.123965     3.115831     3.107697     3.099564     3.091430     3.083297     3.075163     3.067029     3.058896     3.050762
      3.042628     3.034495     3.026361     3.018227     3.010094     3.001960     2.993826     2.985693     2.977559     2.969425
      2.961292     2.953158     2.945024     2.936891     2.928757     2.920624     2.912490     2.904356     2.896223     2.888089
      2.879955     2.871822     2.863688     2.855554     2.847421     2.839287     2.831153     2.823020     2.814886     2.806752
      2.798619     2.790485     2.782351     2.774218     2.766084     2.757951     2.749817     2.741683     2.733550     2.725416
      2.717282     2.709149     2.701015     2.692881     2.684748     2.676614     2.668480     2.660347     2.652213     2.644079
      2.635946     2.627812     2.619678     2.611545     2.603411     2.595278     2.587144     2.579010     2.570877     2.562743
      2.554609     2.546476     2.538342     2.530208     2.522075     2.513941     2.505807     2.497674     2.489540     2.481406
      2.473273     2.465139     2.457006     2.448872     2.440738     2.432605     2.424471     2.416337     2.408204     2.400070
      2.391936     2.383803     2.375669     2.367535     2.359402     2.351268     2.343134     2.335001     2.326867     2.318733
      2.310600     2.302466     2.294333     2.286199     2.278065     2.269932     2.261798     2.253664     2.245531     2.237397
      2.229263     2.221130     2.212996     2.204862     2.196729     2.188595     2.180461     2.172328     2.164194     2.156060
      2.147927     2.139793     2.131660     2.123526     2.115392     2.107259     2.099125     2.090991     2.082858     2.074724
      2.066590     2.058457     2.050323     2.042189     2.034056     2.025922     2.017788     2.009655     2.001521     1.993387
      1.985254     1.977120     1.968987     1.960853     1.952719     1.944586     1.936452     1.928318     1.920185     1.912051
      1.903917     1.895784     1.887650     1.879516     1.871383     1.863249     1.855115     1.846982     1.838848     1.830714
      1.822581     1.814447     1.806314     1.798180     1.790046     1.781913     1.773779     1.765645     1.757512     1.749378
      1.741244     1.733111     1.724977     1.716843     1.708710     1.700576     1.692442     1.684309     1.676175     1.668041
      1.659908     1.651774     1.643641     1.635507     1.627373     1.619240     1.611106     1.602972     1.594839     1.586705
      1.578571     1.570438     1.562304     1.554170     1.546037     1.537903     1.529769     1.521636     1.513502     1.505368
      1.497235     1.489101     1.480968     1.472834     1.464700     1.456567     1.448433     1.440299     1.432166     1.424032
      1.415898     1.407765     1.399631     1.391497     1.383364     1.375230     1.367096     1.358963     1.350829     1.342695
      1.334562     1.326428     1.318295     1.310161     1.302027     1.293894     1.285760     1.277626     1.269493     1.261359
      1.253225     1.245092     1.236958     1.228824     1.220691     1.212557     1.204423     1.196290     1.188156     1.180022
      1.171889     1.163755     1.155622     1.147488     1.139354     1.131221     1.123087     1.114953     1.106820     1.098686
      1.090552     1.082419     1.074285     1.066151     1.058018     1.049884     1.041750     1.033617     1.025483     1.017349
      1.009216     1.001082     0.992949     0.984815     0.976681     0.968548     0.960414     0.952280     0.944147     0.936013
      0.927879     0.919746     0.911612     0.903478     0.895345     0.887211     0.879077     0.870944     0.862810     0.854676
      0.846543     0.838409     0.830276     0.822142     0.814008     0.805875     0.797741     0.789607     0.781474     0.773340
      0.765206     0.757073     0.748939     0.740805     0.732672     0.724538     0.716404     0.708271     0.700137     0.692003
      0.683870     0.675736     0.667603     0.659469     0.651335     0.643202     0.635068     0.626934     0.618801     0.610667
      0.602533     0.594400     0.586266     0.578132     0.569999     0.561865     0.553731     0.545598     0.537464     0.529330
      0.521197     0.513063     0.504930     0.496796     0.488662     0.480529     0.472395     0.464261     0.456128     0.447994
      0.439861     0.431727     0.423593     0.415460     0.407326     0.399192     0.391059     0.382925     0.374792     0.366658
      0.358524     0.350391     0.342257     0.334124     0.325990     0.317856     0.309723     0.301589     0.293455     0.285322
      0.277188     0.269055     0.260921     0.252787     0.244654     0.236520     0.228386     0.220253     0.212119     0.203986
 NY phased data points follow
  -2.02644E+01 -4.39066E+01 -3.91091E+01 -4.17383E+01 -6.15495E+01 -2.42556E+01 -2.33499E+01 -3.82132E+01 -3.61677E+01 -4.12596E+01
  -4.94715E+01 -6.02161E+01 -5.37140E+01 -5.29654E+01 -7.18035E+01 -5.78944E+01 -5.14069E+01 -7.76922E+01 -5.88849E+01 -7.79825E+01
  -1.13290E+02 -7.37603E+01 -6.05708E+01 -5.33785E+01 -8.19835E+00  1.41238E+01  2.03464E+01  5.73070E+00  4.80393E+00  1.22456E+01
   5.85372E+00  8.82038E+00 -7.18838E+00 -6.81355E+00 -9.86389E+00 -1.25766E+01 -1.30285E+00 -1.92368E+01 -3.75965E+01 -6.66269E+01
  -7.48812E+01 -7.45647E+01 -7.17299E+01 -6.14672E+01 -5.23619E+01 -1.33417E+01  1.56709E+01  2.70878E+01  3.06501E+01  2.31718E+01
   2.02413E+01  2.90833E+01  1.60175E+01  7.32400E+00  1.12266E+01 -1.87762E+01 -1.85306E+01 -7.01416E+00 -2.26763E+01 -2.90114E+01
  -9.45583E+00 -6.28705E+00 -1.94490E+01 -3.93374E+00  1.66005E+01  2.04652E+01  2.00400E+01  1.81183E+01 -9.18864E+00 -3.42843E+01
  -4.96644E+01 -2.92830E+01 -1.05727E+01 -1.62376E+01  3.03474E+01  2.14179E+01  1.12920E+01  3.70019E+01  1.80037E+01  2.40504E+01
   3.31271E+01  2.29711E+01  7.39217E+00 -1.87221E+01 -3.87661E+01 -3.27400E+01 -2.68053E+01 -2.18376E+01  4.67540E+00  1.46273E+01
   1.75531E+01  3.20136E+01  4.35595E+01  4.67387E+01  5.63167E+01  5.70343E+01  5.42300E+01  5.42526E+01  5.17683E+01  3.90239E+01
   4.42364E+01  6.10130E+01  1.63568E+01  1.73336E+01  9.61041E+00 -4.93153E+01 -3.68877E+01 -4.21997E+01 -5.23001E+01 -8.75100E+01
  -1.68802E+02 -1.95650E+02 -1.68711E+02 -1.15434E+02 -8.12124E+01 -7.35040E+01 -6.19856E+01 -4.66180E+01 -4.88703E+01 -4.34044E+01
  -2.06160E+01 -1.15352E+01 -2.20602E+00  3.98688E+00  1.68456E+01  1.77449E+01  8.40044E+00  2.89064E+01  3.57526E+01  5.13558E+01
   1.23870E+02  1.41304E+02  2.32110E+01 -1.02740E+02 -1.24190E+02 -1.10612E+02 -1.01797E+02 -8.54871E+01 -8.34954E+01 -9.77143E+01
  -9.32785E+01 -8.43800E+01 -9.47834E+01 -8.45562E+01 -9.22717E+01 -9.08367E+01 -6.33689E+01 -7.72765E+01 -7.13801E+01 -6.62767E+01
  -7.91473E+01 -6.70573E+01 -5.66889E+01 -4.91687E+01 -5.23585E+01 -5.80969E+01 -3.87641E+01 -4.28261E+01 -4.73996E+01 -3.47565E+01
  -5.01414E+01 -3.86139E+01 -2.55060E+01 -3.12057E+01 -3.00526E+01 -2.90659E+01 -3.66046E+01 -4.31382E+01 -3.18066E+01 -4.04487E+01
  -1.60321E+01 -1.22169E+01 -1.46399E+01  1.51524E+01 -1.03269E+01 -2.30138E+01 -8.52861E+00  5.19241E+00 -1.01718E+01 -2.22762E+01
  -2.34827E+01 -4.79761E+01 -5.79941E+01 -5.92273E+01 -5.33394E+01 -6.12543E+01 -5.04145E+01 -3.63544E+01 -4.25806E+01 -4.47374E+01
  -4.39271E+01 -3.32278E+01 -2.78014E+01 -3.41403E+01 -3.73592E+01 -2.27722E+01 -3.63586E+01 -4.55106E+01 -1.82843E+01 -2.23455E+01
  -3.53381E+01 -1.60494E+01 -1.29244E+01 -5.17612E+00  1.82147E+01 -1.19970E-01 -3.44516E+00 -1.07902E+01 -3.24327E+01 -4.45264E+01
  -4.67296E+01 -4.39474E+01 -4.62743E+01 -2.23107E+01 -7.12089E+00  2.32053E+01  4.57443E+01  4.58392E+01  4.99238E+01  4.59070E+01
   2.10505E+01 -1.86948E+01  8.12054E-01  7.88342E+00 -8.48676E+00  2.76386E+00  1.08801E+01  9.07280E-01 -7.84076E+00  3.63000E+00
  -1.60236E+00 -1.23865E+01 -2.59524E+01 -3.96679E+01 -5.30310E+01 -5.88147E+01 -4.90484E+01 -7.00210E+01 -8.29898E+01 -7.78032E+01
  -8.43141E+01 -7.13761E+01 -5.73101E+01 -4.15813E+01 -2.41102E+01 -1.11895E+01 -1.10078E+00 -1.29106E+01 -1.27000E+01 -3.23799E+01
  -2.90372E+01 -1.87033E+01 -2.50606E+01 -2.04302E+01 -3.72372E+01 -4.22804E+01 -1.24999E+02 -6.95432E+01  1.25651E+02  1.63735E+02
   1.56415E+02  1.51451E+02  1.48618E+02  1.10937E+02  8.80518E+01  8.95918E+01  7.17817E+01  9.57797E+01  8.41571E+01  6.46667E+01
   7.18693E+01  6.80757E+01  5.62232E+01  5.75926E+01  6.54983E+01  6.29664E+01  6.00792E+01  4.97014E+01  4.66504E+01  5.45718E+01
   6.18696E+01  5.54365E+01  4.39229E+01  4.15481E+01  4.59954E+01  3.95655E+01  3.68914E+01  4.14339E+01  4.70328E+01  3.90948E+01
   2.83694E+01  4.23700E+01  3.80422E+01  3.09128E+01  1.94647E+01  1.12231E+01  1.98141E+01  6.46961E+00  5.37903E-01  2.24664E+01
   1.78145E+01  1.10693E+01  2.96736E+01  2.61778E+01  4.13132E+01  4.79274E+01  4.83762E+01  5.85290E+01  6.64791E+01  7.67050E+01
   8.85820E+01  9.15249E+01  6.68292E+01  1.09115E+02  1.38841E+02  1.33633E+02  1.39947E+02  1.38033E+02  1.47489E+02  1.44156E+02
   1.40055E+02  1.20359E+02  1.09801E+02  8.82499E+01  8.09709E+01  7.65459E+01  7.57837E+01  7.42548E+01  4.36974E+01  4.67733E+01
   3.71823E+01  2.72061E+01  1.28105E+00  5.58150E+00  5.98283E+00 -9.32033E+00  8.98556E+00 -4.69489E+00 -1.84626E+01 -1.76119E+01
   6.80245E+00 -1.88148E+01 -3.02359E+00 -5.71003E+00 -4.00017E+01  1.11127E+01  1.24828E+01  9.94166E+00  1.67435E+01  2.97976E+01
   7.03791E+00 -8.01730E+00  3.10490E+00 -7.28814E+00  8.41639E+00  1.80230E+00  1.07504E+01  1.04571E+01  1.05367E+00 -9.71871E-01
   4.23405E+00 -7.92609E+00 -2.14987E+00  2.17105E+01  2.73856E+00  9.95051E+00  1.57246E+01  2.77413E+01  1.45933E+01  9.03893E+00
   2.66329E+01  2.55209E+01  2.93703E+01  3.14533E+01  3.99508E+01  3.10528E+01  4.15213E+01  3.86662E+01  4.62695E+01  4.82862E+01
   5.09409E+01  7.32759E+01  6.67806E+01  8.50408E+01  8.06021E+01  8.21791E+01  9.79030E+01  1.08313E+02  1.10055E+02  1.11926E+02
   1.12831E+02  8.85320E+01  7.87830E+01  5.42011E+01  4.91413E+01  4.00218E+01  2.92281E+01  3.65502E+01  2.73410E+01  1.16652E+01
   8.44605E-01 -3.98717E+00 -1.92354E+01 -1.90755E+01 -3.21478E+01 -3.88492E+01 -3.40302E+01 -3.38373E+01 -3.49696E+01 -4.28560E+01
  -3.25390E+01 -3.67989E+01 -4.47011E+01 -4.06261E+01 -3.39655E+01 -4.45568E+01 -5.39370E+01 -5.33136E+01 -4.38246E+01 -3.70174E+01
  -4.78530E+01 -3.80619E+01 -4.50776E+01 -4.50749E+01 -2.93038E+01 -4.35616E+01 -4.39892E+01 -2.64965E+01 -2.92232E+01 -4.30665E+01
  -4.88508E+01 -4.18557E+01 -3.67032E+01 -3.28112E+01 -3.60214E+01 -4.55824E+01 -1.88981E+01 -2.15701E+01 -2.03063E+01 -2.02228E+01
  -4.06500E+01 -2.68456E+01 -3.47533E+01 -2.53078E+01 -3.21696E+01 -2.77162E+01 -2.62638E+01 -3.94798E+01 -1.19064E+01 -2.58372E+01
  -3.25241E+01 -2.42785E+01 -1.82592E+01 -3.55425E+01 -3.01710E+01 -2.76306E+01 -3.93615E+01 -1.58826E+01 -4.20542E+01 -3.31153E+01
  -2.63933E+01 -2.71026E+01 -1.98219E+01 -3.19309E+01 -2.17634E+01 -2.36419E+01 -4.99773E+00 -2.24282E+01 -2.92569E+01 -1.23559E+01
  -2.02183E+01 -2.23541E+01 -2.48190E+01 -1.32507E+01 -1.91713E+01 -3.20895E+01 -2.67475E+01 -7.34026E+00 -2.06525E+01 -3.86947E+01
 NY points of the fit to the data follow
  -4.45743E+01 -4.62335E+01 -5.16208E+01 -6.06738E+01 -6.47724E+01 -4.83246E+01 -2.79211E+01 -2.47496E+01 -3.47804E+01 -4.43600E+01
  -5.24854E+01 -6.00986E+01 -6.22561E+01 -6.06859E+01 -6.04560E+01 -5.96918E+01 -5.55937E+01 -6.39133E+01 -6.22730E+01 -7.65510E+01
  -1.03835E+02 -7.86399E+01 -5.82199E+01 -4.75590E+01 -7.17254E+00  1.66127E+01  1.04073E+01  9.74208E+00  1.15706E+01  9.32127E+00
   9.04100E+00  7.67857E+00  6.62059E+00  4.78782E+00  8.87534E-01 -4.20360E+00 -5.47520E+00 -1.20214E+01 -2.17332E+01 -4.34616E+01
  -7.35216E+01 -8.11464E+01 -7.02134E+01 -5.60462E+01 -3.82629E+01 -1.05962E+01  9.45927E+00  1.66516E+01  2.13829E+01  2.38927E+01
   2.06196E+01  1.79225E+01  1.64409E+01  8.91234E+00  6.75110E-03 -1.29399E+01 -2.46606E+01 -1.84406E+01 -2.75680E+01 -4.06631E+01
  -1.84817E+01 -9.63716E+00 -1.65938E+01  1.39214E+00  2.02637E+01  2.49688E+01  2.58894E+01  2.28284E+01 -3.83054E-01 -3.64530E+01
  -3.76474E+01 -1.96156E+01 -2.03267E+01 -1.37627E+01  9.33948E+00  2.32451E+01  2.71490E+01  3.31263E+01  3.34304E+01  3.98139E+01
   3.49690E+01  2.13509E+01  4.77502E+00 -2.83569E+01 -4.69158E+01 -4.93399E+01 -4.12297E+01 -1.99377E+01  2.30160E+00  1.26190E+01
   2.03417E+01  2.63817E+01  2.98668E+01  3.35360E+01  3.75284E+01  4.25144E+01  4.43192E+01  4.78704E+01  4.81768E+01  4.32049E+01
   4.62346E+01  6.24183E+01  4.40078E+01  2.61398E+01  1.17063E+01 -2.84700E+01 -3.61898E+01 -3.60046E+01 -2.64995E+01 -7.28064E+01
  -1.65873E+02 -1.79927E+02 -1.35485E+02 -1.09734E+02 -8.92437E+01 -6.53052E+01 -5.68902E+01 -4.96402E+01 -4.24063E+01 -3.58201E+01
  -2.96401E+01 -2.26843E+01 -1.55511E+01 -7.97051E+00  1.56604E+00  1.42459E+01  2.75684E+01  3.07544E+01  5.85494E+01  7.08153E+01
   1.07111E+02  1.39460E+02  2.52878E+01 -1.00524E+02 -1.17198E+02 -1.06585E+02 -1.08698E+02 -9.08269E+01 -8.03736E+01 -8.15577E+01
  -8.09491E+01 -8.03003E+01 -8.09954E+01 -8.02850E+01 -8.04378E+01 -7.96975E+01 -7.70464E+01 -7.37096E+01 -6.97207E+01 -6.61952E+01
  -6.29719E+01 -6.00355E+01 -5.85676E+01 -5.70748E+01 -5.43937E+01 -5.13077E+01 -4.90192E+01 -4.80317E+01 -4.71606E+01 -4.63641E+01
  -4.45112E+01 -4.16299E+01 -4.12573E+01 -4.31769E+01 -4.38261E+01 -4.22150E+01 -3.92587E+01 -3.83025E+01 -4.19444E+01 -4.38566E+01
  -3.88369E+01 -2.48128E+01 -6.80114E+00 -7.16041E+00 -2.36299E+01 -2.76192E+01 -1.76818E+01 -2.97546E+00 -1.60608E+00 -2.03660E+01
  -3.44055E+01 -3.90665E+01 -4.45623E+01 -4.80757E+01 -4.79934E+01 -4.76970E+01 -4.70546E+01 -4.66001E+01 -4.38601E+01 -4.23826E+01
  -4.22829E+01 -3.90076E+01 -4.03961E+01 -4.17835E+01 -2.85726E+01 -2.15708E+01 -3.00050E+01 -2.81557E+01 -1.90207E+01 -1.66622E+01
  -1.93886E+01 -1.82737E+01 -7.83746E+00  5.83309E+00  7.40529E+00 -4.72255E-01 -3.90466E+00 -1.10239E+01 -2.53322E+01 -3.74247E+01
  -3.83295E+01 -4.97374E+01 -4.68532E+01 -3.25337E+01 -2.57850E+01  1.48387E+01  4.12742E+01  4.14965E+01  5.06936E+01  4.17172E+01
   1.91306E+01  1.21675E+01  1.14016E+01  1.27832E+01  1.76638E+01  1.85741E+01  1.80149E+01  1.29069E+01  3.52519E+00 -6.63868E+00
  -1.76279E+01 -2.97767E+01 -4.15448E+01 -5.05301E+01 -6.18276E+01 -7.21912E+01 -7.61614E+01 -8.15518E+01 -8.64596E+01 -7.78435E+01
  -7.81988E+01 -7.03316E+01 -5.33199E+01 -4.32281E+01 -2.44803E+01 -1.47572E+01 -1.17845E+01 -1.02131E+01 -1.77882E+01 -2.05107E+01
  -2.58531E+01 -3.24891E+01 -2.43851E+01 -2.82075E+01 -2.13624E+01 -4.85516E+01 -1.28341E+02 -6.69039E+01  9.90661E+01  1.55834E+02
   1.42810E+02  1.40383E+02  1.23106E+02  1.00856E+02  9.52657E+01  9.21015E+01  8.82040E+01  8.49827E+01  8.14640E+01  7.80065E+01
   7.71876E+01  7.64146E+01  7.69804E+01  7.76972E+01  7.81237E+01  7.80721E+01  7.70189E+01  7.58708E+01  7.52905E+01  7.41335E+01
   7.21858E+01  7.01077E+01  6.75897E+01  6.60852E+01  6.42197E+01  6.14762E+01  5.95145E+01  5.72945E+01  5.47043E+01  5.18778E+01
   4.77849E+01  4.37217E+01  3.99280E+01  3.49464E+01  3.06405E+01  2.86107E+01  2.87687E+01  3.05580E+01  3.36243E+01  3.65109E+01
   3.91242E+01  4.24761E+01  4.58784E+01  4.89757E+01  5.17481E+01  5.42500E+01  5.62112E+01  5.80920E+01  6.12923E+01  6.45563E+01
   6.68456E+01  6.89792E+01  7.05478E+01  7.19363E+01  7.41106E+01  7.50175E+01  7.49177E+01  7.51576E+01  7.39632E+01  7.09082E+01
   6.88199E+01  6.66459E+01  6.21285E+01  5.79374E+01  5.41581E+01  4.98469E+01  4.39048E+01  3.49417E+01  2.38265E+01  1.32431E+01
   4.02632E+00 -3.85623E+00 -9.65479E+00 -1.16524E+01 -1.02659E+01 -5.16690E+00  1.11229E+00  1.29298E+01  1.85002E+01  3.17256E+01
   3.40141E+01  1.29398E+01  1.49532E+00 -1.20851E+01 -2.15447E+01 -1.20407E+01  1.88873E+00  6.24884E+00  1.13369E+01  1.45128E+01
   1.39298E+01  1.21871E+01  9.28695E+00  4.78846E+00 -1.22222E+00 -6.67084E+00 -9.31240E+00 -1.06501E+01 -1.02427E+01 -8.00204E+00
  -5.09068E+00 -1.34389E+00  2.96763E+00  7.13910E+00  1.11871E+01  1.48949E+01  1.82346E+01  2.13592E+01  2.41064E+01  2.73602E+01
   3.07299E+01  3.34889E+01  3.67860E+01  4.03536E+01  4.34281E+01  4.78533E+01  5.35800E+01  5.82829E+01  6.42293E+01  7.20830E+01
   7.90708E+01  8.55989E+01  9.43100E+01  1.03703E+02  1.11875E+02  1.19325E+02  1.24347E+02  1.24336E+02  1.17722E+02  1.05638E+02
   9.03896E+01  7.68575E+01  6.58861E+01  5.68069E+01  5.00569E+01  4.48198E+01  3.79504E+01  2.77506E+01  1.77892E+01  7.23011E+00
  -3.81888E+00 -1.18688E+01 -1.72767E+01 -2.18083E+01 -2.53088E+01 -2.71157E+01 -2.79102E+01 -2.88405E+01 -2.97830E+01 -3.09654E+01
  -3.20811E+01 -3.29355E+01 -3.30217E+01 -3.29989E+01 -3.33445E+01 -3.32428E+01 -3.28654E+01 -3.25419E+01 -3.37482E+01 -3.41966E+01
  -3.28789E+01 -3.24552E+01 -3.31014E+01 -3.31894E+01 -3.26933E+01 -3.26455E+01 -3.27727E+01 -3.32922E+01 -3.29878E+01 -3.19334E+01
  -3.16699E+01 -3.18058E+01 -3.19821E+01 -3.21900E+01 -3.26818E+01 -3.22739E+01 -3.18763E+01 -3.17684E+01 -3.12614E+01 -3.08695E+01
  -3.07749E+01 -3.06417E+01 -3.01715E+01 -3.02082E+01 -3.07303E+01 -3.13081E+01 -3.11924E+01 -3.05472E+01 -3.04078E+01 -3.02258E+01
  -2.97083E+01 -3.01281E+01 -3.06615E+01 -2.98952E+01 -2.94880E+01 -2.94044E+01 -2.89647E+01 -2.87778E+01 -2.88125E+01 -2.84833E+01
  -2.81879E+01 -2.82933E+01 -2.82430E+01 -2.87032E+01 -2.86997E+01 -2.86518E+01 -2.84749E+01 -2.77297E+01 -2.66331E+01 -2.61200E+01
  -2.64518E+01 -2.68312E+01 -2.73621E+01 -2.74267E+01 -2.68010E+01 -2.67505E+01 -2.69319E+01 -2.61795E+01 -2.60080E+01 -2.68414E+01
 NY background values follow
    -1.617E+01   -1.615E+01   -1.613E+01   -1.611E+01   -1.609E+01   -1.607E+01   -1.605E+01   -1.604E+01   -1.602E+01   -1.600E+01
    -1.598E+01   -1.596E+01   -1.594E+01   -1.592E+01   -1.590E+01   -1.588E+01   -1.586E+01   -1.584E+01   -1.582E+01   -1.580E+01
    -1.577E+01   -1.575E+01   -1.573E+01   -1.570E+01   -1.568E+01   -1.565E+01   -1.563E+01   -1.560E+01   -1.558E+01   -1.555E+01
    -1.552E+01   -1.549E+01   -1.546E+01   -1.543E+01   -1.540E+01   -1.537E+01   -1.534E+01   -1.530E+01   -1.527E+01   -1.524E+01
    -1.520E+01   -1.517E+01   -1.513E+01   -1.509E+01   -1.505E+01   -1.502E+01   -1.498E+01   -1.494E+01   -1.490E+01   -1.485E+01
    -1.481E+01   -1.477E+01   -1.473E+01   -1.468E+01   -1.464E+01   -1.459E+01   -1.454E+01   -1.450E+01   -1.445E+01   -1.440E+01
    -1.435E+01   -1.430E+01   -1.425E+01   -1.420E+01   -1.415E+01   -1.410E+01   -1.404E+01   -1.399E+01   -1.393E+01   -1.388E+01
    -1.382E+01   -1.376E+01   -1.371E+01   -1.365E+01   -1.359E+01   -1.353E+01   -1.347E+01   -1.341E+01   -1.334E+01   -1.328E+01
    -1.322E+01   -1.315E+01   -1.309E+01   -1.302E+01   -1.295E+01   -1.288E+01   -1.282E+01   -1.275E+01   -1.268E+01   -1.260E+01
    -1.253E+01   -1.246E+01   -1.239E+01   -1.231E+01   -1.224E+01   -1.216E+01   -1.208E+01   -1.200E+01   -1.193E+01   -1.185E+01
    -1.176E+01   -1.168E+01   -1.160E+01   -1.152E+01   -1.143E+01   -1.135E+01   -1.126E+01   -1.117E+01   -1.108E+01   -1.099E+01
    -1.090E+01   -1.081E+01   -1.072E+01   -1.062E+01   -1.053E+01   -1.043E+01   -1.034E+01   -1.024E+01   -1.014E+01   -1.004E+01
    -9.935E+00   -9.832E+00   -9.728E+00   -9.623E+00   -9.516E+00   -9.409E+00   -9.300E+00   -9.191E+00   -9.081E+00   -8.970E+00
    -8.857E+00   -8.744E+00   -8.631E+00   -8.516E+00   -8.401E+00   -8.285E+00   -8.168E+00   -8.051E+00   -7.933E+00   -7.814E+00
    -7.695E+00   -7.575E+00   -7.455E+00   -7.334E+00   -7.213E+00   -7.092E+00   -6.970E+00   -6.847E+00   -6.725E+00   -6.602E+00
    -6.479E+00   -6.356E+00   -6.233E+00   -6.109E+00   -5.985E+00   -5.861E+00   -5.737E+00   -5.613E+00   -5.489E+00   -5.365E+00
    -5.241E+00   -5.117E+00   -4.993E+00   -4.870E+00   -4.746E+00   -4.622E+00   -4.499E+00   -4.376E+00   -4.253E+00   -4.130E+00
    -4.007E+00   -3.885E+00   -3.763E+00   -3.642E+00   -3.521E+00   -3.400E+00   -3.279E+00   -3.159E+00   -3.040E+00   -2.921E+00
    -2.803E+00   -2.685E+00   -2.567E+00   -2.450E+00   -2.334E+00   -2.218E+00   -2.103E+00   -1.988E+00   -1.874E+00   -1.761E+00
    -1.647E+00   -1.535E+00   -1.423E+00   -1.311E+00   -1.200E+00   -1.090E+00   -9.802E-01   -8.708E-01   -7.621E-01   -6.538E-01
    -5.461E-01   -4.390E-01   -3.323E-01   -2.263E-01   -1.208E-01   -1.577E-02    8.867E-02    1.926E-01    2.959E-01    3.987E-01
     5.010E-01    6.026E-01    7.037E-01    8.042E-01    9.041E-01    1.003E+00    1.102E+00    1.199E+00    1.296E+00    1.393E+00
     1.488E+00    1.583E+00    1.676E+00    1.769E+00    1.861E+00    1.952E+00    2.042E+00    2.130E+00    2.218E+00    2.305E+00
     2.391E+00    2.475E+00    2.558E+00    2.641E+00    2.722E+00    2.801E+00    2.880E+00    2.957E+00    3.033E+00    3.107E+00
     3.180E+00    3.252E+00    3.322E+00    3.391E+00    3.459E+00    3.525E+00    3.590E+00    3.654E+00    3.717E+00    3.778E+00
     3.838E+00    3.898E+00    3.955E+00    4.012E+00    4.068E+00    4.123E+00    4.177E+00    4.229E+00    4.281E+00    4.332E+00
     4.382E+00    4.431E+00    4.479E+00    4.526E+00    4.572E+00    4.618E+00    4.663E+00    4.707E+00    4.750E+00    4.793E+00
     4.834E+00    4.876E+00    4.916E+00    4.956E+00    4.994E+00    5.032E+00    5.068E+00    5.104E+00    5.138E+00    5.171E+00
     5.202E+00    5.233E+00    5.261E+00    5.288E+00    5.314E+00    5.338E+00    5.360E+00    5.380E+00    5.399E+00    5.415E+00
     5.430E+00    5.442E+00    5.452E+00    5.460E+00    5.466E+00    5.469E+00    5.470E+00    5.469E+00    5.465E+00    5.458E+00
     5.448E+00    5.436E+00    5.421E+00    5.403E+00    5.382E+00    5.357E+00    5.330E+00    5.299E+00    5.265E+00    5.228E+00
     5.187E+00    5.142E+00    5.094E+00    5.042E+00    4.986E+00    4.926E+00    4.862E+00    4.794E+00    4.722E+00    4.646E+00
     4.566E+00    4.481E+00    4.391E+00    4.297E+00    4.198E+00    4.095E+00    3.987E+00    3.874E+00    3.756E+00    3.632E+00
     3.504E+00    3.371E+00    3.233E+00    3.090E+00    2.942E+00    2.790E+00    2.633E+00    2.473E+00    2.308E+00    2.139E+00
     1.967E+00    1.790E+00    1.611E+00    1.428E+00    1.242E+00    1.052E+00    8.599E-01    6.649E-01    4.672E-01    2.670E-01
     6.438E-02   -1.404E-01   -3.473E-01   -5.562E-01   -7.668E-01   -9.792E-01   -1.193E+00   -1.408E+00   -1.625E+00   -1.842E+00
    -2.061E+00   -2.280E+00   -2.500E+00   -2.721E+00   -2.943E+00   -3.165E+00   -3.387E+00   -3.610E+00   -3.834E+00   -4.057E+00
    -4.281E+00   -4.505E+00   -4.729E+00   -4.953E+00   -5.176E+00   -5.400E+00   -5.623E+00   -5.846E+00   -6.069E+00   -6.291E+00
    -6.512E+00   -6.733E+00   -6.953E+00   -7.173E+00   -7.391E+00   -7.609E+00   -7.825E+00   -8.041E+00   -8.255E+00   -8.468E+00
    -8.680E+00   -8.890E+00   -9.099E+00   -9.307E+00   -9.513E+00   -9.718E+00   -9.922E+00   -1.012E+01   -1.032E+01   -1.052E+01
    -1.072E+01   -1.092E+01   -1.111E+01   -1.131E+01   -1.150E+01   -1.169E+01   -1.188E+01   -1.206E+01   -1.225E+01   -1.243E+01
    -1.262E+01   -1.280E+01   -1.298E+01   -1.315E+01   -1.333E+01   -1.351E+01   -1.368E+01   -1.385E+01   -1.402E+01   -1.419E+01
    -1.435E+01   -1.452E+01   -1.468E+01   -1.484E+01   -1.500E+01   -1.516E+01   -1.532E+01   -1.547E+01   -1.563E+01   -1.578E+01
    -1.593E+01   -1.608E+01   -1.623E+01   -1.638E+01   -1.653E+01   -1.667E+01   -1.682E+01   -1.696E+01   -1.710E+01   -1.724E+01
    -1.738E+01   -1.752E+01   -1.766E+01   -1.780E+01   -1.793E+01   -1.807E+01   -1.821E+01   -1.834E+01   -1.847E+01   -1.861E+01
    -1.874E+01   -1.887E+01   -1.901E+01   -1.914E+01   -1.927E+01   -1.940E+01   -1.953E+01   -1.966E+01   -1.979E+01   -1.992E+01
    -2.004E+01   -2.017E+01   -2.030E+01   -2.043E+01   -2.055E+01   -2.068E+01   -2.081E+01   -2.094E+01   -2.106E+01   -2.119E+01
    -2.132E+01   -2.144E+01   -2.157E+01   -2.169E+01   -2.182E+01   -2.195E+01   -2.207E+01   -2.220E+01   -2.233E+01   -2.245E+01
 Mac      Conc. = 3.07E-04
  -3.84514E+01 -3.89230E+01 -3.91702E+01 -3.90828E+01 -3.90422E+01 -3.98790E+01 -4.14506E+01 -4.37820E+01 -4.59346E+01 -4.80081E+01
  -4.91127E+01 -4.90465E+01 -4.88973E+01 -4.78821E+01 -4.86437E+01 -5.11891E+01 -5.49174E+01 -5.63046E+01 -5.05794E+01 -4.34596E+01
  -3.98674E+01 -3.49446E+01 -2.96629E+01 -2.78545E+01 -2.77571E+01 -2.69903E+01 -2.55557E+01 -2.40556E+01 -2.15703E+01 -1.90862E+01
  -1.71606E+01 -1.59053E+01 -1.46310E+01 -1.37494E+01 -1.44187E+01 -1.59293E+01 -1.65591E+01 -1.47583E+01 -1.08713E+01 -7.10034E+00
  -6.42234E+00 -7.81012E+00 -8.19917E+00 -7.61986E+00 -5.67791E+00 -3.57691E+00 -2.65027E+00 -2.98663E+00 -3.97483E+00 -5.17625E+00
  -7.50236E+00 -9.31278E+00 -9.98282E+00 -1.06125E+01 -1.13593E+01 -1.16204E+01 -1.19239E+01 -1.07869E+01 -8.11955E+00 -6.99266E+00
  -5.99226E+00 -3.02747E+00 -1.86922E+00 -2.39123E+00 -3.20586E+00 -4.69212E+00 -5.88099E+00 -6.30585E+00 -6.69558E+00 -8.06758E+00
  -7.70891E+00 -4.31904E+00 -2.27870E-01  2.03634E+00  3.55887E+00  4.48486E+00  4.16898E+00  3.13768E+00  2.00273E+00  1.10321E+00
   4.73750E-01  1.22564E-01 -9.04431E-01 -4.37480E-01  7.20535E-01  1.63664E+00  2.84493E+00  3.96645E+00  4.95183E+00  5.37647E+00
   5.73446E+00  6.46600E+00  6.80047E+00  6.70348E+00  7.03520E+00  5.54400E+00  2.94913E+00  2.43157E-01 -3.02313E+00 -6.18768E+00
  -7.47048E+00 -8.68494E+00 -1.14837E+01 -1.41195E+01 -1.74002E+01 -2.30580E+01 -3.09586E+01 -4.03923E+01 -4.66243E+01 -4.85373E+01
