 
 $NMID
 ID=''
 FMTDAT='(2E13.5)'
 TRAMP=   1.00000E+0
 VOLUME=   1.00000E+0
 $END
   3.42535E+3   2.24941E+4
   2.69122E+4   2.76931E+4
   3.93643E+4  -2.13191E+4
  -1.68112E+4  -3.62791E+4
  -4.36895E+4   1.08859E+4
   4.97270E+3   3.45624E+4
   3.63962E+4   1.59112E+3
   6.16509E+3  -2.43294E+4
  -2.51693E+4  -8.75996E+3
  -1.62360E+4   1.66811E+4
   1.02607E+4   1.50184E+4
   1.52647E+4  -6.99222E+3
  -4.95137E+3  -1.33842E+4
  -1.42622E+4  -9.06626E+2
   1.06013E+2   6.55079E+3
   1.03008E+4   2.60590E+3
   3.41768E+3  -1.80711E+3
  -3.89106E+3  -3.83838E+3
  -2.80203E+3  -9.05908E+2
   4.68258E+2   4.81889E+3
   1.64319E+3   2.61620E+3
   2.17302E+3  -2.19634E+3
   1.17171E+3  -8.96188E+2
  -2.13817E+3   5.77892E+2
  -2.63193E+3  -4.74334E+2
   1.91355E+3   1.06557E+3
   2.82925E+3   2.10968E+3
  -1.48976E+3  -1.04089E+3
  -2.63330E+3  -2.90400E+3
   2.92870E+2   9.75657E+1
   1.43899E+3   2.52911E+3
   2.35417E+2   7.67689E+2
  -1.49635E+3  -2.51279E+3
  -1.34414E+3  -2.44347E+3
   1.31490E+3  -6.91881E+2
   2.75599E+3   1.70606E+3
   1.02066E+2   1.76546E+3
  -1.70492E+3  -4.29042E+2
  -2.71862E+2  -9.08649E+2
   3.00983E+1   5.63047E+2
  -1.34802E+3  -1.21646E+1
   2.61235E+1  -1.55849E+3
   2.10493E+3  -5.01549E+2
   1.19911E+3   8.36652E+2
  -3.85852E+2   2.89085E+2
  -1.07789E+2   9.30461E+2
  -7.96738E+2   1.62547E+3
  -1.71084E+3   1.01075E+2
  -9.45582E+2  -2.29040E+3
   7.07293E+2  -1.43124E+3
   5.54289E+2  -2.94889E+1
   3.53496E+2  -6.78112E+1
   4.85039E+2  -2.62579E+2
   4.36166E+2   2.03853E+2
  -2.56826E+2   7.08237E+2
  -5.27543E+2   1.19897E+2
  -9.79582E+2  -6.51393E+2
  -1.33093E+1  -7.42522E+2
   1.39945E+3  -2.85396E+2
   9.43765E+2   4.18330E+2
  -2.25177E+2   5.06355E+2
  -1.68107E+2   6.96293E+2
  -2.09325E+2   1.15670E+3
  -1.40652E+3   3.78480E+2
  -2.07905E+3  -9.96857E+2
  -7.49919E+2  -1.66110E+3
   9.86654E+2  -9.54758E+2
   1.37469E+3  -3.79739E+2
   5.69464E+2   1.87077E+2
  -4.47410E+2   3.38218E+2
  -4.04064E+2  -3.07746E+1
   5.47884E+2  -3.01840E+2
   1.07429E+3   4.50628E+2
  -1.41016E+2   1.04569E+3
  -5.37888E+2   3.01669E+2
  -2.60110E+2  -1.41439E+2
   3.66577E+2   1.72638E+2
  -5.87780E+1   4.66996E+2
  -6.25308E+2   3.50063E+2
  -8.15560E+2  -2.20586E+2
  -6.54449E+2  -2.14287E+2
   8.58230E+0  -2.84858E+2
   2.32018E+2  -2.06833E+2
  -2.06652E+2  -1.57407E+1
  -1.31229E+2  -3.88226E+2
   3.47028E+2  -4.44246E+2
   5.23986E+2   1.68873E+2
   2.12278E+2   8.09286E+2
  -2.60940E+2   3.05463E+2
   3.04165E+2   7.00909E+1
   4.52401E+2   6.89043E+2
  -5.48649E+1   1.05573E+3
  -8.36845E+2   8.41086E+2
  -9.22950E+2   1.64111E+2
  -8.18595E+1  -5.94974E+2
   6.47820E+2  -7.10984E+2
   4.96059E+2   9.22022E+1
  -8.45238E+0   2.16850E+2
   1.09761E+2   1.27970E+1
   8.62439E+2  -2.75942E+2
   8.39500E+2   6.52806E+2
  -4.03592E+1   7.47518E+2
  -3.43978E+2   1.37865E+2
  -4.02322E+2  -6.75670E+2
   4.47171E+2  -3.49913E+2
   9.75598E+2   6.69698E+2
  -7.68549E+1   8.90863E+2
  -1.00799E+3  -4.20287E+1
  -3.74466E+2  -1.16404E+3
   9.17798E+2  -8.96397E+2
   1.12872E+3  -9.73238E+1
   5.03501E+2   4.12049E+2
   1.11838E+2   6.28502E+1
   2.36984E+2   2.14399E+2
  -1.53738E+1   2.89919E+2
  -2.27186E+2   3.16715E+2
  -6.83836E+2  -2.07283E+1
  -7.51501E+2  -5.38445E+2
  -1.61404E+1  -1.09191E+3
   6.98941E+2  -9.03707E+2
   6.36359E+2  -2.20539E+1
   4.37141E+2   4.59875E+2
   5.47179E+1   1.78378E+2
   2.26997E+2   3.54314E+2
  -2.86857E+2  -9.53580E+1
  -3.29079E+2  -1.66053E+2
  -1.69306E+2  -4.67264E+2
   1.83924E+2  -2.45839E+2
   3.66424E+2   1.51277E+2
   3.77693E+1   4.78872E+2
  -3.15915E+2   5.69909E+2
  -6.99313E+2  -1.71002E+2
  -1.94947E+2  -2.95196E+2
   5.92873E+1  -1.81781E+2
   1.39541E+2  -8.22587E+1
  -1.34127E+2  -2.03434E+2
   1.67794E+2   5.71173E+1
   5.57980E+2   5.41930E+1
   1.26584E+2   5.41860E+2
  -3.09711E+2   4.31372E+2
  -4.86831E+2  -1.67114E+1
  -1.66514E+2  -5.61012E+2
   5.91186E+2  -3.95265E+2
   6.73613E+2   5.75287E+2
  -5.86750E+1   7.67118E+2
  -4.23211E+2   3.83016E+2
  -1.60654E+2  -9.24691E+1
  -8.95619E+1   1.96175E+2
  -3.14870E+2   1.44429E+2
  -2.10702E+2  -1.63227E+2
   1.11645E+2  -2.84128E+2
   4.65294E+2  -4.81503E+2
   5.44447E+2  -3.03603E+1
   3.48016E+2   6.61731E+2
  -6.62751E+1   5.32619E+2
  -5.69932E+1  -1.27967E+2
   1.90652E+2   2.06528E+1
   1.78681E+2   3.71792E+2
  -8.17035E+1   1.30213E+2
   2.02864E+2   2.15738E+2
   7.00146E+1  -6.38149E+1
   2.14240E+1   4.55585E+2
  -3.20091E+2   1.24182E+2
  -1.28989E+2  -3.68056E+2
  -1.03460E+2  -3.04802E+2
   5.59550E+2  -3.00753E+2
   2.62482E+2   1.95959E+2
   1.81121E+2   1.74580E+2
   1.21368E+2  -7.97889E+1
   1.64496E+2  -2.15496E+2
   2.19574E+2   9.78098E+1
  -2.31872E+1   1.65124E+1
  -4.05663E+0   9.23998E+1
   6.74886E+1   2.35069E+1
   1.71825E+2  -8.97859E+0
   2.70784E+2  -7.41802E+1
   4.05276E+1   4.24279E+2
  -4.13337E+2   1.52174E+2
  -2.96033E+2  -5.27911E+2
   3.11685E+2  -3.71530E+2
   3.25712E+2   2.89955E+2
   2.34558E+2   4.32774E+2
  -1.94724E+2   2.26398E+2
  -2.59968E+2   7.44148E+1
  -1.63812E+2  -2.22367E+2
   3.81504E+0   4.88681E+1
  -2.71683E+2  -1.53839E+2
   6.42311E+1  -1.54236E+2
   4.34868E+2  -1.03341E+2
   4.75805E+2  -9.12745E+1
   3.34296E+2   5.11156E+2
  -1.53649E+2   2.69707E+2
  -3.59384E+2   3.35360E+1
  -2.62588E+2  -2.87258E+2
   3.45472E+1  -4.18172E+2
  -3.58276E+1  -1.04996E+2
  -5.26224E+1  -3.80720E+1
  -2.48688E+1   1.96885E+2
   1.50500E+2  -2.31455E+1
   4.21032E+1   3.84449E+2
  -3.83596E+2   1.79823E+2
  -3.62254E+2  -2.43206E+2
  -1.27827E+2  -3.30056E+2
   2.61680E+2  -1.72720E+2
   2.19020E+2  -1.49632E+2
  -6.51360E+1  -2.57460E+0
  -2.29392E+1   9.56022E+1
  -1.16868E+2   9.97059E+1
   1.25707E+2  -2.17659E+2
   1.03376E+2   2.47088E+1
   3.63938E+1  -4.40639E+2
   2.74888E+2  -2.57217E+1
   2.02537E+2  -3.22816E+2
   1.92570E+2   3.45983E+2
  -1.20778E+2   2.43232E+2
  -3.47373E+2   7.21942E+0
  -3.60721E+2  -2.17478E+1
   3.62877E+1  -1.46461E+2
   1.07338E+2  -3.91565E+2
  -1.78327E+1  -1.32331E+2
  -3.92911E+1   2.15051E+1
   1.49739E+2  -1.89872E+2
   1.01476E+1   3.45248E+2
   1.20121E+1   2.75332E+2
  -3.14377E+2  -1.91839E+0
  -7.60068E+1  -4.07666E+2
  -8.83416E+1  -2.60600E+2
   1.34860E+2  -1.12250E+2
   2.34414E+2   2.04111E+2
  -1.51421E+2  -2.30154E+0
  -5.88705E+1  -1.18064E+2
  -2.03098E+2   4.88010E+1
   5.06248E+1  -1.56052E+2
  -1.66419E+2  -8.46829E+1
  -8.45872E+0   3.66269E+0
  -2.54160E+2  -8.79610E+0
  -7.92034E+1  -3.03185E+1
  -5.64130E+1   9.08436E+1
  -6.49701E+1  -2.11821E+2
  -2.98480E+2  -1.18212E+2
  -1.82821E+2  -9.22303E+1
  -2.78666E+0   3.52098E+2
  -1.21385E+2   2.16859E+2
  -1.13824E+2   3.19219E+2
   2.08119E+1  -1.44606E+2
   9.60799E+1   1.64640E+1
  -7.66944E+1  -7.13877E+1
  -8.03744E+1  -1.32176E+2
   3.84911E+1  -1.60421E+2
  -1.06879E+2  -2.28724E+2
  -7.50385E+1  -2.27476E+2
   8.31874E+1   3.37773E+2
  -1.43138E+2   1.35197E+2
  -2.09118E+1  -7.82179E+1
  -3.13580E+1  -9.80358E+1
   6.41374E+1  -1.63036E+2
   6.34015E+1   2.52026E+2
  -1.37126E+2   8.62664E+1
   5.43219E+1   1.34695E+2
  -1.75091E+2  -1.31946E+2
   1.09304E+2  -8.03958E+1
  -2.37123E+2  -1.74656E+2
  -2.10440E+2   1.48241E+2
  -4.63672E+1  -1.90750E+2
   1.68379E+2  -2.75514E+2
   6.91576E+0   7.26827E+1
   7.72811E+1   1.40085E+2
  -1.84143E+2  -1.42201E+2
  -1.34604E+2   4.79217E+1
  -1.79159E+1  -2.27705E+2
   6.45635E+1  -1.95298E+1
   1.07770E+2  -3.16541E+1
   1.32442E+2  -1.15301E+2
   4.13212E+1  -2.00724E+2
   1.33881E+1   1.55524E+2
  -7.28301E+1   8.21515E+1
  -1.98915E+2  -1.13233E+2
  -1.44637E+2   7.84796E+1
   1.47298E+2  -1.30026E+2
  -7.87832E+1  -4.42541E+1
  -1.47857E+2   2.61275E+1
   7.67418E+1   6.44572E+0
  -5.55458E+1   9.81364E-1
  -1.81550E+2  -2.47991E+1
  -3.79536E+2   6.96954E+1
  -4.23806E+2   6.74868E+1
  -1.08796E+2  -3.01343E+2
   5.40287E+1  -8.54375E+1
   9.83362E+1  -1.10844E+2
   4.73872E+1   1.59485E+2
  -9.56561E+1   5.11729E+1
  -1.12588E+2  -4.07384E+1
   1.65304E+1   1.25133E+1
  -2.42103E+2  -1.82334E+1
  -2.08090E+2  -1.75550E+2
   8.86609E+0   5.41220E+1
   5.45232E+1  -4.72160E+2
   2.98019E+1   1.44009E+2
   1.76687E+2  -8.78102E+1
  -1.03577E+2   8.57548E+1
  -7.54371E+1  -1.16954E+2
   7.04927E+1  -9.50860E+1
   1.17133E+2   3.92740E+1
  -7.72120E+1   4.62172E+1
  -1.12385E+2   2.06744E+2
  -3.97097E+1  -8.58836E+1
  -1.03627E+2   1.77368E+2
  -4.69419E+1  -1.31607E+2
  -1.29790E+0  -6.36850E+1
  -2.27895E+2  -1.18207E+1
  -5.32506E+1  -1.72750E+2
   6.83229E+1   6.27458E+1
  -2.88550E+1  -1.60613E+2
  -2.16635E+0  -1.39665E+2
  -2.25362E+2  -1.42517E+1
   1.94211E+1  -1.54582E+2
  -7.56792E+1   6.56328E+1
   1.39017E+2   1.32201E+2
  -1.44595E+2  -1.11669E+1
  -7.56038E+1   3.78149E+1
   2.30466E+2  -4.54299E+1
   7.41574E+1  -2.55962E+2
  -1.40726E+2   1.06882E+2
  -2.01298E+2  -8.02098E+1
   1.10780E+2   6.00004E+0
   1.92404E+2   1.35876E+2
  -4.84317E+1  -1.59527E+2
  -2.34165E+2   2.30340E+1
  -1.59668E+2   1.10569E+2
   1.02790E+2  -1.10319E+2
   3.48909E+1  -7.88561E+1
   1.67060E+2   4.46848E+1
  -8.18288E+1  -9.24735E+1
   6.36737E+0   9.69582E+1
  -1.86216E+2  -1.11174E+2
   2.19435E+1   3.76273E+0
  -6.32014E+1  -2.87585E+2
  -7.30163E+1  -3.32229E+1
  -6.98895E+1  -5.37311E+1
  -7.74637E+1  -3.21273E+1
  -1.04746E+2  -8.34004E+1
   6.82372E+0   2.78920E+1
  -4.03360E+1  -1.00482E+2
   8.75959E+1  -1.09594E+2
   1.64190E+2  -9.27245E+1
  -3.83754E+1  -6.03289E+1
   1.39745E+2  -2.13356E+2
  -2.51310E+2  -2.40545E+2
   9.10680E+1  -8.48510E+1
  -5.00906E+0  -1.21811E+2
   1.64831E+2   9.89277E+1
   1.47085E+2  -9.87098E+1
  -2.47311E+0  -2.14209E+2
  -1.34278E+2  -2.04498E+2
  -1.06998E+2  -1.53103E+2
  -9.29825E+1  -8.03045E+1
   1.14771E+2  -1.35265E+2
   4.73175E+1   1.96619E+1
   1.59352E+2   5.98276E+1
  -1.81579E+1  -2.65986E+2
  -4.74900E+2  -1.66262E+2
   4.25781E+0  -1.18359E+2
  -7.77514E+1  -6.46353E+1
   1.18606E+2   2.27106E+1
   1.63203E+2   2.15611E+2
  -1.12894E+2  -7.84633E+1
   1.58960E+1  -1.87155E+2
