 LCModel (Version 6.3-1N) Copyright: S.W. Provencher.          Ref.: Magn. Reson. Med. 30:672-679 (1993).                
 Slice_N1@18_10  28-Feb-2025 11:37:41
 27 lines in following concentration table = NCONC+1
    Conc.  %SD /Cr+PCr  Metabolite                                         
 2.59E-04   6% 2.0E-04 Mac                                                 
    5.519  39%   4.274 Cr                                                  
    4.811  45%   3.726 PCr                                                 
    7.199  15%   5.576 Ins                                                 
   12.134   8%   9.398 NAA                                                 
    8.086  14%   6.262 Tau                                                 
    2.221  18%   1.720 PCho                                                
    0.000 999%   0.000 GPC                                                 
   12.446  10%   9.640 Glu                                                 
    3.635  27%   2.816 Gln                                                 
    0.000 999%   0.000 Ala                                                 
    3.278  47%   2.539 Asc                                                 
    3.087  40%   2.391 Asp                                                 
    0.560 117%   0.434 GABA                                                
    0.576 145%   0.446 Glc                                                 
    1.403  43%   1.086 GSH                                                 
    6.218  14%   4.816 Lac                                                 
    1.498  59%   1.160 NAAG                                                
    0.681 227%   0.528 PE                                                  
    2.221  18%   1.720 GPC+PCho                                            
   13.632   7%  10.558 NAA+NAAG                                            
   16.082  10%  12.455 Glu+Gln                                             
   10.329   8%   8.000 Cr+PCr                                              
   13.632   7%  10.558 NAA+NAAG                                            
   10.329   8%   8.000 Cr+PCr                                              
   16.082  10%  12.455 Glu+Gln                                             
   6 lines in following misc. output table
  FWHM = 0.041 ppm    S/N =   4                                            
  Data shift = 0.008 ppm                                                   
  Ph:-172 deg       0.0 deg/ppm                                            
  alphaB,S = 9.3E-02,   3.8E+01                                            
   19 spline knots.   Ns = 5(1)                                            
  ( 5) 2 infls.   ( 2) 1 extrs.                                            
  480 points on ppm-axis = NY
      4.100000     4.091866     4.083733     4.075600     4.067466     4.059333     4.051199     4.043066     4.034933     4.026799
      4.018666     4.010532     4.002399     3.994265     3.986132     3.977998     3.969864     3.961731     3.953597     3.945463
      3.937330     3.929196     3.921062     3.912929     3.904795     3.896662     3.888528     3.880394     3.872261     3.864127
      3.855993     3.847860     3.839726     3.831592     3.823459     3.815325     3.807191     3.799058     3.790924     3.782790
      3.774657     3.766523     3.758389     3.750256     3.742122     3.733989     3.725855     3.717721     3.709588     3.701454
      3.693320     3.685187     3.677053     3.668919     3.660786     3.652652     3.644518     3.636385     3.628251     3.620117
      3.611984     3.603850     3.595716     3.587583     3.579449     3.571316     3.563182     3.555048     3.546915     3.538781
      3.530647     3.522514     3.514380     3.506246     3.498113     3.489979     3.481845     3.473712     3.465578     3.457444
      3.449311     3.441177     3.433043     3.424910     3.416776     3.408643     3.400509     3.392375     3.384242     3.376108
      3.367974     3.359841     3.351707     3.343573     3.335440     3.327306     3.319172     3.311039     3.302905     3.294771
      3.286638     3.278504     3.270370     3.262237     3.254103     3.245970     3.237836     3.229702     3.221569     3.213435
      3.205301     3.197168     3.189034     3.180900     3.172767     3.164633     3.156499     3.148366     3.140232     3.132098
      3.123965     3.115831     3.107697     3.099564     3.091430     3.083297     3.075163     3.067029     3.058896     3.050762
      3.042628     3.034495     3.026361     3.018227     3.010094     3.001960     2.993826     2.985693     2.977559     2.969425
      2.961292     2.953158     2.945024     2.936891     2.928757     2.920624     2.912490     2.904356     2.896223     2.888089
      2.879955     2.871822     2.863688     2.855554     2.847421     2.839287     2.831153     2.823020     2.814886     2.806752
      2.798619     2.790485     2.782351     2.774218     2.766084     2.757951     2.749817     2.741683     2.733550     2.725416
      2.717282     2.709149     2.701015     2.692881     2.684748     2.676614     2.668480     2.660347     2.652213     2.644079
      2.635946     2.627812     2.619678     2.611545     2.603411     2.595278     2.587144     2.579010     2.570877     2.562743
      2.554609     2.546476     2.538342     2.530208     2.522075     2.513941     2.505807     2.497674     2.489540     2.481406
      2.473273     2.465139     2.457006     2.448872     2.440738     2.432605     2.424471     2.416337     2.408204     2.400070
      2.391936     2.383803     2.375669     2.367535     2.359402     2.351268     2.343134     2.335001     2.326867     2.318733
      2.310600     2.302466     2.294333     2.286199     2.278065     2.269932     2.261798     2.253664     2.245531     2.237397
      2.229263     2.221130     2.212996     2.204862     2.196729     2.188595     2.180461     2.172328     2.164194     2.156060
      2.147927     2.139793     2.131660     2.123526     2.115392     2.107259     2.099125     2.090991     2.082858     2.074724
      2.066590     2.058457     2.050323     2.042189     2.034056     2.025922     2.017788     2.009655     2.001521     1.993387
      1.985254     1.977120     1.968987     1.960853     1.952719     1.944586     1.936452     1.928318     1.920185     1.912051
      1.903917     1.895784     1.887650     1.879516     1.871383     1.863249     1.855115     1.846982     1.838848     1.830714
      1.822581     1.814447     1.806314     1.798180     1.790046     1.781913     1.773779     1.765645     1.757512     1.749378
      1.741244     1.733111     1.724977     1.716843     1.708710     1.700576     1.692442     1.684309     1.676175     1.668041
      1.659908     1.651774     1.643641     1.635507     1.627373     1.619240     1.611106     1.602972     1.594839     1.586705
      1.578571     1.570438     1.562304     1.554170     1.546037     1.537903     1.529769     1.521636     1.513502     1.505368
      1.497235     1.489101     1.480968     1.472834     1.464700     1.456567     1.448433     1.440299     1.432166     1.424032
      1.415898     1.407765     1.399631     1.391497     1.383364     1.375230     1.367096     1.358963     1.350829     1.342695
      1.334562     1.326428     1.318295     1.310161     1.302027     1.293894     1.285760     1.277626     1.269493     1.261359
      1.253225     1.245092     1.236958     1.228824     1.220691     1.212557     1.204423     1.196290     1.188156     1.180022
      1.171889     1.163755     1.155622     1.147488     1.139354     1.131221     1.123087     1.114953     1.106820     1.098686
      1.090552     1.082419     1.074285     1.066151     1.058018     1.049884     1.041750     1.033617     1.025483     1.017349
      1.009216     1.001082     0.992949     0.984815     0.976681     0.968548     0.960414     0.952280     0.944147     0.936013
      0.927879     0.919746     0.911612     0.903478     0.895345     0.887211     0.879077     0.870944     0.862810     0.854676
      0.846543     0.838409     0.830276     0.822142     0.814008     0.805875     0.797741     0.789607     0.781474     0.773340
      0.765206     0.757073     0.748939     0.740805     0.732672     0.724538     0.716404     0.708271     0.700137     0.692003
      0.683870     0.675736     0.667603     0.659469     0.651335     0.643202     0.635068     0.626934     0.618801     0.610667
      0.602533     0.594400     0.586266     0.578132     0.569999     0.561865     0.553731     0.545598     0.537464     0.529330
      0.521197     0.513063     0.504930     0.496796     0.488662     0.480529     0.472395     0.464261     0.456128     0.447994
      0.439861     0.431727     0.423593     0.415460     0.407326     0.399192     0.391059     0.382925     0.374792     0.366658
      0.358524     0.350391     0.342257     0.334124     0.325990     0.317856     0.309723     0.301589     0.293455     0.285322
      0.277188     0.269055     0.260921     0.252787     0.244654     0.236520     0.228386     0.220253     0.212119     0.203986
 NY phased data points follow
  -2.69264E+01 -2.62307E+01 -2.29586E+01 -4.22548E+01 -2.73082E+01 -2.83265E+01 -3.40854E+01 -2.79637E+01 -2.31894E+01 -2.86815E+01
  -4.05763E+01 -4.05730E+01 -3.96863E+01 -4.88870E+01 -6.36172E+01 -6.00277E+01 -7.57418E+01 -8.94277E+01 -7.60118E+01 -6.98678E+01
  -9.15930E+01 -9.07198E+01 -6.42930E+01 -4.42151E+01 -1.45452E+01 -1.60892E+00  1.22556E+01  8.21049E+00  1.15169E+01  2.01799E+01
   1.41099E+01  9.36741E+00  6.65126E+00  1.67948E+01 -4.74801E+00 -5.19963E+00 -4.91863E+00 -2.90052E+01 -3.39016E+01 -4.38020E+01
  -6.42689E+01 -6.86313E+01 -6.77454E+01 -6.79577E+01 -2.56792E+01 -1.02651E+00  1.05639E+01  3.10324E+01  3.42659E+01  3.42110E+01
   3.72833E+01  3.84391E+01  3.63656E+01  2.73091E+01  2.09040E+00  1.39455E+01  5.03797E+00 -1.16309E+01  3.11426E+00 -6.01249E+00
  -1.43324E+01 -2.82575E+00  2.91612E+01  2.31643E+01  2.32337E+01  2.95397E+01  1.28691E+01  1.99135E+01 -5.03910E+00 -1.99266E+01
  -1.57783E+01 -1.98093E+01  3.23562E+00  1.17639E+01  1.26462E+01  2.55434E+01  3.92288E+01  4.64527E+01  4.91741E+01  5.56594E+01
   4.09909E+01  2.99493E+01  1.18882E+01  1.26685E-01  5.42482E+00 -7.54635E+00 -4.83479E+00  2.01964E-01  1.44536E+01  3.70984E+01
   5.96147E+01  5.96459E+01  6.71617E+01  8.74121E+01  7.56526E+01  8.04173E+01  7.06552E+01  7.68059E+01  7.20052E+01  5.45578E+01
   5.93433E+01  4.99733E+01  4.62119E+01  2.66265E+01  1.14966E+01 -7.15494E+00 -1.16931E+01 -4.19318E+01 -6.70219E+01 -7.34216E+01
  -1.10826E+02 -1.12111E+02 -1.32590E+02 -1.13306E+02 -6.45770E+01 -5.28536E+01 -3.71702E+01 -2.59687E+01 -8.08693E+00  5.04302E+00
   7.89822E+00  4.88495E+00  5.71152E+00  9.98986E+00  2.01958E+01  2.76916E+01  5.72520E+01  7.80695E+01  8.61050E+01  1.06961E+02
   9.76694E+01  8.01852E+01  3.22510E+01 -3.06806E+01 -8.83614E+01 -1.08731E+02 -9.84070E+01 -9.87203E+01 -8.66379E+01 -8.31223E+01
  -7.39930E+01 -7.27248E+01 -7.07810E+01 -7.19032E+01 -8.27185E+01 -7.01045E+01 -6.06179E+01 -6.08418E+01 -5.14881E+01 -4.56218E+01
  -5.21522E+01 -4.44513E+01 -4.16370E+01 -5.26294E+01 -4.45563E+01 -2.97903E+01 -3.66238E+01 -2.49631E+01 -2.11298E+01 -2.99055E+01
  -2.49672E+01 -3.67256E+01 -2.03608E+01 -1.55458E+01 -2.21856E+01 -3.44293E+01 -3.29139E+01 -1.59524E+01 -3.74921E+01 -6.64273E+00
   1.85912E+01  5.70174E+00  1.46170E+01  1.65436E+01  1.30398E+01  2.33661E+01  1.81596E+01  3.53492E+00  1.30715E+00 -1.81227E+01
  -3.22992E+01 -5.03688E+01 -3.92255E+01 -3.94031E+01 -4.82822E+01 -2.37889E+01 -4.54571E+01 -4.52647E+01 -3.75242E+01 -4.64942E+01
  -3.74849E+01 -2.12351E+01 -2.02121E+01 -3.11467E+01 -3.35851E+00 -3.66113E+00 -2.16710E+01 -2.42590E+01 -3.04963E+01 -1.67727E+01
  -9.15710E+00 -1.85253E+01 -1.44604E+01 -6.93066E+00 -1.07529E+01 -1.81161E+01 -2.82719E+01 -2.64676E+01 -3.99327E+01 -5.15432E+01
  -5.92063E+01 -6.32385E+01 -4.05763E+01 -3.02448E+01  3.44754E+00  1.80734E+01  1.85018E+01  3.96685E+01  3.00328E+01  2.33610E+01
   2.26955E+01  1.33409E+01 -1.36796E+01 -4.79476E+00  2.28248E+01  3.38501E+00 -1.69209E-01  1.69044E+01  7.48895E+00 -7.91519E+00
   3.25251E+00 -5.10382E+00 -2.14413E+01 -3.97998E+01 -6.14630E+01 -6.00797E+01 -7.31010E+01 -7.74921E+01 -7.50329E+01 -7.50424E+01
  -6.44156E+01 -6.20800E+01 -6.91445E+01 -5.29861E+01 -4.43434E+01 -4.46717E+01 -3.12978E+01 -4.90577E+01 -4.92171E+01 -5.25592E+01
  -6.33185E+01 -7.05470E+01 -7.76153E+01 -8.03096E+01 -8.95319E+01 -6.02232E+01 -5.29999E+01 -1.44139E+00  8.75855E+01  1.53958E+02
   1.99520E+02  1.54773E+02  1.29457E+02  1.35309E+02  1.10355E+02  1.01848E+02  9.48092E+01  7.28443E+01  8.13696E+01  7.12694E+01
   6.43697E+01  8.48029E+01  7.16726E+01  7.23581E+01  6.17320E+01  6.72393E+01  6.89116E+01  5.58690E+01  6.67797E+01  5.59381E+01
   5.35538E+01  5.71580E+01  5.88255E+01  4.71138E+01  4.47902E+01  3.52089E+01  3.15404E+01  4.82272E+01  2.62839E+01  2.45244E+01
   3.82795E+01  2.20545E+01  4.33995E+00  1.39382E+01  6.57805E+00 -2.69228E+00  6.44267E+00 -6.79584E+00 -2.04353E+01 -2.14130E+01
  -8.45639E+00 -8.60223E+00 -4.82967E+00  6.29685E+00  1.20250E+01  1.66509E+01  1.81122E+01  3.03032E+01  2.91868E+01  4.42262E+01
   6.49352E+01  6.24139E+01  7.44756E+01  6.97131E+01  6.47007E+01  8.37222E+01  8.29009E+01  9.87514E+01  9.79911E+01  9.18150E+01
   1.05568E+02  9.65954E+01  1.07021E+02  9.92079E+01  9.83372E+01  1.07166E+02  1.10749E+02  1.11279E+02  1.02943E+02  1.25983E+02
   1.08882E+02  1.03027E+02  1.17031E+02  1.11950E+02  1.01229E+02  7.37594E+01  8.28730E+01  9.70836E+01  8.89320E+01  7.68041E+01
   6.22520E+01  4.37347E+01  3.47482E+01  3.50754E+01  5.02460E+01  6.14530E+01  4.93858E+01  5.74562E+01  6.48470E+01  5.32622E+01
   6.05990E+01  7.22815E+01  4.97560E+01  5.08903E+01  5.88567E+01  3.97683E+01  3.36598E+01  2.00095E+01  1.03902E+01  3.20566E+01
   3.96544E+01  1.06948E+01  2.19117E+01  3.20486E+01  3.42092E+01  3.94041E+01  2.90746E+01  4.89820E+01  4.08961E+01  4.28272E+01
   4.46708E+01  4.66950E+01  6.34237E+01  4.19464E+01  4.59653E+01  6.12773E+01  6.19318E+01  6.23263E+01  6.89758E+01  7.96397E+01
   8.59019E+01  8.34155E+01  1.08606E+02  1.22290E+02  1.04127E+02  1.23894E+02  1.23440E+02  1.35466E+02  1.44935E+02  1.19338E+02
   1.24417E+02  1.21716E+02  1.07857E+02  9.46728E+01  6.84030E+01  4.47260E+01  4.86104E+01  5.28752E+01  3.32423E+01  1.89146E+01
   2.56669E+01  1.60324E+01 -8.79618E+00 -1.98921E+01 -2.48259E+01 -2.51335E+01 -2.55051E+01 -2.28322E+01 -3.15728E+01 -2.78191E+01
  -3.23216E+01 -4.23495E+01 -3.41256E+01 -3.18012E+01 -1.84993E+01 -2.36757E+01 -3.12565E+01 -3.04336E+01 -2.25137E+01 -2.96067E+01
  -1.90070E+01 -3.49022E+00 -2.86112E+01 -1.97938E+01 -2.64614E+01 -1.85328E+01 -1.48192E+01 -2.56757E+01 -3.06379E+01 -3.60898E+01
  -6.04450E+00 -2.64467E+01 -1.33927E+01 -7.88197E+00 -2.61467E+01 -1.12442E+01 -2.13880E+01 -1.36396E+01 -1.92498E+01 -7.51213E+00
  -7.21635E+00 -1.81147E+01 -2.08913E+01 -2.88834E+01 -7.52791E+00 -2.28039E+01 -1.76512E+01 -7.92769E+00 -2.27127E+01 -7.85609E+00
  -1.40299E+01 -2.15330E+01 -1.53834E+01 -7.79055E+00 -9.50947E+00 -2.13197E+01 -6.37617E+00 -1.43034E+01 -2.96138E+01 -1.72463E+01
  -1.46120E+01 -9.82229E+00 -1.54025E+01 -1.33005E+01 -1.12441E+01 -2.00768E+01 -2.41568E+01 -2.31338E+01 -9.55892E+00 -1.52670E+01
  -1.25713E+01 -1.16891E+01 -1.51174E+01 -8.34309E+00 -1.13517E+01 -1.33724E+01 -2.25304E+01 -2.19519E+01 -1.33824E+01 -1.07775E+01
 NY points of the fit to the data follow
  -4.20295E+01 -4.22169E+01 -4.30882E+01 -4.32626E+01 -4.13067E+01 -3.69629E+01 -3.13766E+01 -2.73155E+01 -2.76874E+01 -3.24577E+01
  -3.86854E+01 -4.29268E+01 -4.46613E+01 -4.56639E+01 -4.75980E+01 -5.18803E+01 -5.90383E+01 -6.85032E+01 -7.86065E+01 -8.61147E+01
  -8.76399E+01 -8.02121E+01 -6.30162E+01 -3.89974E+01 -1.35535E+01  7.02276E+00  1.90340E+01  2.32109E+01  2.20029E+01  1.98441E+01
   1.94403E+01  1.82684E+01  1.59159E+01  1.26650E+01  8.59694E+00  3.03072E+00 -4.97597E+00 -1.57483E+01 -2.88728E+01 -4.28006E+01
  -5.47880E+01 -6.11320E+01 -5.86774E+01 -4.69249E+01 -2.87471E+01 -8.84579E+00  8.82070E+00  2.22556E+01  3.05038E+01  3.35331E+01
   3.29174E+01  2.96568E+01  2.41641E+01  1.65429E+01  7.33832E+00 -2.29162E+00 -1.05946E+01 -1.57575E+01 -1.67698E+01 -1.42785E+01
  -8.81616E+00 -7.50081E-01  9.00336E+00  1.88911E+01  2.60614E+01  2.91796E+01  2.74095E+01  1.89174E+01  6.45371E+00 -5.04620E+00
  -1.19318E+01 -1.10597E+01 -2.66717E+00  9.63549E+00  2.18237E+01  3.24042E+01  4.13902E+01  4.69430E+01  4.71501E+01  4.28027E+01
   3.43413E+01  2.18076E+01  7.10670E+00 -6.46833E+00 -1.49293E+01 -1.54840E+01 -8.11805E+00  4.55018E+00  1.85945E+01  3.03093E+01
   3.91468E+01  4.52799E+01  5.02514E+01  5.51855E+01  5.98219E+01  6.39859E+01  6.75659E+01  7.02812E+01  7.16319E+01  7.12020E+01
   6.80563E+01  6.16883E+01  5.13993E+01  3.75852E+01  2.18241E+01  4.95906E+00 -1.19130E+01 -3.03570E+01 -5.20362E+01 -7.63577E+01
  -1.00300E+02 -1.15771E+02 -1.12845E+02 -9.31327E+01 -6.80536E+01 -5.00309E+01 -3.98957E+01 -3.12838E+01 -2.33335E+01 -1.56922E+01
  -8.10769E+00 -2.76599E-01  8.22323E+00  1.79007E+01  2.92946E+01  4.30518E+01  6.05214E+01  8.04671E+01  9.84382E+01  1.08007E+02
   1.02076E+02  7.64192E+01  3.09434E+01 -2.59167E+01 -7.58746E+01 -1.01356E+02 -9.91804E+01 -8.42658E+01 -7.47926E+01 -7.16189E+01
  -6.98592E+01 -6.89753E+01 -6.84845E+01 -6.78975E+01 -6.69218E+01 -6.54728E+01 -6.35176E+01 -6.10043E+01 -5.80593E+01 -5.49300E+01
  -5.18870E+01 -4.89665E+01 -4.60640E+01 -4.32486E+01 -4.05854E+01 -3.81821E+01 -3.60869E+01 -3.43610E+01 -3.29627E+01 -3.16389E+01
  -3.02430E+01 -2.91032E+01 -2.89106E+01 -2.99047E+01 -3.13779E+01 -3.21184E+01 -3.12182E+01 -2.84763E+01 -2.42707E+01 -1.87793E+01
  -1.20894E+01 -4.80273E+00  1.72614E+00  5.69986E+00  6.35043E+00  5.13614E+00  4.11994E+00  3.00867E+00 -1.33858E+00 -1.07963E+01
  -2.25994E+01 -3.20323E+01 -3.71835E+01 -3.95042E+01 -4.09762E+01 -4.21153E+01 -4.23970E+01 -4.19909E+01 -4.10624E+01 -3.93277E+01
  -3.66433E+01 -3.29499E+01 -2.82561E+01 -2.30251E+01 -1.75205E+01 -1.28602E+01 -1.00771E+01 -8.87145E+00 -8.27837E+00 -7.14402E+00
  -6.08385E+00 -6.41605E+00 -6.92116E+00 -7.67767E+00 -1.04891E+01 -1.60493E+01 -2.40550E+01 -3.24255E+01 -3.99303E+01 -4.63922E+01
  -5.01262E+01 -4.88909E+01 -4.13005E+01 -2.67833E+01 -7.03084E+00  1.47612E+01  3.42594E+01  4.66800E+01  4.99653E+01  4.49549E+01
   3.50198E+01  2.53933E+01  1.82743E+01  1.42149E+01  1.30500E+01  1.11903E+01  7.56305E+00  1.89935E+00 -5.68440E+00 -1.47010E+01
  -2.47041E+01 -3.50381E+01 -4.52011E+01 -5.47777E+01 -6.33437E+01 -7.05372E+01 -7.59828E+01 -7.91899E+01 -7.98976E+01 -7.79345E+01
  -7.36556E+01 -6.75039E+01 -6.01595E+01 -5.27537E+01 -4.62087E+01 -4.16499E+01 -4.02160E+01 -4.19483E+01 -4.65305E+01 -5.32569E+01
  -6.10983E+01 -7.20461E+01 -8.39923E+01 -9.35165E+01 -9.48111E+01 -8.13994E+01 -4.97089E+01  1.95324E+00  6.54607E+01  1.19489E+02
   1.43314E+02  1.34179E+02  1.13089E+02  1.01099E+02  9.38068E+01  8.81081E+01  8.32992E+01  7.91136E+01  7.55003E+01  7.26224E+01
   7.06519E+01  6.95406E+01  6.90692E+01  6.89415E+01  6.88374E+01  6.85054E+01  6.78474E+01  6.68503E+01  6.56260E+01  6.42138E+01
   6.26950E+01  6.10516E+01  5.92599E+01  5.74370E+01  5.56410E+01  5.38729E+01  5.20165E+01  5.00096E+01  4.78169E+01  4.54316E+01
   4.28132E+01  3.99864E+01  3.71463E+01  3.45991E+01  3.26518E+01  3.16130E+01  3.16619E+01  3.28665E+01  3.50975E+01  3.79924E+01
   4.12047E+01  4.45075E+01  4.78304E+01  5.11528E+01  5.44525E+01  5.76744E+01  6.08428E+01  6.40318E+01  6.72915E+01  7.05929E+01
   7.38610E+01  7.69613E+01  7.97826E+01  8.23048E+01  8.45695E+01  8.65470E+01  8.80992E+01  8.91090E+01  8.95226E+01  8.93635E+01
   8.86795E+01  8.75469E+01  8.60378E+01  8.41306E+01  8.16653E+01  7.84533E+01  7.44276E+01  6.95713E+01  6.40033E+01  5.81863E+01
   5.29431E+01  4.91703E+01  4.76200E+01  4.87340E+01  5.28469E+01  5.95082E+01  6.71425E+01  7.33315E+01  7.46890E+01  6.88089E+01
   5.49828E+01  3.56694E+01  1.67528E+01  4.52033E+00  2.68868E+00  9.98233E+00  2.12620E+01  3.19448E+01  3.88503E+01  4.13875E+01
   4.23983E+01  4.22237E+01  4.08991E+01  3.86488E+01  3.58938E+01  3.31997E+01  3.11224E+01  3.00702E+01  3.02212E+01  3.14398E+01
   3.34481E+01  3.60135E+01  3.89237E+01  4.19613E+01  4.49671E+01  4.78152E+01  5.04448E+01  5.28768E+01  5.51880E+01  5.74652E+01
   5.97584E+01  6.20801E+01  6.44896E+01  6.70451E+01  6.98644E+01  7.30648E+01  7.66964E+01  8.07705E+01  8.52920E+01  9.02711E+01
   9.56787E+01  1.01414E+02  1.07294E+02  1.13003E+02  1.18103E+02  1.21881E+02  1.23465E+02  1.22134E+02  1.17672E+02  1.10363E+02
   1.01042E+02  9.09137E+01  8.11769E+01  7.24992E+01  6.48571E+01  5.77042E+01  5.04744E+01  4.27757E+01  3.45790E+01  2.61652E+01
   1.81098E+01  1.09762E+01  5.04922E+00  3.81143E-01 -3.16405E+00 -5.83118E+00 -7.93257E+00 -9.61742E+00 -1.10000E+01 -1.22117E+01
  -1.33353E+01 -1.43069E+01 -1.50796E+01 -1.56398E+01 -1.60787E+01 -1.64694E+01 -1.68457E+01 -1.71907E+01 -1.74896E+01 -1.77781E+01
  -1.80566E+01 -1.82697E+01 -1.83966E+01 -1.85361E+01 -1.87504E+01 -1.89761E+01 -1.91107E+01 -1.91716E+01 -1.92187E+01 -1.92137E+01
  -1.91729E+01 -1.91597E+01 -1.92530E+01 -1.94331E+01 -1.95995E+01 -1.96595E+01 -1.95891E+01 -1.94410E+01 -1.92669E+01 -1.91205E+01
  -1.90192E+01 -1.89643E+01 -1.89301E+01 -1.89403E+01 -1.89875E+01 -1.90506E+01 -1.90995E+01 -1.90785E+01 -1.89657E+01 -1.88092E+01
  -1.86851E+01 -1.86138E+01 -1.85758E+01 -1.85013E+01 -1.83618E+01 -1.81654E+01 -1.79266E+01 -1.77221E+01 -1.75846E+01 -1.74699E+01
  -1.73751E+01 -1.73117E+01 -1.72985E+01 -1.73151E+01 -1.73211E+01 -1.72203E+01 -1.69823E+01 -1.66236E+01 -1.62359E+01 -1.58792E+01
  -1.56526E+01 -1.55955E+01 -1.56551E+01 -1.56880E+01 -1.55728E+01 -1.53086E+01 -1.49830E+01 -1.46744E+01 -1.43886E+01 -1.40554E+01
 NY background values follow
    -1.801E+01   -1.786E+01   -1.771E+01   -1.755E+01   -1.740E+01   -1.724E+01   -1.708E+01   -1.692E+01   -1.676E+01   -1.660E+01
    -1.643E+01   -1.626E+01   -1.608E+01   -1.591E+01   -1.573E+01   -1.554E+01   -1.535E+01   -1.516E+01   -1.496E+01   -1.476E+01
    -1.455E+01   -1.434E+01   -1.412E+01   -1.389E+01   -1.366E+01   -1.342E+01   -1.318E+01   -1.293E+01   -1.267E+01   -1.241E+01
    -1.214E+01   -1.186E+01   -1.157E+01   -1.128E+01   -1.098E+01   -1.067E+01   -1.036E+01   -1.005E+01   -9.726E+00   -9.402E+00
    -9.074E+00   -8.744E+00   -8.410E+00   -8.075E+00   -7.738E+00   -7.400E+00   -7.061E+00   -6.721E+00   -6.382E+00   -6.043E+00
    -5.706E+00   -5.370E+00   -5.036E+00   -4.705E+00   -4.376E+00   -4.051E+00   -3.729E+00   -3.412E+00   -3.100E+00   -2.793E+00
    -2.491E+00   -2.196E+00   -1.906E+00   -1.623E+00   -1.347E+00   -1.076E+00   -8.127E-01   -5.556E-01   -3.053E-01   -6.170E-02
     1.750E-01    4.046E-01    6.272E-01    8.427E-01    1.051E+00    1.252E+00    1.445E+00    1.631E+00    1.809E+00    1.979E+00
     2.142E+00    2.297E+00    2.444E+00    2.582E+00    2.713E+00    2.835E+00    2.949E+00    3.054E+00    3.151E+00    3.239E+00
     3.319E+00    3.390E+00    3.452E+00    3.507E+00    3.554E+00    3.594E+00    3.628E+00    3.655E+00    3.676E+00    3.693E+00
     3.704E+00    3.710E+00    3.713E+00    3.712E+00    3.707E+00    3.700E+00    3.690E+00    3.679E+00    3.665E+00    3.651E+00
     3.636E+00    3.620E+00    3.605E+00    3.590E+00    3.575E+00    3.563E+00    3.552E+00    3.543E+00    3.537E+00    3.533E+00
     3.533E+00    3.537E+00    3.545E+00    3.555E+00    3.569E+00    3.585E+00    3.604E+00    3.626E+00    3.649E+00    3.675E+00
     3.702E+00    3.731E+00    3.761E+00    3.792E+00    3.824E+00    3.857E+00    3.890E+00    3.924E+00    3.957E+00    3.991E+00
     4.023E+00    4.056E+00    4.087E+00    4.117E+00    4.146E+00    4.174E+00    4.200E+00    4.223E+00    4.245E+00    4.265E+00
     4.281E+00    4.295E+00    4.306E+00    4.315E+00    4.320E+00    4.322E+00    4.320E+00    4.316E+00    4.308E+00    4.296E+00
     4.281E+00    4.262E+00    4.239E+00    4.212E+00    4.181E+00    4.146E+00    4.106E+00    4.063E+00    4.015E+00    3.962E+00
     3.904E+00    3.842E+00    3.775E+00    3.704E+00    3.627E+00    3.545E+00    3.457E+00    3.365E+00    3.266E+00    3.163E+00
     3.054E+00    2.939E+00    2.819E+00    2.694E+00    2.565E+00    2.433E+00    2.297E+00    2.157E+00    2.016E+00    1.872E+00
     1.727E+00    1.580E+00    1.432E+00    1.284E+00    1.136E+00    9.888E-01    8.421E-01    6.968E-01    5.531E-01    4.116E-01
     2.727E-01    1.367E-01    4.224E-03   -1.244E-01   -2.488E-01   -3.684E-01   -4.829E-01   -5.919E-01   -6.948E-01   -7.913E-01
    -8.810E-01   -9.639E-01   -1.040E+00   -1.111E+00   -1.176E+00   -1.236E+00   -1.292E+00   -1.343E+00   -1.392E+00   -1.437E+00
    -1.479E+00   -1.520E+00   -1.559E+00   -1.597E+00   -1.634E+00   -1.671E+00   -1.709E+00   -1.747E+00   -1.787E+00   -1.829E+00
    -1.872E+00   -1.919E+00   -1.969E+00   -2.022E+00   -2.080E+00   -2.142E+00   -2.210E+00   -2.283E+00   -2.363E+00   -2.449E+00
    -2.542E+00   -2.642E+00   -2.749E+00   -2.861E+00   -2.979E+00   -3.102E+00   -3.229E+00   -3.360E+00   -3.494E+00   -3.631E+00
    -3.770E+00   -3.911E+00   -4.052E+00   -4.194E+00   -4.336E+00   -4.477E+00   -4.617E+00   -4.755E+00   -4.891E+00   -5.024E+00
    -5.153E+00   -5.279E+00   -5.400E+00   -5.516E+00   -5.626E+00   -5.731E+00   -5.828E+00   -5.918E+00   -6.000E+00   -6.074E+00
    -6.139E+00   -6.194E+00   -6.238E+00   -6.269E+00   -6.286E+00   -6.289E+00   -6.274E+00   -6.242E+00   -6.190E+00   -6.119E+00
    -6.025E+00   -5.908E+00   -5.767E+00   -5.600E+00   -5.405E+00   -5.183E+00   -4.931E+00   -4.647E+00   -4.331E+00   -3.982E+00
    -3.598E+00   -3.177E+00   -2.719E+00   -2.221E+00   -1.684E+00   -1.104E+00   -4.823E-01    1.841E-01    8.960E-01    1.655E+00
     2.462E+00    3.315E+00    4.212E+00    5.148E+00    6.121E+00    7.127E+00    8.163E+00    9.226E+00    1.031E+01    1.142E+01
     1.254E+01    1.367E+01    1.482E+01    1.597E+01    1.712E+01    1.827E+01    1.942E+01    2.056E+01    2.170E+01    2.281E+01
     2.391E+01    2.499E+01    2.605E+01    2.708E+01    2.807E+01    2.904E+01    2.996E+01    3.085E+01    3.169E+01    3.248E+01
     3.323E+01    3.392E+01    3.456E+01    3.515E+01    3.570E+01    3.619E+01    3.664E+01    3.704E+01    3.739E+01    3.770E+01
     3.796E+01    3.819E+01    3.836E+01    3.850E+01    3.860E+01    3.865E+01    3.867E+01    3.864E+01    3.858E+01    3.848E+01
     3.835E+01    3.818E+01    3.797E+01    3.773E+01    3.746E+01    3.715E+01    3.682E+01    3.645E+01    3.605E+01    3.562E+01
     3.516E+01    3.468E+01    3.417E+01    3.363E+01    3.307E+01    3.249E+01    3.188E+01    3.126E+01    3.061E+01    2.995E+01
     2.927E+01    2.857E+01    2.786E+01    2.713E+01    2.639E+01    2.564E+01    2.488E+01    2.411E+01    2.333E+01    2.255E+01
     2.176E+01    2.096E+01    2.016E+01    1.936E+01    1.856E+01    1.776E+01    1.696E+01    1.616E+01    1.536E+01    1.457E+01
     1.378E+01    1.300E+01    1.223E+01    1.147E+01    1.071E+01    9.956E+00    9.213E+00    8.478E+00    7.752E+00    7.036E+00
     6.329E+00    5.632E+00    4.945E+00    4.269E+00    3.604E+00    2.950E+00    2.308E+00    1.679E+00    1.062E+00    4.581E-01
    -1.326E-01   -7.095E-01   -1.272E+00   -1.821E+00   -2.354E+00   -2.873E+00   -3.375E+00   -3.862E+00   -4.332E+00   -4.786E+00
    -5.223E+00   -5.643E+00   -6.047E+00   -6.435E+00   -6.808E+00   -7.167E+00   -7.511E+00   -7.843E+00   -8.161E+00   -8.467E+00
    -8.761E+00   -9.044E+00   -9.316E+00   -9.577E+00   -9.829E+00   -1.007E+01   -1.031E+01   -1.053E+01   -1.075E+01   -1.096E+01
    -1.117E+01   -1.137E+01   -1.156E+01   -1.175E+01   -1.193E+01   -1.212E+01   -1.229E+01   -1.247E+01   -1.264E+01   -1.281E+01
    -1.298E+01   -1.315E+01   -1.332E+01   -1.349E+01   -1.365E+01   -1.382E+01   -1.398E+01   -1.415E+01   -1.431E+01   -1.447E+01
    -1.463E+01   -1.479E+01   -1.495E+01   -1.511E+01   -1.527E+01   -1.543E+01   -1.559E+01   -1.575E+01   -1.591E+01   -1.607E+01
    -1.622E+01   -1.638E+01   -1.654E+01   -1.670E+01   -1.685E+01   -1.701E+01   -1.717E+01   -1.733E+01   -1.748E+01   -1.764E+01
 Mac      Conc. = 2.59E-04
  -3.63299E+01 -3.66674E+01 -3.69780E+01 -3.72562E+01 -3.76015E+01 -3.81766E+01 -3.90619E+01 -4.01891E+01 -4.14119E+01 -4.25072E+01
  -4.32889E+01 -4.37136E+01 -4.39422E+01 -4.41975E+01 -4.45614E+01 -4.49306E+01 -4.49854E+01 -4.42799E+01 -4.24202E+01 -3.93123E+01
  -3.54160E+01 -3.15717E+01 -2.84104E+01 -2.60238E+01 -2.41358E+01 -2.25459E+01 -2.11646E+01 -1.96838E+01 -1.79406E+01 -1.60805E+01
  -1.43299E+01 -1.28678E+01 -1.17769E+01 -1.10336E+01 -1.04781E+01 -9.91450E+00 -9.17917E+00 -8.10497E+00 -6.61921E+00 -4.90585E+00
  -3.33756E+00 -2.22330E+00 -1.53369E+00 -9.17376E-01 -6.14068E-02  1.00433E+00  1.92051E+00  2.34845E+00  2.20934E+00  1.63674E+00
   8.65231E-01  1.05862E-01 -5.21207E-01 -9.09085E-01 -9.94655E-01 -7.62230E-01 -2.15357E-01  6.57502E-01  1.84789E+00  3.25807E+00
   4.70530E+00  5.95668E+00  6.85923E+00  7.35691E+00  7.43361E+00  7.12011E+00  6.61192E+00  6.25319E+00  6.24646E+00  6.66318E+00
   7.56312E+00  8.93954E+00  1.07317E+01  1.26746E+01  1.42928E+01  1.52235E+01  1.54286E+01  1.51889E+01  1.47492E+01  1.42477E+01
   1.38405E+01  1.36384E+01  1.36699E+01  1.39435E+01  1.44212E+01  1.51048E+01  1.59205E+01  1.67314E+01  1.74468E+01  1.80465E+01
   1.85403E+01  1.88790E+01  1.90015E+01  1.88543E+01  1.83179E+01  1.72926E+01  1.57611E+01  1.38229E+01  1.16517E+01  9.46565E+00
   7.37104E+00  5.30200E+00  2.99563E+00  1.57583E-01 -3.45252E+00 -7.81716E+00 -1.26337E+01 -1.73842E+01 -2.14064E+01 -2.39673E+01
