 LCModel (Version 6.3-1N) Copyright: S.W. Provencher.          Ref.: Magn. Reson. Med. 30:672-679 (1993).                
 Slice_N1@10_23  28-Feb-2025 11:36:38
 27 lines in following concentration table = NCONC+1
    Conc.  %SD /Cr+PCr  Metabolite                                         
 3.14E-04   5% 3.4E-04 Mac                                                 
    2.601  66%   2.799 Cr                                                  
    4.831  34%   5.201 PCr                                                 
    5.124  22%   5.515 Ins                                                 
   10.948  11%  11.785 NAA                                                 
    3.715  30%   3.999 Tau                                                 
    1.078 123%   1.160 PCho                                                
    0.213 597%   0.229 GPC                                                 
    9.833  14%  10.585 Glu                                                 
    3.777  26%   4.066 Gln                                                 
    2.101  41%   2.262 Ala                                                 
    1.290 122%   1.388 Asc                                                 
    2.807  40%   3.021 Asp                                                 
    0.531 117%   0.571 GABA                                                
    1.344  56%   1.447 Glc                                                 
    0.597  98%   0.643 GSH                                                 
    0.000 999%   0.000 Lac                                                 
    2.541  32%   2.735 NAAG                                                
    0.458 322%   0.493 PE                                                  
    1.290  31%   1.389 GPC+PCho                                            
   13.489   9%  14.519 NAA+NAAG                                            
   13.611  12%  14.651 Glu+Gln                                             
    7.432  13%   8.000 Cr+PCr                                              
   13.489   9%  14.519 NAA+NAAG                                            
    7.432  13%   8.000 Cr+PCr                                              
   13.611  12%  14.651 Glu+Gln                                             
   6 lines in following misc. output table
  FWHM = 0.033 ppm    S/N =   3                                            
  Data shift = 0.057 ppm                                                   
  Ph: -84 deg       0.0 deg/ppm                                            
  alphaB,S = 1.1E-01,   6.1E+00                                            
   19 spline knots.   Ns = 5(1)                                            
  ( 7) 5 infls.   ( 4) 2 extrs.                                            
  480 points on ppm-axis = NY
      4.100000     4.091866     4.083733     4.075600     4.067466     4.059333     4.051199     4.043066     4.034933     4.026799
      4.018666     4.010532     4.002399     3.994265     3.986132     3.977998     3.969864     3.961731     3.953597     3.945463
      3.937330     3.929196     3.921062     3.912929     3.904795     3.896662     3.888528     3.880394     3.872261     3.864127
      3.855993     3.847860     3.839726     3.831592     3.823459     3.815325     3.807191     3.799058     3.790924     3.782790
      3.774657     3.766523     3.758389     3.750256     3.742122     3.733989     3.725855     3.717721     3.709588     3.701454
      3.693320     3.685187     3.677053     3.668919     3.660786     3.652652     3.644518     3.636385     3.628251     3.620117
      3.611984     3.603850     3.595716     3.587583     3.579449     3.571316     3.563182     3.555048     3.546915     3.538781
      3.530647     3.522514     3.514380     3.506246     3.498113     3.489979     3.481845     3.473712     3.465578     3.457444
      3.449311     3.441177     3.433043     3.424910     3.416776     3.408643     3.400509     3.392375     3.384242     3.376108
      3.367974     3.359841     3.351707     3.343573     3.335440     3.327306     3.319172     3.311039     3.302905     3.294771
      3.286638     3.278504     3.270370     3.262237     3.254103     3.245970     3.237836     3.229702     3.221569     3.213435
      3.205301     3.197168     3.189034     3.180900     3.172767     3.164633     3.156499     3.148366     3.140232     3.132098
      3.123965     3.115831     3.107697     3.099564     3.091430     3.083297     3.075163     3.067029     3.058896     3.050762
      3.042628     3.034495     3.026361     3.018227     3.010094     3.001960     2.993826     2.985693     2.977559     2.969425
      2.961292     2.953158     2.945024     2.936891     2.928757     2.920624     2.912490     2.904356     2.896223     2.888089
      2.879955     2.871822     2.863688     2.855554     2.847421     2.839287     2.831153     2.823020     2.814886     2.806752
      2.798619     2.790485     2.782351     2.774218     2.766084     2.757951     2.749817     2.741683     2.733550     2.725416
      2.717282     2.709149     2.701015     2.692881     2.684748     2.676614     2.668480     2.660347     2.652213     2.644079
      2.635946     2.627812     2.619678     2.611545     2.603411     2.595278     2.587144     2.579010     2.570877     2.562743
      2.554609     2.546476     2.538342     2.530208     2.522075     2.513941     2.505807     2.497674     2.489540     2.481406
      2.473273     2.465139     2.457006     2.448872     2.440738     2.432605     2.424471     2.416337     2.408204     2.400070
      2.391936     2.383803     2.375669     2.367535     2.359402     2.351268     2.343134     2.335001     2.326867     2.318733
      2.310600     2.302466     2.294333     2.286199     2.278065     2.269932     2.261798     2.253664     2.245531     2.237397
      2.229263     2.221130     2.212996     2.204862     2.196729     2.188595     2.180461     2.172328     2.164194     2.156060
      2.147927     2.139793     2.131660     2.123526     2.115392     2.107259     2.099125     2.090991     2.082858     2.074724
      2.066590     2.058457     2.050323     2.042189     2.034056     2.025922     2.017788     2.009655     2.001521     1.993387
      1.985254     1.977120     1.968987     1.960853     1.952719     1.944586     1.936452     1.928318     1.920185     1.912051
      1.903917     1.895784     1.887650     1.879516     1.871383     1.863249     1.855115     1.846982     1.838848     1.830714
      1.822581     1.814447     1.806314     1.798180     1.790046     1.781913     1.773779     1.765645     1.757512     1.749378
      1.741244     1.733111     1.724977     1.716843     1.708710     1.700576     1.692442     1.684309     1.676175     1.668041
      1.659908     1.651774     1.643641     1.635507     1.627373     1.619240     1.611106     1.602972     1.594839     1.586705
      1.578571     1.570438     1.562304     1.554170     1.546037     1.537903     1.529769     1.521636     1.513502     1.505368
      1.497235     1.489101     1.480968     1.472834     1.464700     1.456567     1.448433     1.440299     1.432166     1.424032
      1.415898     1.407765     1.399631     1.391497     1.383364     1.375230     1.367096     1.358963     1.350829     1.342695
      1.334562     1.326428     1.318295     1.310161     1.302027     1.293894     1.285760     1.277626     1.269493     1.261359
      1.253225     1.245092     1.236958     1.228824     1.220691     1.212557     1.204423     1.196290     1.188156     1.180022
      1.171889     1.163755     1.155622     1.147488     1.139354     1.131221     1.123087     1.114953     1.106820     1.098686
      1.090552     1.082419     1.074285     1.066151     1.058018     1.049884     1.041750     1.033617     1.025483     1.017349
      1.009216     1.001082     0.992949     0.984815     0.976681     0.968548     0.960414     0.952280     0.944147     0.936013
      0.927879     0.919746     0.911612     0.903478     0.895345     0.887211     0.879077     0.870944     0.862810     0.854676
      0.846543     0.838409     0.830276     0.822142     0.814008     0.805875     0.797741     0.789607     0.781474     0.773340
      0.765206     0.757073     0.748939     0.740805     0.732672     0.724538     0.716404     0.708271     0.700137     0.692003
      0.683870     0.675736     0.667603     0.659469     0.651335     0.643202     0.635068     0.626934     0.618801     0.610667
      0.602533     0.594400     0.586266     0.578132     0.569999     0.561865     0.553731     0.545598     0.537464     0.529330
      0.521197     0.513063     0.504930     0.496796     0.488662     0.480529     0.472395     0.464261     0.456128     0.447994
      0.439861     0.431727     0.423593     0.415460     0.407326     0.399192     0.391059     0.382925     0.374792     0.366658
      0.358524     0.350391     0.342257     0.334124     0.325990     0.317856     0.309723     0.301589     0.293455     0.285322
      0.277188     0.269055     0.260921     0.252787     0.244654     0.236520     0.228386     0.220253     0.212119     0.203986
 NY phased data points follow
   9.37912E+00  1.10193E+00 -1.49787E+01 -3.99421E+00 -2.31472E-01  7.84346E+00  3.65141E+00 -4.25795E+00  2.27350E+01  1.99071E+00
   3.65541E+00 -1.09478E+01 -2.69365E+01  2.94958E+00 -2.08313E+00  2.86949E+00 -2.20312E+01 -4.61496E+01 -6.89480E+01 -4.79359E+01
  -5.68180E+01 -7.58859E+01 -3.03307E+01 -4.91505E+01 -1.58879E+01 -1.04608E+01 -4.62099E+00  1.93109E+01 -5.08927E+00  2.70215E+01
   3.93310E+01  4.03826E+01  4.07412E+01  4.82185E+01  5.91151E+01  6.12262E+01  5.44875E+01  5.51900E+01  3.86919E+01  1.38290E+01
   3.26167E+01  7.15143E+00 -8.55624E+00 -1.38280E+01 -1.17437E+01 -5.07178E+00 -6.17739E-02  6.21427E+01  4.90675E+01  2.68034E+01
   7.85001E+01  7.42918E+01  7.14177E+01  8.01418E+01  8.45061E+01  1.12726E+02  5.05479E+01  3.87388E+01  6.35219E+01  2.42957E+01
   4.34077E+01  3.71410E+01  4.29225E+01  7.03945E+01  6.95730E+01  7.53555E+01  7.69153E+01  5.54723E+01  3.73226E+01  4.96501E+01
   2.13241E+01 -1.79898E+00  1.22570E+01  3.55037E+01  3.78531E+01  4.23005E+01  5.68687E+01  5.53164E+01  5.74122E+01  6.03856E+01
   7.92654E+01  5.17059E+01  5.64960E+01  6.65926E+01  2.59491E+01  3.38299E+01  4.60955E+01  4.85888E+01  2.27510E+01  4.49451E+01
   5.89066E+01  4.86977E+01  9.46273E+01  7.83817E+01  9.44861E+01  1.13521E+02  9.54787E+01  1.24902E+02  1.31980E+02  1.26429E+02
   1.24272E+02  1.32686E+02  1.29709E+02  1.35338E+02  1.16202E+02  9.18359E+01  1.31786E+02  9.90969E+01  7.36393E+01  6.56085E+01
   1.40568E+01 -1.28633E+00 -1.06070E+01 -8.33816E+00 -3.81420E+00  1.19528E+01  2.24444E+01  2.54957E+01  2.66056E+01  3.53305E+01
   6.47108E+01  7.20215E+01  6.39228E+01  4.55291E+01  5.40020E+01  7.38005E+01  7.94889E+01  6.11565E+01  1.27350E+02  2.08017E+02
   1.63880E+02  1.75830E+02  1.75902E+02  1.17019E+02  7.17844E+01  3.24468E+01  8.94616E+00  3.15520E+00  1.79557E+01  1.57252E+01
   1.41844E+00 -1.39330E+01 -1.05773E+01 -3.27242E+01 -1.85818E+01  1.03742E+01 -1.14070E+00 -2.49197E-01 -1.38387E+01 -6.40658E+00
   1.99442E+00  2.32093E+01  8.38960E+00 -1.20605E+01  3.88756E+00  4.74523E+00  1.04582E+01  1.25588E+01  2.36321E+01  2.17393E+01
   4.97234E+01  4.24157E+01  4.50821E+01  5.64107E+01  2.60690E+01  3.60492E+01  3.96794E+00  2.43087E+01  3.76060E+01  2.83953E+01
   4.96368E+01  3.25401E+01  5.82745E+01  5.94029E+01  5.69334E+01  8.60594E+01  8.93629E+01  9.71893E+01  8.67797E+01  6.88924E+01
   7.62034E+01  4.63184E+01  2.39388E+01  3.18716E+01  2.80862E+01  7.67621E+00 -5.03129E+00  2.45550E+01  2.23136E+00  5.52784E+00
   1.02668E+01  4.07113E+00  3.50348E+01  1.34970E+01  2.48982E+01  2.18938E+01  2.85845E+01  4.14953E+01  2.95094E+01  2.23018E+01
   1.24449E+01  4.44533E+01  4.97366E+01  6.31373E+01  5.60379E+01  5.09230E+01  6.99897E+01  5.06435E+01  1.98177E+01  3.83313E+00
   1.02084E+01 -1.45721E+01 -8.93613E+00  6.40935E-01  7.59662E-01  2.39463E+01  5.27385E+01  7.19098E+01  7.18743E+01  9.21242E+01
   8.69097E+01  6.87667E+01  2.84179E+01  2.62741E+01  3.96000E+01  3.92823E+01  6.48872E+01  3.66831E+01  3.93995E+01  3.47902E+01
   4.88605E+01  7.80194E+01  3.72739E+01  3.96570E+01  1.67793E+01  2.54393E+00  3.22612E+01 -2.25942E+00 -1.47319E+01 -1.22557E+01
  -3.08259E+01 -1.73286E+01 -1.81358E+01 -1.95652E+01 -1.32160E+01  4.59670E+00  4.85116E+00 -6.44401E+00  1.83641E+00  1.92531E+01
   4.35996E+01 -1.10394E+00  4.76179E+01 -1.14093E+01 -1.43311E+02 -3.52348E+01 -3.89389E+01 -4.69535E+01  1.40603E+01  8.48857E+01
   1.98145E+02  2.12239E+02  2.06461E+02  1.87806E+02  1.86359E+02  1.62235E+02  1.57517E+02  1.70433E+02  1.51954E+02  1.63965E+02
   1.55957E+02  1.34906E+02  1.37037E+02  1.47068E+02  1.21568E+02  1.45211E+02  1.41651E+02  1.34231E+02  1.51177E+02  1.18532E+02
   1.36158E+02  1.37596E+02  1.53504E+02  1.42404E+02  1.27519E+02  1.52673E+02  1.35227E+02  1.15244E+02  1.27646E+02  1.43582E+02
   9.46975E+01  8.95496E+01  8.44169E+01  7.38245E+01  7.30624E+01  4.65768E+01  5.58404E+01  4.37848E+01  3.64592E+01  2.74132E+01
   3.85388E+01  4.73706E+01  3.04666E+01  1.99677E+01  3.95952E+01  4.72165E+01  1.56219E+01  3.82821E+01  2.35127E+01  1.74056E+01
   5.38645E+01  7.44007E+01  7.77012E+01  6.94043E+01  8.63583E+01  8.20373E+01  6.54219E+01  4.19402E+01  5.02902E+01  5.36585E+01
   2.71326E+01  1.56258E+01  1.22173E+01  8.26159E+00 -1.73633E+00 -1.64243E+01 -3.06218E+01  6.69792E+00  1.28341E+01  7.21169E+00
   1.82956E+01  2.43539E+01  3.18085E+01 -1.47128E+00 -3.41572E+00 -2.45967E+01 -3.80516E+01 -3.07653E+01 -3.72476E+01 -5.88576E+00
   4.41303E+00  7.79730E+00  2.83452E+01  3.88139E+01  1.71108E+01  3.83157E+01  8.20563E+01  5.83795E+01  5.90513E+01  5.69044E+01
   5.49324E+01  8.77084E+01  6.28180E+01  5.89349E+01  6.55646E+01  4.03999E+01  6.62481E+01  6.48727E+01  4.22830E+01  5.60758E+01
   5.05666E+01  2.87763E+01  4.03323E+01  5.00162E+01  3.41589E+01  3.54007E+01  3.16838E+01  2.92108E+01  5.26409E+01  5.70334E+01
   5.01940E+01  8.69917E+01  9.05613E+01  8.55302E+01  9.34712E+01  7.76436E+01  1.01001E+02  9.80610E+01  1.05135E+02  1.15787E+02
   1.05547E+02  1.16384E+02  1.13863E+02  1.19676E+02  1.36057E+02  1.59909E+02  1.60732E+02  1.81703E+02  2.07748E+02  2.02441E+02
   1.92068E+02  1.96628E+02  1.90229E+02  1.57287E+02  1.57087E+02  1.28065E+02  1.32258E+02  1.45683E+02  1.34417E+02  1.21746E+02
   8.45304E+01  1.00357E+02  1.00411E+02  9.67306E+01  8.03985E+01  5.00603E+01  3.81728E+01  4.46267E+01  6.77115E+01  4.99444E+01
   5.04006E+01  3.36145E+01  2.42976E+01  3.64205E+01  1.84854E+01  3.05018E+01  4.30157E+01  4.29354E+01  4.07706E+01  2.97580E+01
   4.11963E+01  2.11187E+01 -1.03351E+01  3.11873E+01  2.94159E+01  2.66488E+01  5.70564E+01  2.51309E+01  2.47364E+01  2.67233E+01
   2.01411E+01  4.25610E+01  3.82440E+01  4.30548E+01  3.55934E+01  1.21381E+01  2.18761E+01  3.81481E+01  4.58670E+01  3.27193E+01
   3.28429E+01  2.73970E+01  2.18280E+01  4.27353E+01  3.41242E+01  3.84602E+01  3.22869E+01  3.87568E+01  4.31636E+01  8.85254E+00
   1.99936E+01  2.24988E+01  2.15289E+01  3.12242E+01  3.06904E+01  4.76299E+01  5.29762E+01  3.25579E+01  4.29694E+01  4.93440E+01
   2.87505E+01  2.44193E+01  2.12202E+01  2.61838E+01  1.28619E+01  2.99660E+01  4.47173E+01  3.36762E+01  2.27303E+01  1.01222E+01
   5.25966E+01  4.70980E+01  3.35461E+01  4.53221E+01  1.90527E+01  1.32434E+01  3.98154E+01  4.87987E+01  2.36753E+01  2.08493E+01
 NY points of the fit to the data follow
   2.21688E+00 -2.94342E+00 -1.17214E+01 -1.61777E+01 -1.60855E+01 -1.59845E+01 -1.33301E+01 -6.62499E+00 -1.29294E-01  1.72446E+00
   6.46977E-02 -2.59615E+00 -5.53390E+00 -7.96851E+00 -1.00675E+01 -8.68055E+00 -7.20137E+00 -2.58690E+01 -4.55588E+01 -4.54644E+01
  -5.62750E+01 -6.60784E+01 -5.34474E+01 -3.41168E+01 -1.46349E+01  1.23248E+00  1.88400E+01  3.10492E+01  3.67107E+01  4.19251E+01
   4.64516E+01  4.99177E+01  5.09343E+01  5.03616E+01  5.02670E+01  5.04161E+01  5.15159E+01  4.81786E+01  3.67872E+01  2.39073E+01
   9.54003E+00 -7.03360E+00 -1.86915E+01 -1.95141E+01 -1.09078E+01  3.32993E+00  2.16560E+01  3.87102E+01  5.19175E+01  6.03473E+01
   6.61223E+01  7.00416E+01  7.09726E+01  6.66980E+01  6.29139E+01  6.30595E+01  5.15774E+01  3.84873E+01  3.95239E+01  3.41388E+01
   2.56013E+01  2.87459E+01  3.53993E+01  4.22852E+01  5.29184E+01  6.98926E+01  7.72429E+01  7.04111E+01  6.83351E+01  6.33688E+01
   4.60925E+01  3.29272E+01  3.19388E+01  3.70061E+01  4.29016E+01  5.13415E+01  6.27936E+01  7.28450E+01  8.00959E+01  8.56572E+01
   8.84294E+01  8.60647E+01  8.06242E+01  7.23892E+01  6.26510E+01  5.58912E+01  5.15437E+01  5.16893E+01  5.59128E+01  6.25617E+01
   7.01839E+01  7.69790E+01  8.31136E+01  8.77251E+01  9.24210E+01  9.82752E+01  1.00781E+02  1.00584E+02  1.06081E+02  1.10681E+02
   1.08402E+02  1.11155E+02  1.12396E+02  1.03102E+02  9.20574E+01  8.95211E+01  9.73275E+01  8.35599E+01  5.32847E+01  4.02488E+01
   2.30524E+01 -3.14239E+00 -2.33750E+01 -2.78311E+01 -1.79574E+01 -6.08234E+00  8.30240E+00  1.91056E+01  2.76433E+01  3.47634E+01
   4.09105E+01  4.61249E+01  5.13825E+01  5.71048E+01  6.47058E+01  7.37338E+01  7.83254E+01  8.80134E+01  1.37476E+02  1.84945E+02
   1.80243E+02  1.73600E+02  1.67572E+02  1.29902E+02  7.31543E+01  2.33401E+01 -4.47567E-01 -1.19763E+01 -1.17109E+01 -8.25120E+00
  -6.40431E+00 -5.57250E+00 -4.99573E+00 -4.66276E+00 -4.43651E+00 -3.90858E+00 -2.67814E+00 -8.79325E-01  1.81726E+00  4.86816E+00
   7.47011E+00  9.88778E+00  1.23546E+01  1.54449E+01  1.86523E+01  2.13050E+01  2.32833E+01  2.45716E+01  2.66805E+01  3.00160E+01
   3.18868E+01  3.21460E+01  3.28034E+01  3.43258E+01  3.54607E+01  3.43210E+01  3.08268E+01  2.50795E+01  2.23832E+01  2.89170E+01
   3.83981E+01  4.20968E+01  4.41261E+01  5.26406E+01  6.32736E+01  6.87145E+01  6.83942E+01  6.80756E+01  7.12784E+01  6.94474E+01
   6.00646E+01  4.83104E+01  3.75590E+01  2.97057E+01  2.36751E+01  1.99510E+01  1.74024E+01  1.52515E+01  1.60845E+01  1.62355E+01
   9.99848E+00  1.16399E+01  2.02443E+01  1.83665E+01  1.93406E+01  2.75571E+01  3.55216E+01  4.09982E+01  3.88431E+01  4.18467E+01
   4.86962E+01  5.05274E+01  5.12938E+01  5.25452E+01  5.66265E+01  5.67449E+01  5.20868E+01  4.72944E+01  3.99420E+01  2.75916E+01
   1.66539E+01  3.94629E+00 -7.03686E+00 -7.47108E-01  6.97025E+00  2.07725E+01  4.84947E+01  6.83465E+01  8.27856E+01  8.97304E+01
   9.00465E+01  8.59840E+01  7.85754E+01  7.58252E+01  7.52270E+01  7.62761E+01  7.73678E+01  7.65606E+01  7.28758E+01  6.51796E+01
   5.56795E+01  4.46953E+01  2.97152E+01  1.67621E+01  5.75435E+00 -6.72185E+00 -1.40015E+01 -1.76337E+01 -2.26547E+01 -2.43764E+01
  -2.35845E+01 -2.22532E+01 -1.73244E+01 -1.19393E+01 -3.09290E+00  6.37893E+00  1.13596E+01  1.95858E+01  2.33483E+01  1.72666E+01
   2.41156E+00  7.42800E+00  2.42950E+01 -3.94786E+01 -1.05707E+02 -7.68815E+01 -5.84688E+01 -5.20501E+01 -4.08439E+00  7.44267E+01
   1.45615E+02  1.74777E+02  1.89040E+02  1.82212E+02  1.71025E+02  1.61805E+02  1.53653E+02  1.46299E+02  1.39944E+02  1.33726E+02
   1.28636E+02  1.24959E+02  1.22216E+02  1.20725E+02  1.19503E+02  1.19009E+02  1.18607E+02  1.17938E+02  1.17000E+02  1.15470E+02
   1.13937E+02  1.12084E+02  1.09508E+02  1.06722E+02  1.04015E+02  1.01213E+02  9.85831E+01  9.55857E+01  9.22439E+01  8.89748E+01
   8.48934E+01  7.97760E+01  7.38566E+01  6.76639E+01  6.17471E+01  5.67203E+01  5.29948E+01  5.06094E+01  4.99436E+01  5.07846E+01
   5.23323E+01  5.42814E+01  5.66635E+01  5.90602E+01  6.11218E+01  6.31367E+01  6.54771E+01  6.76991E+01  6.99555E+01  7.22991E+01
   7.47493E+01  7.74000E+01  7.97908E+01  8.17675E+01  8.39809E+01  8.62285E+01  8.78647E+01  9.10969E+01  9.78308E+01  9.92785E+01
   9.73432E+01  9.49230E+01  8.38649E+01  7.18212E+01  6.07839E+01  4.88790E+01  4.02935E+01  3.35933E+01  2.96226E+01  2.29420E+01
   1.50723E+01  6.24170E+00 -2.04787E+00 -8.10897E+00 -1.11126E+01 -1.11607E+01 -8.42654E+00 -4.32999E+00 -1.79832E-01  4.15331E+00
   7.77091E+00  1.11356E+01  1.53416E+01  2.02148E+01  2.54819E+01  3.08383E+01  3.62887E+01  4.11031E+01  4.45398E+01  4.74885E+01
   4.94309E+01  4.95995E+01  4.80462E+01  4.50548E+01  4.08568E+01  3.58392E+01  3.11818E+01  2.76207E+01  2.55526E+01  2.51929E+01
   2.65739E+01  2.93565E+01  3.29441E+01  3.73505E+01  4.20246E+01  4.65832E+01  5.11716E+01  5.55591E+01  5.96897E+01  6.35202E+01
   6.74966E+01  7.11587E+01  7.46898E+01  7.85687E+01  8.22510E+01  8.60471E+01  9.07772E+01  9.61169E+01  1.01445E+02  1.07444E+02
   1.14861E+02  1.23189E+02  1.32655E+02  1.43635E+02  1.56145E+02  1.68632E+02  1.78888E+02  1.85242E+02  1.86861E+02  1.83789E+02
   1.76020E+02  1.65234E+02  1.54613E+02  1.44995E+02  1.36279E+02  1.28474E+02  1.21471E+02  1.13269E+02  1.03477E+02  9.34087E+01
   8.29671E+01  7.26224E+01  6.33721E+01  5.60685E+01  5.04998E+01  4.61978E+01  4.31411E+01  4.09270E+01  3.91226E+01  3.78644E+01
   3.68887E+01  3.59347E+01  3.49544E+01  3.46942E+01  3.48930E+01  3.47800E+01  3.42682E+01  3.43959E+01  3.48800E+01  3.46597E+01
   3.44683E+01  3.46363E+01  3.50125E+01  3.51218E+01  3.49542E+01  3.47812E+01  3.47963E+01  3.50142E+01  3.50525E+01  3.52198E+01
   3.55311E+01  3.56135E+01  3.54585E+01  3.53996E+01  3.51230E+01  3.48398E+01  3.48935E+01  3.49274E+01  3.50244E+01  3.52035E+01
   3.55059E+01  3.56871E+01  3.56392E+01  3.53882E+01  3.53061E+01  3.51246E+01  3.46251E+01  3.46336E+01  3.47067E+01  3.44833E+01
   3.43648E+01  3.44285E+01  3.42444E+01  3.40446E+01  3.40451E+01  3.40527E+01  3.40748E+01  3.42570E+01  3.44396E+01  3.44037E+01
   3.43860E+01  3.43718E+01  3.41117E+01  3.36892E+01  3.30921E+01  3.29479E+01  3.30164E+01  3.32938E+01  3.35943E+01  3.38293E+01
   3.38970E+01  3.38393E+01  3.35707E+01  3.29744E+01  3.27352E+01  3.28926E+01  3.26290E+01  3.23455E+01  3.22453E+01  3.18033E+01
 NY background values follow
     2.075E+01    2.103E+01    2.132E+01    2.161E+01    2.189E+01    2.218E+01    2.247E+01    2.276E+01    2.306E+01    2.335E+01
     2.365E+01    2.394E+01    2.424E+01    2.454E+01    2.485E+01    2.515E+01    2.546E+01    2.577E+01    2.608E+01    2.640E+01
     2.672E+01    2.704E+01    2.736E+01    2.769E+01    2.802E+01    2.835E+01    2.869E+01    2.903E+01    2.937E+01    2.972E+01
     3.007E+01    3.043E+01    3.079E+01    3.115E+01    3.152E+01    3.189E+01    3.226E+01    3.264E+01    3.302E+01    3.341E+01
     3.380E+01    3.420E+01    3.459E+01    3.499E+01    3.540E+01    3.581E+01    3.622E+01    3.664E+01    3.706E+01    3.748E+01
     3.791E+01    3.834E+01    3.877E+01    3.921E+01    3.965E+01    4.009E+01    4.054E+01    4.099E+01    4.145E+01    4.191E+01
     4.237E+01    4.283E+01    4.330E+01    4.377E+01    4.424E+01    4.472E+01    4.520E+01    4.568E+01    4.616E+01    4.665E+01
     4.714E+01    4.762E+01    4.812E+01    4.861E+01    4.910E+01    4.960E+01    5.009E+01    5.059E+01    5.109E+01    5.159E+01
     5.208E+01    5.258E+01    5.308E+01    5.358E+01    5.408E+01    5.458E+01    5.508E+01    5.558E+01    5.607E+01    5.657E+01
     5.707E+01    5.756E+01    5.805E+01    5.854E+01    5.903E+01    5.951E+01    5.999E+01    6.047E+01    6.093E+01    6.140E+01
     6.186E+01    6.231E+01    6.275E+01    6.319E+01    6.361E+01    6.403E+01    6.444E+01    6.484E+01    6.522E+01    6.560E+01
     6.596E+01    6.631E+01    6.665E+01    6.698E+01    6.729E+01    6.759E+01    6.787E+01    6.813E+01    6.838E+01    6.861E+01
     6.883E+01    6.902E+01    6.920E+01    6.937E+01    6.951E+01    6.964E+01    6.976E+01    6.986E+01    6.994E+01    7.001E+01
     7.007E+01    7.011E+01    7.014E+01    7.015E+01    7.016E+01    7.015E+01    7.013E+01    7.010E+01    7.006E+01    7.001E+01
     6.995E+01    6.987E+01    6.980E+01    6.971E+01    6.961E+01    6.951E+01    6.939E+01    6.928E+01    6.915E+01    6.902E+01
     6.888E+01    6.874E+01    6.859E+01    6.844E+01    6.828E+01    6.812E+01    6.795E+01    6.778E+01    6.761E+01    6.743E+01
     6.724E+01    6.706E+01    6.686E+01    6.667E+01    6.647E+01    6.627E+01    6.606E+01    6.585E+01    6.564E+01    6.542E+01
     6.520E+01    6.498E+01    6.476E+01    6.453E+01    6.431E+01    6.407E+01    6.384E+01    6.361E+01    6.337E+01    6.313E+01
     6.290E+01    6.266E+01    6.241E+01    6.217E+01    6.193E+01    6.169E+01    6.145E+01    6.121E+01    6.097E+01    6.073E+01
     6.049E+01    6.026E+01    6.003E+01    5.980E+01    5.958E+01    5.936E+01    5.914E+01    5.893E+01    5.872E+01    5.852E+01
     5.833E+01    5.814E+01    5.795E+01    5.778E+01    5.761E+01    5.744E+01    5.729E+01    5.714E+01    5.700E+01    5.687E+01
     5.675E+01    5.664E+01    5.654E+01    5.644E+01    5.636E+01    5.628E+01    5.620E+01    5.613E+01    5.607E+01    5.601E+01
     5.596E+01    5.591E+01    5.586E+01    5.582E+01    5.577E+01    5.573E+01    5.569E+01    5.565E+01    5.561E+01    5.557E+01
     5.553E+01    5.548E+01    5.543E+01    5.538E+01    5.533E+01    5.527E+01    5.521E+01    5.514E+01    5.507E+01    5.499E+01
     5.490E+01    5.480E+01    5.470E+01    5.459E+01    5.447E+01    5.434E+01    5.419E+01    5.404E+01    5.387E+01    5.369E+01
     5.350E+01    5.329E+01    5.306E+01    5.282E+01    5.257E+01    5.229E+01    5.200E+01    5.169E+01    5.136E+01    5.100E+01
     5.063E+01    5.024E+01    4.982E+01    4.938E+01    4.892E+01    4.843E+01    4.792E+01    4.738E+01    4.681E+01    4.622E+01
     4.560E+01    4.495E+01    4.428E+01    4.358E+01    4.286E+01    4.211E+01    4.135E+01    4.057E+01    3.978E+01    3.897E+01
     3.815E+01    3.732E+01    3.648E+01    3.563E+01    3.477E+01    3.391E+01    3.305E+01    3.219E+01    3.132E+01    3.046E+01
     2.961E+01    2.875E+01    2.791E+01    2.707E+01    2.625E+01    2.544E+01    2.464E+01    2.385E+01    2.309E+01    2.234E+01
     2.161E+01    2.090E+01    2.022E+01    1.956E+01    1.892E+01    1.830E+01    1.771E+01    1.715E+01    1.661E+01    1.610E+01
     1.561E+01    1.516E+01    1.473E+01    1.433E+01    1.396E+01    1.363E+01    1.332E+01    1.305E+01    1.281E+01    1.260E+01
     1.243E+01    1.229E+01    1.218E+01    1.212E+01    1.209E+01    1.209E+01    1.214E+01    1.222E+01    1.235E+01    1.251E+01
     1.272E+01    1.296E+01    1.325E+01    1.357E+01    1.392E+01    1.431E+01    1.473E+01    1.519E+01    1.567E+01    1.618E+01
     1.672E+01    1.728E+01    1.787E+01    1.848E+01    1.911E+01    1.976E+01    2.042E+01    2.110E+01    2.180E+01    2.251E+01
     2.323E+01    2.396E+01    2.470E+01    2.545E+01    2.620E+01    2.696E+01    2.772E+01    2.848E+01    2.924E+01    3.000E+01
     3.076E+01    3.151E+01    3.226E+01    3.300E+01    3.374E+01    3.447E+01    3.519E+01    3.591E+01    3.662E+01    3.732E+01
     3.801E+01    3.869E+01    3.936E+01    4.002E+01    4.068E+01    4.132E+01    4.194E+01    4.256E+01    4.316E+01    4.375E+01
     4.433E+01    4.489E+01    4.543E+01    4.596E+01    4.648E+01    4.697E+01    4.745E+01    4.792E+01    4.836E+01    4.879E+01
     4.919E+01    4.958E+01    4.995E+01    5.030E+01    5.063E+01    5.094E+01    5.123E+01    5.151E+01    5.177E+01    5.200E+01
     5.223E+01    5.243E+01    5.262E+01    5.279E+01    5.294E+01    5.308E+01    5.320E+01    5.330E+01    5.338E+01    5.346E+01
     5.351E+01    5.355E+01    5.357E+01    5.358E+01    5.357E+01    5.355E+01    5.351E+01    5.346E+01    5.339E+01    5.331E+01
     5.321E+01    5.310E+01    5.298E+01    5.284E+01    5.269E+01    5.253E+01    5.236E+01    5.217E+01    5.198E+01    5.177E+01
     5.156E+01    5.133E+01    5.110E+01    5.086E+01    5.061E+01    5.035E+01    5.008E+01    4.981E+01    4.953E+01    4.925E+01
     4.896E+01    4.866E+01    4.836E+01    4.806E+01    4.775E+01    4.744E+01    4.712E+01    4.680E+01    4.649E+01    4.617E+01
     4.584E+01    4.552E+01    4.520E+01    4.487E+01    4.454E+01    4.422E+01    4.389E+01    4.356E+01    4.323E+01    4.290E+01
     4.257E+01    4.224E+01    4.190E+01    4.157E+01    4.123E+01    4.090E+01    4.056E+01    4.023E+01    3.989E+01    3.955E+01
     3.921E+01    3.888E+01    3.854E+01    3.820E+01    3.786E+01    3.752E+01    3.718E+01    3.684E+01    3.650E+01    3.616E+01
 Mac      Conc. = 3.14E-04
  -1.61712E-01 -4.28362E-01 -3.06705E-01 -6.28755E-02  5.35913E-02 -1.29688E-01 -9.03372E-01 -2.23411E+00 -3.88929E+00 -5.59401E+00
  -6.84949E+00 -7.05453E+00 -6.88795E+00 -7.75324E+00 -1.02692E+01 -1.22636E+01 -1.29300E+01 -1.44190E+01 -1.46078E+01 -1.13550E+01
  -6.32392E+00 -1.36941E+00  3.12398E+00  7.37018E+00  1.03978E+01  1.25198E+01  1.46498E+01  1.66824E+01  1.87588E+01  2.13313E+01
   2.43115E+01  2.71019E+01  2.89789E+01  2.97921E+01  2.99447E+01  3.02504E+01  3.12767E+01  3.26405E+01  3.41158E+01  3.60937E+01
   3.81303E+01  3.97059E+01  4.09964E+01  4.21151E+01  4.35289E+01  4.53805E+01  4.73480E+01  4.87954E+01  4.92829E+01  4.91461E+01
   4.83654E+01  4.73537E+01  4.62568E+01  4.48472E+01  4.37119E+01  4.34680E+01  4.35185E+01  4.34279E+01  4.46141E+01  4.69117E+01
   4.91253E+01  5.14632E+01  5.34833E+01  5.48876E+01  5.57884E+01  5.61348E+01  5.54863E+01  5.37617E+01  5.26899E+01  5.28038E+01
   5.31967E+01  5.45075E+01  5.69904E+01  6.02826E+01  6.35179E+01  6.57779E+01  6.71922E+01  6.80194E+01  6.81667E+01  6.77063E+01
   6.68974E+01  6.66491E+01  6.65217E+01  6.64015E+01  6.69250E+01  6.79639E+01  6.91879E+01  7.04989E+01  7.19863E+01  7.34740E+01
   7.47774E+01  7.64469E+01  7.81153E+01  7.93182E+01  8.02366E+01  8.05382E+01  7.96079E+01  7.81446E+01  7.66157E+01  7.48199E+01
   7.30093E+01  7.20745E+01  7.16521E+01  7.05393E+01  6.73440E+01  6.21523E+01  5.57576E+01  4.83997E+01  4.06830E+01  3.43580E+01
