 
 $NMID
 ID=''
 FMTDAT='(2E13.5)'
 TRAMP=   1.00000E+0
 VOLUME=   1.00000E+0
 $END
  -4.38927E+5  -4.45124E+4
  -1.08889E+6  -5.04413E+5
  -1.13047E+6  -3.46386E+5
  -1.00855E+6  -3.64045E+5
  -9.76686E+5  -4.37639E+5
  -9.20225E+5  -4.60723E+5
  -8.62036E+5  -5.34932E+5
  -8.88151E+5  -5.97578E+5
  -8.87390E+5  -5.85853E+5
  -8.48503E+5  -5.98963E+5
  -8.26245E+5  -6.14471E+5
  -7.76990E+5  -6.12965E+5
  -7.24882E+5  -6.48481E+5
  -7.12812E+5  -6.81822E+5
  -6.90693E+5  -6.87833E+5
  -6.62252E+5  -7.01893E+5
  -6.46552E+5  -7.14399E+5
  -6.06372E+5  -7.19414E+5
  -5.60974E+5  -7.41627E+5
  -5.35062E+5  -7.59687E+5
  -4.99928E+5  -7.68043E+5
  -4.65278E+5  -7.83168E+5
  -4.41693E+5  -7.91181E+5
  -4.06421E+5  -7.94536E+5
  -3.69373E+5  -8.03392E+5
  -3.47738E+5  -8.04392E+5
  -3.19744E+5  -8.05787E+5
  -2.90977E+5  -8.10688E+5
  -2.65450E+5  -8.08329E+5
  -2.37936E+5  -8.05190E+5
  -2.09395E+5  -8.10232E+5
  -1.82520E+5  -8.09700E+5
  -1.50902E+5  -8.06399E+5
  -1.23307E+5  -8.05291E+5
  -9.81877E+4  -8.00837E+5
  -6.93114E+4  -7.97359E+5
  -4.04143E+4  -7.96523E+5
  -1.36474E+4  -7.90309E+5
   1.19606E+4  -7.82125E+5
   3.44670E+4  -7.76842E+5
   5.60050E+4  -7.67823E+5
   7.80774E+4  -7.57587E+5
   9.73485E+4  -7.48951E+5
   1.17462E+5  -7.39681E+5
   1.38383E+5  -7.28703E+5
   1.56795E+5  -7.19801E+5
   1.76090E+5  -7.09619E+5
   1.97505E+5  -6.96838E+5
   2.16904E+5  -6.82306E+5
   2.34626E+5  -6.69519E+5
   2.53554E+5  -6.56985E+5
   2.72337E+5  -6.43411E+5
   2.89724E+5  -6.29646E+5
   3.05776E+5  -6.16157E+5
   3.21208E+5  -6.01735E+5
   3.36069E+5  -5.85415E+5
   3.50211E+5  -5.69794E+5
   3.63056E+5  -5.54048E+5
   3.74725E+5  -5.39104E+5
   3.86974E+5  -5.24090E+5
   3.98721E+5  -5.08191E+5
   4.09818E+5  -4.92200E+5
   4.20962E+5  -4.76036E+5
   4.31702E+5  -4.58837E+5
   4.40798E+5  -4.41410E+5
   4.48471E+5  -4.24288E+5
   4.56901E+5  -4.07192E+5
   4.64544E+5  -3.90080E+5
   4.72208E+5  -3.73794E+5
   4.79766E+5  -3.56889E+5
   4.85632E+5  -3.39057E+5
   4.89983E+5  -3.22417E+5
   4.94500E+5  -3.06865E+5
   5.00138E+5  -2.90229E+5
   5.04086E+5  -2.72847E+5
   5.06828E+5  -2.56380E+5
   5.09678E+5  -2.40238E+5
   5.12108E+5  -2.23745E+5
   5.13955E+5  -2.06527E+5
   5.14399E+5  -1.89436E+5
   5.15311E+5  -1.72785E+5
   5.15109E+5  -1.56556E+5
   5.14964E+5  -1.40679E+5
   5.14268E+5  -1.24832E+5
   5.12108E+5  -1.09086E+5
   5.10115E+5  -9.37794E+4
   5.07374E+5  -7.89700E+4
   5.04537E+5  -6.43224E+4
   5.01616E+5  -5.02801E+4
   4.97552E+5  -3.69513E+4
   4.93069E+5  -2.40227E+4
   4.88531E+5  -1.08326E+4
   4.83539E+5   2.78864E+3
   4.77827E+5   1.64013E+4
   4.71316E+5   2.86838E+4
   4.65075E+5   4.05655E+4
   4.59417E+5   5.23857E+4
   4.52755E+5   6.43842E+4
   4.45436E+5   7.59552E+4
   4.37663E+5   8.64763E+4
   4.30623E+5   9.71026E+4
   4.22949E+5   1.08532E+5
   4.14403E+5   1.18764E+5
   4.05905E+5   1.27931E+5
   3.97881E+5   1.36490E+5
   3.89699E+5   1.44998E+5
   3.81285E+5   1.54315E+5
   3.71882E+5   1.63079E+5
   3.62504E+5   1.71005E+5
   3.53699E+5   1.77936E+5
   3.44852E+5   1.85259E+5
   3.36228E+5   1.92836E+5
   3.25883E+5   2.00708E+5
   3.15960E+5   2.07236E+5
   3.06516E+5   2.13779E+5
   2.96783E+5   2.20386E+5
   2.86814E+5   2.26599E+5
   2.76421E+5   2.31721E+5
   2.66399E+5   2.36278E+5
   2.56938E+5   2.40700E+5
   2.47114E+5   2.45745E+5
   2.37471E+5   2.50015E+5
   2.27496E+5   2.53969E+5
   2.17700E+5   2.58021E+5
   2.07704E+5   2.61628E+5
   1.97343E+5   2.64630E+5
   1.87340E+5   2.67270E+5
   1.77392E+5   2.69593E+5
   1.67342E+5   2.72358E+5
   1.57396E+5   2.75158E+5
   1.47174E+5   2.77119E+5
   1.36778E+5   2.78577E+5
   1.26948E+5   2.79513E+5
   1.17433E+5   2.80551E+5
   1.07355E+5   2.81646E+5
   9.74278E+4   2.81954E+5
   8.78072E+4   2.81944E+5
   7.85947E+4   2.82156E+5
   6.91409E+4   2.82280E+5
   5.96217E+4   2.81877E+5
   5.01469E+4   2.80630E+5
   4.14218E+4   2.79240E+5
   3.29636E+4   2.77520E+5
   2.44374E+4   2.76967E+5
   1.51436E+4   2.75712E+5
   6.46578E+3   2.73169E+5
  -1.19414E+3   2.70753E+5
  -9.18095E+3   2.68195E+5
  -1.70879E+4   2.65723E+5
  -2.48734E+4   2.62912E+5
  -3.19773E+4   2.59617E+5
  -3.89954E+4   2.56872E+5
  -4.58996E+4   2.54309E+5
  -5.28337E+4   2.50866E+5
  -5.96237E+4   2.47235E+5
  -6.56056E+4   2.43351E+5
  -7.16427E+4   2.39846E+5
  -7.78384E+4   2.36188E+5
  -8.36667E+4   2.31887E+5
  -8.91683E+4   2.27994E+5
  -9.43315E+4   2.24134E+5
  -9.94151E+4   2.19456E+5
  -1.04105E+5   2.15251E+5
  -1.08689E+5   2.10694E+5
  -1.13298E+5   2.05876E+5
  -1.17219E+5   2.01661E+5
  -1.21581E+5   1.97263E+5
  -1.25572E+5   1.92970E+5
  -1.29141E+5   1.88219E+5
  -1.32365E+5   1.83304E+5
  -1.35697E+5   1.78605E+5
  -1.38822E+5   1.73881E+5
  -1.41820E+5   1.68867E+5
  -1.44619E+5   1.64026E+5
  -1.46753E+5   1.59000E+5
  -1.49480E+5   1.54474E+5
  -1.51953E+5   1.49367E+5
  -1.54173E+5   1.44039E+5
  -1.55946E+5   1.38636E+5
  -1.57638E+5   1.33846E+5
  -1.59733E+5   1.29188E+5
  -1.61308E+5   1.23912E+5
  -1.62578E+5   1.18612E+5
  -1.63727E+5   1.13434E+5
  -1.64668E+5   1.08484E+5
  -1.65922E+5   1.03477E+5
  -1.66728E+5   9.84238E+4
  -1.66843E+5   9.34705E+4
  -1.67082E+5   8.88118E+4
  -1.67697E+5   8.40965E+4
  -1.68366E+5   7.92637E+4
  -1.68542E+5   7.38435E+4
  -1.68540E+5   6.88102E+4
  -1.68187E+5   6.38358E+4
  -1.67996E+5   5.91566E+4
  -1.67820E+5   5.42588E+4
  -1.67303E+5   4.93620E+4
  -1.66590E+5   4.46344E+4
  -1.66033E+5   4.00351E+4
  -1.65345E+5   3.52346E+4
  -1.64317E+5   3.02549E+4
  -1.63013E+5   2.58359E+4
  -1.61709E+5   2.13268E+4
  -1.60405E+5   1.74106E+4
  -1.59173E+5   1.27715E+4
  -1.57782E+5   8.57238E+3
  -1.56064E+5   4.14173E+3
  -1.54360E+5   9.77879E+1
  -1.52570E+5  -3.85616E+3
  -1.50928E+5  -7.88963E+3
  -1.48757E+5  -1.13117E+4
  -1.46588E+5  -1.52846E+4
  -1.44247E+5  -1.86019E+4
  -1.42413E+5  -2.24976E+4
  -1.39932E+5  -2.60688E+4
  -1.37239E+5  -2.95021E+4
  -1.34644E+5  -3.24246E+4
  -1.32390E+5  -3.51493E+4
  -1.29800E+5  -3.81653E+4
  -1.26981E+5  -4.12520E+4
  -1.24374E+5  -4.37496E+4
  -1.21887E+5  -4.63889E+4
  -1.19020E+5  -4.89484E+4
  -1.16154E+5  -5.14051E+4
  -1.13174E+5  -5.39927E+4
  -1.09901E+5  -5.59459E+4
  -1.06979E+5  -5.78139E+4
  -1.04038E+5  -5.99908E+4
  -1.01330E+5  -6.20988E+4
  -9.80513E+4  -6.38972E+4
  -9.50385E+4  -6.53311E+4
  -9.19499E+4  -6.69031E+4
  -8.89346E+4  -6.81609E+4
  -8.58384E+4  -7.00843E+4
  -8.28201E+4  -7.10251E+4
  -7.99438E+4  -7.22187E+4
  -7.70141E+4  -7.33587E+4
  -7.36675E+4  -7.44952E+4
  -7.06707E+4  -7.53743E+4
  -6.73668E+4  -7.60873E+4
  -6.45160E+4  -7.67495E+4
  -6.18183E+4  -7.76600E+4
  -5.86591E+4  -7.84861E+4
  -5.55612E+4  -7.90400E+4
  -5.24448E+4  -7.90999E+4
  -4.95960E+4  -7.97798E+4
  -4.68315E+4  -8.00992E+4
  -4.34548E+4  -8.03466E+4
  -4.04701E+4  -8.03383E+4
  -3.79694E+4  -8.04817E+4
  -3.51697E+4  -8.07620E+4
  -3.27056E+4  -8.07227E+4
  -2.94134E+4  -8.08845E+4
  -2.69997E+4  -8.05957E+4
  -2.45511E+4  -8.03822E+4
  -2.17189E+4  -8.03192E+4
  -1.91414E+4  -8.02452E+4
  -1.64848E+4  -7.96574E+4
  -1.37260E+4  -7.92239E+4
  -1.14318E+4  -7.90615E+4
  -8.61181E+3  -7.87834E+4
  -6.04754E+3  -7.83178E+4
  -3.75589E+3  -7.72488E+4
  -1.43422E+3  -7.65852E+4
   6.69138E+2  -7.60949E+4
   2.94011E+3  -7.55411E+4
   5.54032E+3  -7.46947E+4
   7.61430E+3  -7.37812E+4
   9.43224E+3  -7.28506E+4
   1.15715E+4  -7.20298E+4
   1.38122E+4  -7.12055E+4
   1.54997E+4  -7.02367E+4
   1.74921E+4  -6.93632E+4
   1.94447E+4  -6.81106E+4
   2.09554E+4  -6.71914E+4
   2.29480E+4  -6.59198E+4
   2.46853E+4  -6.46400E+4
   2.60156E+4  -6.34398E+4
   2.74942E+4  -6.22845E+4
   2.90523E+4  -6.11878E+4
   3.10418E+4  -5.99033E+4
   3.19108E+4  -5.85712E+4
   3.35011E+4  -5.71884E+4
   3.44621E+4  -5.59648E+4
   3.59297E+4  -5.45108E+4
   3.69996E+4  -5.30035E+4
   3.78323E+4  -5.16793E+4
   3.90215E+4  -5.00750E+4
   4.00510E+4  -4.90220E+4
   4.11489E+4  -4.76599E+4
   4.20536E+4  -4.58925E+4
   4.27480E+4  -4.46987E+4
   4.36838E+4  -4.32581E+4
   4.45361E+4  -4.21119E+4
   4.50200E+4  -4.01931E+4
   4.56755E+4  -3.89919E+4
   4.61729E+4  -3.75956E+4
   4.67037E+4  -3.62821E+4
   4.75326E+4  -3.47037E+4
   4.79399E+4  -3.32143E+4
   4.79673E+4  -3.16374E+4
   4.83555E+4  -3.02666E+4
   4.87426E+4  -2.91302E+4
   4.89925E+4  -2.75693E+4
   4.93075E+4  -2.61611E+4
   4.93357E+4  -2.47120E+4
   4.95516E+4  -2.33068E+4
   4.96784E+4  -2.19378E+4
   4.98761E+4  -2.06129E+4
   4.95922E+4  -1.92840E+4
   4.97498E+4  -1.78379E+4
   4.95932E+4  -1.66321E+4
   4.95492E+4  -1.52363E+4
   4.96392E+4  -1.36304E+4
   4.94439E+4  -1.26789E+4
   4.91568E+4  -1.13747E+4
   4.89030E+4  -1.03143E+4
   4.86870E+4  -9.00469E+3
   4.85356E+4  -7.75831E+3
   4.80987E+4  -6.84448E+3
   4.77978E+4  -5.42568E+3
   4.72967E+4  -4.44246E+3
   4.70506E+4  -3.16314E+3
   4.66314E+4  -2.31039E+3
   4.60326E+4  -1.22524E+3
   4.59760E+4  -9.96392E+1
   4.53937E+4   1.01019E+3
   4.47742E+4   2.15856E+3
   4.43013E+4   3.14851E+3
   4.36220E+4   4.33880E+3
   4.28911E+4   4.88191E+3
   4.24267E+4   5.82344E+3
   4.17638E+4   6.83785E+3
   4.11887E+4   7.47988E+3
   4.05760E+4   8.25058E+3
   4.03144E+4   9.25648E+3
   3.92073E+4   1.00040E+4
   3.85728E+4   1.10262E+4
   3.77254E+4   1.17112E+4
   3.73741E+4   1.23366E+4
   3.64404E+4   1.32293E+4
   3.58794E+4   1.38628E+4
   3.49022E+4   1.47207E+4
   3.40180E+4   1.48797E+4
   3.34086E+4   1.58638E+4
   3.27003E+4   1.62816E+4
   3.17697E+4   1.68341E+4
   3.10131E+4   1.72224E+4
   3.04374E+4   1.79426E+4
   2.94385E+4   1.82783E+4
   2.85779E+4   1.90052E+4
   2.78249E+4   1.92313E+4
   2.71290E+4   2.00020E+4
   2.59715E+4   2.00416E+4
   2.53056E+4   2.03877E+4
   2.43680E+4   2.09656E+4
   2.34664E+4   2.07770E+4
   2.28249E+4   2.16961E+4
   2.18138E+4   2.16987E+4
   2.10608E+4   2.19495E+4
   2.02952E+4   2.21702E+4
   1.93998E+4   2.24652E+4
   1.85580E+4   2.25298E+4
   1.77991E+4   2.26387E+4
   1.71635E+4   2.30366E+4
   1.61179E+4   2.31810E+4
   1.53741E+4   2.30017E+4
