 
 $NMID
 ID=''
 FMTDAT='(2E13.5)'
 TRAMP=   1.00000E+0
 VOLUME=   1.00000E+0
 $END
  -4.68899E+5   5.00148E+5
  -1.56733E+6   8.18689E+5
  -1.38627E+6   9.40929E+5
  -1.38058E+6   7.31917E+5
  -1.54139E+6   7.05836E+5
  -1.50506E+6   7.47800E+5
  -1.44700E+6   6.73147E+5
  -1.47765E+6   6.28884E+5
  -1.46451E+6   6.00673E+5
  -1.48704E+6   5.47390E+5
  -1.51240E+6   5.59546E+5
  -1.45901E+6   5.52231E+5
  -1.44071E+6   4.83454E+5
  -1.46622E+6   4.61738E+5
  -1.45437E+6   4.58413E+5
  -1.44505E+6   4.35669E+5
  -1.44550E+6   4.22394E+5
  -1.42251E+6   3.83893E+5
  -1.42621E+6   3.30058E+5
  -1.43961E+6   3.11728E+5
  -1.42264E+6   2.87785E+5
  -1.41194E+6   2.51804E+5
  -1.40803E+6   2.31269E+5
  -1.39526E+6   2.00588E+5
  -1.39106E+6   1.65088E+5
  -1.38447E+6   1.60356E+5
  -1.36839E+6   1.47933E+5
  -1.35999E+6   1.25206E+5
  -1.34849E+6   1.09043E+5
  -1.33455E+6   9.39400E+4
  -1.33190E+6   7.11156E+4
  -1.32119E+6   5.43318E+4
  -1.30319E+6   3.03732E+4
  -1.29384E+6   6.11407E+3
  -1.28453E+6  -1.25565E+4
  -1.27162E+6  -3.44540E+4
  -1.26294E+6  -5.80196E+4
  -1.24937E+6  -7.76837E+4
  -1.23340E+6  -9.64678E+4
  -1.22325E+6  -1.12154E+5
  -1.20986E+6  -1.24345E+5
  -1.19406E+6  -1.37667E+5
  -1.18151E+6  -1.48160E+5
  -1.16955E+6  -1.57940E+5
  -1.15514E+6  -1.69461E+5
  -1.14410E+6  -1.80468E+5
  -1.13055E+6  -1.93585E+5
  -1.11454E+6  -2.11263E+5
  -1.09757E+6  -2.26405E+5
  -1.08222E+6  -2.38874E+5
  -1.06766E+6  -2.53946E+5
  -1.05206E+6  -2.69217E+5
  -1.03642E+6  -2.83126E+5
  -1.02135E+6  -2.96927E+5
  -1.00620E+6  -3.09514E+5
  -9.89608E+5  -3.21311E+5
  -9.73273E+5  -3.32281E+5
  -9.58055E+5  -3.41509E+5
  -9.42677E+5  -3.49781E+5
  -9.27804E+5  -3.59186E+5
  -9.12786E+5  -3.68236E+5
  -8.97751E+5  -3.77641E+5
  -8.81804E+5  -3.88240E+5
  -8.64697E+5  -3.98591E+5
  -8.46882E+5  -4.07911E+5
  -8.29749E+5  -4.16456E+5
  -8.12561E+5  -4.25399E+5
  -7.95655E+5  -4.33356E+5
  -7.79909E+5  -4.41472E+5
  -7.64509E+5  -4.49880E+5
  -7.47561E+5  -4.57201E+5
  -7.31314E+5  -4.62566E+5
  -7.16858E+5  -4.68675E+5
  -7.01786E+5  -4.75971E+5
  -6.85306E+5  -4.81451E+5
  -6.68769E+5  -4.86609E+5
  -6.53723E+5  -4.92232E+5
  -6.37604E+5  -4.98176E+5
  -6.20542E+5  -5.04228E+5
  -6.03570E+5  -5.09658E+5
  -5.86707E+5  -5.14896E+5
  -5.70701E+5  -5.19728E+5
  -5.54870E+5  -5.23657E+5
  -5.39263E+5  -5.28075E+5
  -5.22954E+5  -5.31756E+5
  -5.08131E+5  -5.34280E+5
  -4.94069E+5  -5.36341E+5
  -4.80111E+5  -5.38879E+5
  -4.66173E+5  -5.40486E+5
  -4.52230E+5  -5.41445E+5
  -4.39109E+5  -5.42322E+5
  -4.25338E+5  -5.44269E+5
  -4.10914E+5  -5.45675E+5
  -3.96335E+5  -5.46382E+5
  -3.82232E+5  -5.46945E+5
  -3.68406E+5  -5.47826E+5
  -3.54685E+5  -5.48660E+5
  -3.41024E+5  -5.49192E+5
  -3.27581E+5  -5.49187E+5
  -3.14563E+5  -5.48761E+5
  -3.02445E+5  -5.48800E+5
  -2.90309E+5  -5.48501E+5
  -2.77541E+5  -5.47337E+5
  -2.65655E+5  -5.45434E+5
  -2.54876E+5  -5.43460E+5
  -2.44363E+5  -5.42329E+5
  -2.33360E+5  -5.41345E+5
  -2.21557E+5  -5.39383E+5
  -2.10769E+5  -5.36556E+5
  -2.00973E+5  -5.33764E+5
  -1.90596E+5  -5.32209E+5
  -1.79764E+5  -5.30526E+5
  -1.68766E+5  -5.28403E+5
  -1.58087E+5  -5.25868E+5
  -1.47443E+5  -5.23224E+5
  -1.37317E+5  -5.20659E+5
  -1.27035E+5  -5.17794E+5
  -1.17105E+5  -5.14015E+5
  -1.07967E+5  -5.09984E+5
  -9.93224E+4  -5.06548E+5
  -9.07738E+4  -5.03416E+5
  -8.19090E+4  -5.00178E+5
  -7.29565E+4  -4.96651E+5
  -6.37676E+4  -4.93040E+5
  -5.52881E+4  -4.89111E+5
  -4.69245E+4  -4.84876E+5
  -3.89693E+4  -4.80239E+5
  -3.07895E+4  -4.76004E+5
  -2.25702E+4  -4.71865E+5
  -1.46338E+4  -4.68069E+5
  -6.07819E+3  -4.63844E+5
   2.21923E+3  -4.58762E+5
   1.00621E+4  -4.53898E+5
   1.76325E+4  -4.49152E+5
   2.52383E+4  -4.44147E+5
   3.26230E+4  -4.38811E+5
   3.95592E+4  -4.33713E+5
   4.64176E+4  -4.29118E+5
   5.38837E+4  -4.24265E+5
   6.09894E+4  -4.18923E+5
   6.80037E+4  -4.13226E+5
   7.40255E+4  -4.07435E+5
   8.01429E+4  -4.02101E+5
   8.61559E+4  -3.97401E+5
   9.25939E+4  -3.91899E+5
   9.84389E+4  -3.86128E+5
   1.04302E+5  -3.80291E+5
   1.09809E+5  -3.74486E+5
   1.14848E+5  -3.68793E+5
   1.19653E+5  -3.62960E+5
   1.24300E+5  -3.57517E+5
   1.28905E+5  -3.52030E+5
   1.33696E+5  -3.46836E+5
   1.37931E+5  -3.41324E+5
   1.42605E+5  -3.35615E+5
   1.46588E+5  -3.29941E+5
   1.50640E+5  -3.24381E+5
   1.54846E+5  -3.19050E+5
   1.58476E+5  -3.13295E+5
   1.61706E+5  -3.07707E+5
   1.65475E+5  -3.02417E+5
   1.68854E+5  -2.96752E+5
   1.72385E+5  -2.91326E+5
   1.75113E+5  -2.85470E+5
   1.77945E+5  -2.80124E+5
   1.80424E+5  -2.74838E+5
   1.83393E+5  -2.69968E+5
   1.86199E+5  -2.64819E+5
   1.88753E+5  -2.59518E+5
   1.90888E+5  -2.54450E+5
   1.93054E+5  -2.49660E+5
   1.95190E+5  -2.44591E+5
   1.96931E+5  -2.39613E+5
   1.98861E+5  -2.34733E+5
   2.00582E+5  -2.29531E+5
   2.02392E+5  -2.24653E+5
   2.04213E+5  -2.19842E+5
   2.05963E+5  -2.14599E+5
   2.07349E+5  -2.09372E+5
   2.08417E+5  -2.04722E+5
   2.09931E+5  -2.00149E+5
   2.11662E+5  -1.95490E+5
   2.12756E+5  -1.90035E+5
   2.14245E+5  -1.85416E+5
   2.15103E+5  -1.80835E+5
   2.15999E+5  -1.76273E+5
   2.16475E+5  -1.71325E+5
   2.17238E+5  -1.66950E+5
   2.17936E+5  -1.62576E+5
   2.18603E+5  -1.58473E+5
   2.19672E+5  -1.53742E+5
   2.20290E+5  -1.48960E+5
   2.20775E+5  -1.44276E+5
   2.21212E+5  -1.39838E+5
   2.21462E+5  -1.35493E+5
   2.21994E+5  -1.30671E+5
   2.22197E+5  -1.26398E+5
   2.22746E+5  -1.21930E+5
   2.22915E+5  -1.17643E+5
   2.23184E+5  -1.13086E+5
   2.23088E+5  -1.08231E+5
   2.23139E+5  -1.03847E+5
   2.22886E+5  -9.94166E+4
   2.22842E+5  -9.55547E+4
   2.22822E+5  -9.13564E+4
   2.22690E+5  -8.67250E+4
   2.22364E+5  -8.24844E+4
   2.22053E+5  -7.82061E+4
   2.21347E+5  -7.40209E+4
   2.21124E+5  -7.00891E+4
   2.20526E+5  -6.57320E+4
   2.19908E+5  -6.18686E+4
   2.19377E+5  -5.81243E+4
   2.19346E+5  -5.41996E+4
   2.18375E+5  -4.97397E+4
   2.17200E+5  -4.58393E+4
   2.16249E+5  -4.21139E+4
   2.15306E+5  -3.85764E+4
   2.14211E+5  -3.54080E+4
   2.13283E+5  -3.14783E+4
   2.12314E+5  -2.80805E+4
   2.11087E+5  -2.48164E+4
   2.10006E+5  -2.14689E+4
   2.08877E+5  -1.81705E+4
   2.07531E+5  -1.44942E+4
   2.05636E+5  -1.14936E+4
   2.04421E+5  -8.70659E+3
   2.02980E+5  -5.81253E+3
   2.01812E+5  -2.47699E+3
   2.00062E+5   5.04857E+2
   1.98393E+5   3.52546E+3
   1.96921E+5   5.78576E+3
   1.95208E+5   8.93542E+3
   1.93728E+5   1.13017E+4
   1.91847E+5   1.38325E+4
   1.90051E+5   1.61951E+4
   1.88599E+5   1.85612E+4
   1.86620E+5   2.10023E+4
   1.84685E+5   2.30545E+4
   1.82894E+5   2.55483E+4
   1.80937E+5   2.75154E+4
   1.79281E+5   2.97067E+4
   1.77349E+5   3.20229E+4
   1.75425E+5   3.40787E+4
   1.73266E+5   3.61278E+4
   1.71359E+5   3.82004E+4
   1.69416E+5   4.00019E+4
   1.67353E+5   4.20052E+4
   1.65415E+5   4.36198E+4
   1.63416E+5   4.55397E+4
   1.61860E+5   4.74127E+4
   1.59602E+5   4.91185E+4
   1.57568E+5   5.10205E+4
   1.55485E+5   5.25748E+4
   1.53333E+5   5.39263E+4
   1.51496E+5   5.56100E+4
   1.49482E+5   5.72134E+4
   1.47413E+5   5.93172E+4
   1.45252E+5   6.08043E+4
   1.42973E+5   6.26139E+4
   1.40858E+5   6.41697E+4
   1.38472E+5   6.59042E+4
   1.36216E+5   6.72046E+4
   1.34081E+5   6.84667E+4
   1.32169E+5   6.96799E+4
   1.30173E+5   7.15860E+4
   1.28074E+5   7.29376E+4
   1.25706E+5   7.46230E+4
   1.23440E+5   7.54438E+4
   1.21222E+5   7.70397E+4
   1.19200E+5   7.80257E+4
   1.17171E+5   7.93292E+4
   1.14732E+5   8.03728E+4
   1.12688E+5   8.15274E+4
   1.10459E+5   8.29708E+4
   1.08126E+5   8.40878E+4
   1.05862E+5   8.51524E+4
   1.03528E+5   8.58616E+4
   1.01783E+5   8.68559E+4
   9.93521E+4   8.74644E+4
   9.71838E+4   8.85151E+4
   9.52349E+4   8.94374E+4
   9.29200E+4   9.00185E+4
   9.07810E+4   9.07894E+4
   8.86916E+4   9.18442E+4
   8.64649E+4   9.21693E+4
   8.41327E+4   9.29590E+4
   8.18445E+4   9.33118E+4
   8.03976E+4   9.37124E+4
   7.82275E+4   9.46589E+4
   7.57805E+4   9.48428E+4
   7.37028E+4   9.55872E+4
   7.16516E+4   9.59853E+4
   6.95522E+4   9.61020E+4
   6.76201E+4   9.64411E+4
   6.57722E+4   9.68066E+4
   6.36304E+4   9.68818E+4
   6.18107E+4   9.73497E+4
   5.95710E+4   9.74743E+4
   5.74177E+4   9.74858E+4
   5.56414E+4   9.75506E+4
   5.39118E+4   9.75133E+4
   5.18503E+4   9.78409E+4
   4.98432E+4   9.77148E+4
   4.75274E+4   9.76001E+4
   4.57531E+4   9.74784E+4
   4.38823E+4   9.74054E+4
   4.19821E+4   9.72580E+4
   4.00741E+4   9.72632E+4
   3.80660E+4   9.70145E+4
   3.63732E+4   9.69699E+4
   3.44586E+4   9.68591E+4
   3.22068E+4   9.67816E+4
   3.04489E+4   9.63246E+4
   2.86149E+4   9.59696E+4
   2.69565E+4   9.54315E+4
   2.50227E+4   9.55087E+4
   2.31476E+4   9.50998E+4
   2.14174E+4   9.44770E+4
   1.98918E+4   9.42922E+4
   1.81047E+4   9.40940E+4
   1.61607E+4   9.34930E+4
   1.41446E+4   9.30243E+4
   1.25611E+4   9.24028E+4
   1.12732E+4   9.17802E+4
   9.37609E+3   9.15940E+4
   7.80501E+3   9.10958E+4
   5.93030E+3   9.07781E+4
   4.33707E+3   8.98537E+4
   2.60287E+3   8.92856E+4
   1.06262E+3   8.87555E+4
  -2.83286E+2   8.80609E+4
  -1.84472E+3   8.76298E+4
  -3.28529E+3   8.68695E+4
  -4.92617E+3   8.64350E+4
  -6.41607E+3   8.58419E+4
  -7.84769E+3   8.49547E+4
  -9.61530E+3   8.41263E+4
  -1.08646E+4   8.32316E+4
  -1.21622E+4   8.26263E+4
  -1.33294E+4   8.19823E+4
  -1.47910E+4   8.12053E+4
  -1.65351E+4   8.04665E+4
  -1.77486E+4   7.99221E+4
  -1.87127E+4   7.90273E+4
  -2.00858E+4   7.78916E+4
  -2.11699E+4   7.69380E+4
  -2.24633E+4   7.62061E+4
  -2.34080E+4   7.53797E+4
  -2.45408E+4   7.47457E+4
  -2.59864E+4   7.38695E+4
  -2.67891E+4   7.29432E+4
  -2.78305E+4   7.19104E+4
  -2.90273E+4   7.08680E+4
  -2.97241E+4   7.02381E+4
  -3.07783E+4   6.90439E+4
  -3.17915E+4   6.84736E+4
  -3.27760E+4   6.74360E+4
  -3.33195E+4   6.66276E+4
  -3.44759E+4   6.57174E+4
  -3.53235E+4   6.44842E+4
  -3.58607E+4   6.36387E+4
  -3.65654E+4   6.23834E+4
  -3.72940E+4   6.18236E+4
  -3.83666E+4   6.07773E+4
  -3.87775E+4   5.97714E+4
  -3.94679E+4   5.86469E+4
