 
 $NMID
 ID=''
 FMTDAT='(2E13.5)'
 TRAMP=   1.00000E+0
 VOLUME=   1.00000E+0
 $END
  -5.62595E+5   6.99291E+3
  -1.39083E+6  -4.50513E+5
  -1.34664E+6  -2.49122E+5
  -1.16704E+6  -3.61606E+5
  -1.20294E+6  -5.20390E+5
  -1.22862E+6  -5.30961E+5
  -1.20113E+6  -5.44167E+5
  -1.20201E+6  -5.48010E+5
  -1.13204E+6  -5.32728E+5
  -1.05883E+6  -6.09888E+5
  -1.07403E+6  -6.79659E+5
  -1.07792E+6  -6.77059E+5
  -1.04882E+6  -6.80607E+5
  -1.01993E+6  -6.84629E+5
  -9.63266E+5  -6.95253E+5
  -9.29204E+5  -7.42875E+5
  -9.38277E+5  -7.75403E+5
  -9.14916E+5  -7.77068E+5
  -8.70279E+5  -7.92475E+5
  -8.39054E+5  -8.11935E+5
  -7.98878E+5  -8.34749E+5
  -7.71075E+5  -8.66537E+5
  -7.58859E+5  -8.77943E+5
  -7.26149E+5  -8.80518E+5
  -6.85608E+5  -8.95556E+5
  -6.62894E+5  -9.04242E+5
  -6.37708E+5  -9.14761E+5
  -6.15622E+5  -9.26846E+5
  -5.93626E+5  -9.25883E+5
  -5.65268E+5  -9.24955E+5
  -5.35741E+5  -9.39591E+5
  -5.10516E+5  -9.46768E+5
  -4.81469E+5  -9.50717E+5
  -4.56527E+5  -9.55931E+5
  -4.31322E+5  -9.56265E+5
  -4.01449E+5  -9.58590E+5
  -3.74565E+5  -9.66654E+5
  -3.49033E+5  -9.68189E+5
  -3.23239E+5  -9.64716E+5
  -3.01303E+5  -9.63585E+5
  -2.78553E+5  -9.59569E+5
  -2.54696E+5  -9.55067E+5
  -2.35284E+5  -9.50165E+5
  -2.15769E+5  -9.44542E+5
  -1.94332E+5  -9.38237E+5
  -1.74448E+5  -9.33807E+5
  -1.52542E+5  -9.27034E+5
  -1.28759E+5  -9.19228E+5
  -1.07147E+5  -9.09450E+5
  -8.62077E+4  -9.00578E+5
  -6.40296E+4  -8.92660E+5
  -4.30487E+4  -8.83626E+5
  -2.34042E+4  -8.73286E+5
  -3.60132E+3  -8.62800E+5
   1.58719E+4  -8.50981E+5
   3.55680E+4  -8.38457E+5
   5.37243E+4  -8.26391E+5
   6.99017E+4  -8.13382E+5
   8.49448E+4  -7.99178E+5
   1.01056E+5  -7.85949E+5
   1.18040E+5  -7.72016E+5
   1.34480E+5  -7.57945E+5
   1.50232E+5  -7.43836E+5
   1.65738E+5  -7.28700E+5
   1.80824E+5  -7.11917E+5
   1.94815E+5  -6.94946E+5
   2.08951E+5  -6.78372E+5
   2.22502E+5  -6.62462E+5
   2.35990E+5  -6.47401E+5
   2.49220E+5  -6.30719E+5
   2.61602E+5  -6.13086E+5
   2.71866E+5  -5.95835E+5
   2.82591E+5  -5.80015E+5
   2.94038E+5  -5.63791E+5
   3.04531E+5  -5.45835E+5
   3.13875E+5  -5.28292E+5
   3.23205E+5  -5.11202E+5
   3.32715E+5  -4.93707E+5
   3.41878E+5  -4.75201E+5
   3.49967E+5  -4.56760E+5
   3.58085E+5  -4.38795E+5
   3.65192E+5  -4.20936E+5
   3.72054E+5  -4.03268E+5
   3.78781E+5  -3.84962E+5
   3.84304E+5  -3.66842E+5
   3.89230E+5  -3.49467E+5
   3.94003E+5  -3.32800E+5
   3.98042E+5  -3.15914E+5
   4.01090E+5  -2.98889E+5
   4.03309E+5  -2.82121E+5
   4.06005E+5  -2.66543E+5
   4.08688E+5  -2.50012E+5
   4.10851E+5  -2.33240E+5
   4.11762E+5  -2.16318E+5
   4.12105E+5  -2.00151E+5
   4.12745E+5  -1.84485E+5
   4.13851E+5  -1.68831E+5
   4.14055E+5  -1.53196E+5
   4.13662E+5  -1.37540E+5
   4.12494E+5  -1.22647E+5
   4.11600E+5  -1.07975E+5
   4.10708E+5  -9.31474E+4
   4.07846E+5  -7.85005E+4
   4.04790E+5  -6.49070E+4
   4.02311E+5  -5.22846E+4
   4.00022E+5  -3.97438E+4
   3.97585E+5  -2.62883E+4
   3.93834E+5  -1.27546E+4
   3.89328E+5  -5.59973E+2
   3.85463E+5   1.09177E+4
   3.81929E+5   2.22952E+4
   3.77903E+5   3.49767E+4
   3.73195E+5   4.72671E+4
   3.68334E+5   5.88096E+4
   3.62738E+5   7.00852E+4
   3.57858E+5   8.10663E+4
   3.52439E+5   9.21913E+4
   3.46023E+5   1.02536E+5
   3.39738E+5   1.11524E+5
   3.33825E+5   1.20989E+5
   3.28133E+5   1.30784E+5
   3.22131E+5   1.40218E+5
   3.15914E+5   1.48922E+5
   3.09247E+5   1.57611E+5
   3.02442E+5   1.66021E+5
   2.95108E+5   1.74339E+5
   2.87914E+5   1.82035E+5
   2.80460E+5   1.89588E+5
   2.73668E+5   1.96867E+5
   2.66164E+5   2.04593E+5
   2.58104E+5   2.12033E+5
   2.49634E+5   2.18623E+5
   2.41818E+5   2.24782E+5
   2.34476E+5   2.30414E+5
   2.26024E+5   2.36878E+5
   2.17510E+5   2.42027E+5
   2.09716E+5   2.47078E+5
   2.01767E+5   2.52210E+5
   1.93592E+5   2.57368E+5
   1.84844E+5   2.62280E+5
   1.76267E+5   2.65991E+5
   1.68272E+5   2.69357E+5
   1.60564E+5   2.72587E+5
   1.52591E+5   2.76656E+5
   1.44134E+5   2.80084E+5
   1.35482E+5   2.82459E+5
   1.27348E+5   2.84480E+5
   1.19274E+5   2.86589E+5
   1.11214E+5   2.88969E+5
   1.03211E+5   2.90245E+5
   9.56318E+4   2.91301E+5
   8.83105E+4   2.92377E+5
   8.08720E+4   2.93749E+5
   7.28174E+4   2.95060E+5
   6.54059E+4   2.95345E+5
   5.83891E+4   2.94871E+5
   5.15640E+4   2.95220E+5
   4.42250E+4   2.95375E+5
   3.71775E+4   2.94900E+5
   3.02744E+4   2.94380E+5
   2.38063E+4   2.93887E+5
   1.71344E+4   2.92869E+5
   1.03353E+4   2.91377E+5
   4.17319E+3   2.90051E+5
  -1.75934E+3   2.88474E+5
  -7.58779E+3   2.87288E+5
  -1.31839E+4   2.85811E+5
  -1.95942E+4   2.84130E+5
  -2.52595E+4   2.81939E+5
  -3.02128E+4   2.79428E+5
  -3.54298E+4   2.77461E+5
  -4.10140E+4   2.74938E+5
  -4.58802E+4   2.72591E+5
  -5.07637E+4   2.69756E+5
  -5.54574E+4   2.67082E+5
  -6.02623E+4   2.64366E+5
  -6.50354E+4   2.61505E+5
  -6.98501E+4   2.58063E+5
  -7.40878E+4   2.54445E+5
  -7.81450E+4   2.51252E+5
  -8.21872E+4   2.48074E+5
  -8.69421E+4   2.44769E+5
  -9.06572E+4   2.40861E+5
  -9.46743E+4   2.37357E+5
  -9.81044E+4   2.33387E+5
  -1.01731E+5   2.29725E+5
  -1.04959E+5   2.25497E+5
  -1.07950E+5   2.21794E+5
  -1.10531E+5   2.17861E+5
  -1.13942E+5   2.14455E+5
  -1.17475E+5   2.10473E+5
  -1.20810E+5   2.06271E+5
  -1.23465E+5   2.01200E+5
  -1.25576E+5   1.96898E+5
  -1.28230E+5   1.93136E+5
  -1.30848E+5   1.88881E+5
  -1.33469E+5   1.84455E+5
  -1.35764E+5   1.80080E+5
  -1.38086E+5   1.75688E+5
  -1.40150E+5   1.71258E+5
  -1.42312E+5   1.66490E+5
  -1.43965E+5   1.61779E+5
  -1.45626E+5   1.57254E+5
  -1.47039E+5   1.53023E+5
  -1.48730E+5   1.48427E+5
  -1.50289E+5   1.43980E+5
  -1.51471E+5   1.39254E+5
  -1.52695E+5   1.34803E+5
  -1.53702E+5   1.30636E+5
  -1.55020E+5   1.25982E+5
  -1.55689E+5   1.21303E+5
  -1.56264E+5   1.16798E+5
  -1.57218E+5   1.12740E+5
  -1.58023E+5   1.08385E+5
  -1.58837E+5   1.03461E+5
  -1.58712E+5   9.88446E+4
  -1.58384E+5   9.49073E+4
  -1.58640E+5   9.07588E+4
  -1.58447E+5   8.69473E+4
  -1.58493E+5   8.26746E+4
  -1.58051E+5   7.84990E+4
  -1.57631E+5   7.51401E+4
  -1.57548E+5   7.09048E+4
  -1.57378E+5   6.69284E+4
  -1.56264E+5   6.29463E+4
  -1.55356E+5   5.92306E+4
  -1.54543E+5   5.56976E+4
  -1.53793E+5   5.21750E+4
  -1.53150E+5   4.84714E+4
  -1.51531E+5   4.48799E+4
  -1.50466E+5   4.14412E+4
  -1.49346E+5   3.82142E+4
  -1.47706E+5   3.51855E+4
  -1.46725E+5   3.18258E+4
  -1.45301E+5   2.90025E+4
  -1.43838E+5   2.60871E+4
  -1.42131E+5   2.31706E+4
  -1.40665E+5   2.01667E+4
  -1.38697E+5   1.70844E+4
  -1.36934E+5   1.44419E+4
  -1.35073E+5   1.22519E+4
  -1.33902E+5   9.51657E+3
  -1.31852E+5   6.60880E+3
  -1.29980E+5   4.24596E+3
  -1.27823E+5   1.78532E+3
  -1.25611E+5  -4.68449E+2
  -1.24075E+5  -2.80985E+3
  -1.21817E+5  -5.37076E+3
  -1.19288E+5  -7.39447E+3
  -1.17504E+5  -9.14698E+3
  -1.15474E+5  -1.13146E+4
  -1.13533E+5  -1.34824E+4
  -1.11195E+5  -1.57266E+4
  -1.08787E+5  -1.75647E+4
  -1.06598E+5  -1.93000E+4
  -1.04897E+5  -2.08162E+4
  -1.02649E+5  -2.29219E+4
  -1.00223E+5  -2.45788E+4
  -9.79802E+4  -2.64004E+4
  -9.64335E+4  -2.81137E+4
  -9.39925E+4  -2.98674E+4
  -9.11510E+4  -3.14200E+4
  -8.89437E+4  -3.29646E+4
  -8.66782E+4  -3.40807E+4
  -8.47553E+4  -3.52481E+4
  -8.24993E+4  -3.68790E+4
  -8.01615E+4  -3.82926E+4
  -7.79708E+4  -3.92644E+4
  -7.54981E+4  -4.05872E+4
  -7.34746E+4  -4.15167E+4
  -7.11585E+4  -4.24976E+4
  -6.90931E+4  -4.36263E+4
  -6.67505E+4  -4.45936E+4
  -6.47983E+4  -4.53523E+4
  -6.25826E+4  -4.63539E+4
  -6.02018E+4  -4.70446E+4
  -5.79027E+4  -4.78398E+4
  -5.58187E+4  -4.81839E+4
  -5.39054E+4  -4.90777E+4
  -5.15920E+4  -4.95080E+4
  -4.95797E+4  -5.02009E+4
  -4.73622E+4  -5.04644E+4
  -4.55996E+4  -5.08030E+4
  -4.35288E+4  -5.15531E+4
  -4.15713E+4  -5.19873E+4
  -3.93152E+4  -5.18804E+4
  -3.73652E+4  -5.20567E+4
  -3.56783E+4  -5.20948E+4
  -3.39525E+4  -5.23128E+4
  -3.18633E+4  -5.28427E+4
  -2.98836E+4  -5.24714E+4
  -2.82180E+4  -5.26353E+4
  -2.66760E+4  -5.23702E+4
  -2.47663E+4  -5.24504E+4
  -2.31450E+4  -5.23977E+4
  -2.14083E+4  -5.20834E+4
  -1.94370E+4  -5.17182E+4
  -1.83310E+4  -5.18369E+4
  -1.65349E+4  -5.17673E+4
  -1.48178E+4  -5.12752E+4
  -1.32431E+4  -5.07248E+4
  -1.23023E+4  -5.05138E+4
  -1.07015E+4  -5.01568E+4
  -8.91162E+3  -5.01471E+4
  -7.64295E+3  -4.93022E+4
  -6.40169E+3  -4.88131E+4
  -4.99261E+3  -4.81659E+4
  -3.78594E+3  -4.82152E+4
  -2.37190E+3  -4.76602E+4
  -1.11948E+3  -4.69024E+4
  -1.74101E+2  -4.62840E+4
   7.29466E+2  -4.55634E+4
   2.08440E+3  -4.53183E+4
   3.38225E+3  -4.42007E+4
   4.23586E+3  -4.36295E+4
   5.12691E+3  -4.33072E+4
   6.25155E+3  -4.24810E+4
   7.24316E+3  -4.18585E+4
   8.23612E+3  -4.11132E+4
   8.95944E+3  -4.03648E+4
   9.87790E+3  -3.96998E+4
   1.06103E+4  -3.85294E+4
   1.14745E+4  -3.77690E+4
   1.21455E+4  -3.70346E+4
   1.28721E+4  -3.62679E+4
   1.37395E+4  -3.57164E+4
   1.40102E+4  -3.49209E+4
   1.48275E+4  -3.40723E+4
   1.56941E+4  -3.33184E+4
   1.59947E+4  -3.23053E+4
   1.66105E+4  -3.13823E+4
   1.70773E+4  -3.07106E+4
   1.73850E+4  -2.98506E+4
   1.77515E+4  -2.90902E+4
   1.83771E+4  -2.81985E+4
   1.87218E+4  -2.73747E+4
   1.92783E+4  -2.63967E+4
   1.93524E+4  -2.55829E+4
   1.97615E+4  -2.47663E+4
   2.01534E+4  -2.38924E+4
   2.02792E+4  -2.30547E+4
   2.06832E+4  -2.21468E+4
   2.04878E+4  -2.13169E+4
   2.09657E+4  -2.04841E+4
   2.09551E+4  -1.96914E+4
   2.11230E+4  -1.86394E+4
   2.16316E+4  -1.77936E+4
   2.14920E+4  -1.69660E+4
   2.14595E+4  -1.62087E+4
   2.15547E+4  -1.57355E+4
   2.15657E+4  -1.45563E+4
   2.16504E+4  -1.40946E+4
   2.16353E+4  -1.33741E+4
   2.14335E+4  -1.25157E+4
   2.15622E+4  -1.15373E+4
   2.14614E+4  -1.10070E+4
   2.11794E+4  -1.01866E+4
   2.11240E+4  -9.50862E+3
   2.09461E+4  -8.88877E+3
   2.11770E+4  -8.21045E+3
   2.07995E+4  -7.53928E+3
   2.05894E+4  -6.56426E+3
   2.01597E+4  -6.30431E+3
   1.99539E+4  -5.29378E+3
   1.99058E+4  -4.83416E+3
   1.95481E+4  -3.96678E+3
   1.92836E+4  -3.42003E+3
