 LCModel (Version 6.3-1N) Copyright: S.W. Provencher.          Ref.: Magn. Reson. Med. 30:672-679 (1993).                
 Slice_N1@12_21  28-Feb-2025 11:38:13
 27 lines in following concentration table = NCONC+1
    Conc.  %SD /Cr+PCr  Metabolite                                         
 2.34E-04   7% 1.9E-04 Mac                                                 
    5.540  29%   4.460 Cr                                                  
    4.397  36%   3.540 PCr                                                 
    5.365  23%   4.319 Ins                                                 
   11.220  10%   9.033 NAA                                                 
    8.201  16%   6.602 Tau                                                 
    1.305  32%   1.050 PCho                                                
    0.000 999%   0.000 GPC                                                 
   12.253  12%   9.865 Glu                                                 
    2.419  45%   1.947 Gln                                                 
    0.000 999%   0.000 Ala                                                 
    0.000 999%   0.000 Asc                                                 
    2.984  44%   2.403 Asp                                                 
    0.284 251%   0.229 GABA                                                
    0.705 125%   0.567 Glc                                                 
    0.729  82%   0.587 GSH                                                 
   10.670  10%   8.590 Lac                                                 
    0.494 178%   0.398 NAAG                                                
    3.836  43%   3.088 PE                                                  
    1.305  32%   1.050 GPC+PCho                                            
   11.714  10%   9.431 NAA+NAAG                                            
   14.672  12%  11.812 Glu+Gln                                             
    9.937  10%   8.000 Cr+PCr                                              
   11.714  10%   9.431 NAA+NAAG                                            
    9.937  10%   8.000 Cr+PCr                                              
   14.672  12%  11.812 Glu+Gln                                             
   6 lines in following misc. output table
  FWHM = 0.024 ppm    S/N =   3                                            
  Data shift = 0.033 ppm                                                   
  Ph: -98 deg       0.0 deg/ppm                                            
  alphaB,S = 1.3E-01,   1.6E+00                                            
   19 spline knots.   Ns = 5(1)                                            
  ( 3) 2 infls.   ( 3) 1 extrs.                                            
  480 points on ppm-axis = NY
      4.100000     4.091866     4.083733     4.075600     4.067466     4.059333     4.051199     4.043066     4.034933     4.026799
      4.018666     4.010532     4.002399     3.994265     3.986132     3.977998     3.969864     3.961731     3.953597     3.945463
      3.937330     3.929196     3.921062     3.912929     3.904795     3.896662     3.888528     3.880394     3.872261     3.864127
      3.855993     3.847860     3.839726     3.831592     3.823459     3.815325     3.807191     3.799058     3.790924     3.782790
      3.774657     3.766523     3.758389     3.750256     3.742122     3.733989     3.725855     3.717721     3.709588     3.701454
      3.693320     3.685187     3.677053     3.668919     3.660786     3.652652     3.644518     3.636385     3.628251     3.620117
      3.611984     3.603850     3.595716     3.587583     3.579449     3.571316     3.563182     3.555048     3.546915     3.538781
      3.530647     3.522514     3.514380     3.506246     3.498113     3.489979     3.481845     3.473712     3.465578     3.457444
      3.449311     3.441177     3.433043     3.424910     3.416776     3.408643     3.400509     3.392375     3.384242     3.376108
      3.367974     3.359841     3.351707     3.343573     3.335440     3.327306     3.319172     3.311039     3.302905     3.294771
      3.286638     3.278504     3.270370     3.262237     3.254103     3.245970     3.237836     3.229702     3.221569     3.213435
      3.205301     3.197168     3.189034     3.180900     3.172767     3.164633     3.156499     3.148366     3.140232     3.132098
      3.123965     3.115831     3.107697     3.099564     3.091430     3.083297     3.075163     3.067029     3.058896     3.050762
      3.042628     3.034495     3.026361     3.018227     3.010094     3.001960     2.993826     2.985693     2.977559     2.969425
      2.961292     2.953158     2.945024     2.936891     2.928757     2.920624     2.912490     2.904356     2.896223     2.888089
      2.879955     2.871822     2.863688     2.855554     2.847421     2.839287     2.831153     2.823020     2.814886     2.806752
      2.798619     2.790485     2.782351     2.774218     2.766084     2.757951     2.749817     2.741683     2.733550     2.725416
      2.717282     2.709149     2.701015     2.692881     2.684748     2.676614     2.668480     2.660347     2.652213     2.644079
      2.635946     2.627812     2.619678     2.611545     2.603411     2.595278     2.587144     2.579010     2.570877     2.562743
      2.554609     2.546476     2.538342     2.530208     2.522075     2.513941     2.505807     2.497674     2.489540     2.481406
      2.473273     2.465139     2.457006     2.448872     2.440738     2.432605     2.424471     2.416337     2.408204     2.400070
      2.391936     2.383803     2.375669     2.367535     2.359402     2.351268     2.343134     2.335001     2.326867     2.318733
      2.310600     2.302466     2.294333     2.286199     2.278065     2.269932     2.261798     2.253664     2.245531     2.237397
      2.229263     2.221130     2.212996     2.204862     2.196729     2.188595     2.180461     2.172328     2.164194     2.156060
      2.147927     2.139793     2.131660     2.123526     2.115392     2.107259     2.099125     2.090991     2.082858     2.074724
      2.066590     2.058457     2.050323     2.042189     2.034056     2.025922     2.017788     2.009655     2.001521     1.993387
      1.985254     1.977120     1.968987     1.960853     1.952719     1.944586     1.936452     1.928318     1.920185     1.912051
      1.903917     1.895784     1.887650     1.879516     1.871383     1.863249     1.855115     1.846982     1.838848     1.830714
      1.822581     1.814447     1.806314     1.798180     1.790046     1.781913     1.773779     1.765645     1.757512     1.749378
      1.741244     1.733111     1.724977     1.716843     1.708710     1.700576     1.692442     1.684309     1.676175     1.668041
      1.659908     1.651774     1.643641     1.635507     1.627373     1.619240     1.611106     1.602972     1.594839     1.586705
      1.578571     1.570438     1.562304     1.554170     1.546037     1.537903     1.529769     1.521636     1.513502     1.505368
      1.497235     1.489101     1.480968     1.472834     1.464700     1.456567     1.448433     1.440299     1.432166     1.424032
      1.415898     1.407765     1.399631     1.391497     1.383364     1.375230     1.367096     1.358963     1.350829     1.342695
      1.334562     1.326428     1.318295     1.310161     1.302027     1.293894     1.285760     1.277626     1.269493     1.261359
      1.253225     1.245092     1.236958     1.228824     1.220691     1.212557     1.204423     1.196290     1.188156     1.180022
      1.171889     1.163755     1.155622     1.147488     1.139354     1.131221     1.123087     1.114953     1.106820     1.098686
      1.090552     1.082419     1.074285     1.066151     1.058018     1.049884     1.041750     1.033617     1.025483     1.017349
      1.009216     1.001082     0.992949     0.984815     0.976681     0.968548     0.960414     0.952280     0.944147     0.936013
      0.927879     0.919746     0.911612     0.903478     0.895345     0.887211     0.879077     0.870944     0.862810     0.854676
      0.846543     0.838409     0.830276     0.822142     0.814008     0.805875     0.797741     0.789607     0.781474     0.773340
      0.765206     0.757073     0.748939     0.740805     0.732672     0.724538     0.716404     0.708271     0.700137     0.692003
      0.683870     0.675736     0.667603     0.659469     0.651335     0.643202     0.635068     0.626934     0.618801     0.610667
      0.602533     0.594400     0.586266     0.578132     0.569999     0.561865     0.553731     0.545598     0.537464     0.529330
      0.521197     0.513063     0.504930     0.496796     0.488662     0.480529     0.472395     0.464261     0.456128     0.447994
      0.439861     0.431727     0.423593     0.415460     0.407326     0.399192     0.391059     0.382925     0.374792     0.366658
      0.358524     0.350391     0.342257     0.334124     0.325990     0.317856     0.309723     0.301589     0.293455     0.285322
      0.277188     0.269055     0.260921     0.252787     0.244654     0.236520     0.228386     0.220253     0.212119     0.203986
 NY phased data points follow
   7.51977E+01  8.76021E+01  7.83153E+01  8.92810E+01  8.31216E+01  6.80080E+01  8.08609E+01  9.51369E+01  8.52625E+01  8.46594E+01
   9.48356E+01  7.27603E+01  7.09010E+01  7.15085E+01  6.78045E+01  8.27963E+01  6.48159E+01  6.05630E+01  7.17722E+01  5.30606E+01
   3.24937E+01  2.56355E+01  4.80925E+01  6.35117E+01  8.23703E+01  1.23502E+02  1.31573E+02  1.34488E+02  1.36724E+02  1.29462E+02
   1.26644E+02  1.26182E+02  1.30736E+02  1.27037E+02  1.29380E+02  1.29568E+02  1.25937E+02  1.30281E+02  1.25566E+02  1.04350E+02
   8.78769E+01  7.43112E+01  5.63228E+01  7.54361E+01  1.11357E+02  1.27046E+02  1.41560E+02  1.63132E+02  1.66753E+02  1.62613E+02
   1.56023E+02  1.48417E+02  1.64294E+02  1.58669E+02  1.41443E+02  1.27407E+02  1.18978E+02  1.21030E+02  1.17733E+02  1.19611E+02
   1.06751E+02  1.20526E+02  1.25412E+02  1.16590E+02  1.38881E+02  1.39782E+02  1.44665E+02  1.41881E+02  1.19788E+02  1.02405E+02
   7.75594E+01  6.90270E+01  1.08258E+02  1.21163E+02  1.11307E+02  1.30458E+02  1.20602E+02  1.24176E+02  1.20111E+02  1.16984E+02
   1.33015E+02  1.25448E+02  1.16697E+02  9.26795E+01  7.63153E+01  5.42203E+01  6.08689E+01  7.96381E+01  1.02753E+02  1.24886E+02
   1.10085E+02  1.32316E+02  1.40945E+02  1.41008E+02  1.30159E+02  1.25014E+02  1.42339E+02  1.39696E+02  1.43004E+02  1.43233E+02
   1.56700E+02  1.32669E+02  1.16844E+02  1.13754E+02  8.79434E+01  8.19267E+01  7.10683E+01  7.14996E+01  5.80851E+01  3.68780E+01
  -1.31724E+01 -6.29408E+01 -5.07098E+01 -1.63959E+01  9.64193E+00  1.83270E+01  3.64112E+01  4.56803E+01  6.04078E+01  6.63756E+01
   6.53629E+01  8.32217E+01  7.79671E+01  8.42002E+01  9.56152E+01  1.01039E+02  1.03005E+02  1.00737E+02  1.21761E+02  1.28196E+02
   1.71971E+02  2.19558E+02  1.54628E+02  5.59288E+01 -1.43564E+01 -2.12540E+01 -5.64294E+00 -2.03740E+01 -1.86271E+01 -1.56412E+01
  -1.05335E+01 -1.86796E+00 -8.45068E+00 -1.51024E+01 -6.51802E-01  3.71618E+00  3.95763E+00  8.62989E+00  1.29197E+01  1.36001E+01
  -9.87897E+00  1.41573E+01  2.30971E+01  5.14441E+00  3.32259E+01  4.78810E+01  3.99604E+01  4.07738E+01  3.79675E+01  2.73901E+01
   4.29877E+01  5.21427E+01  5.10054E+01  3.53624E+01  3.61165E+01  4.84998E+01  3.38591E+01  3.73543E+01  3.82697E+01  4.63687E+01
   4.77981E+01  5.03952E+01  5.21122E+01  6.63555E+01  6.94875E+01  5.97493E+01  8.31337E+01  7.32753E+01  7.78530E+01  5.59312E+01
   4.65811E+01  4.31351E+01  7.13260E+00  1.38645E+01  6.56714E+00  2.03823E+01  1.10578E+01  1.43829E+01  2.04227E+01  6.34553E+00
   2.55087E+01  1.68504E+01  3.39816E+01  3.44645E+01  4.01805E+01  4.00878E+01  4.57901E+00  2.97423E+01  2.93774E+01  2.57814E+01
   4.42097E+01  3.68764E+01  5.64541E+01  6.11221E+01  5.63056E+01  4.54543E+01  3.55012E+01  3.31652E+01 -4.71113E+00  4.68621E+00
   4.54952E+00 -9.37329E+00  1.37699E+00  8.21549E+00  3.58547E+01  4.76607E+01  8.27879E+01  9.72439E+01  9.68352E+01  9.57260E+01
   6.77087E+01  6.80317E+01  7.27142E+01  5.58249E+01  4.78369E+01  7.14659E+01  5.46340E+01  6.11948E+01  7.97913E+01  5.44427E+01
   6.57856E+01  7.34560E+01  5.09542E+01  3.57101E+01  4.75246E+01  2.55058E+01  1.17593E+01  5.83063E+00 -2.04185E+01 -1.25468E+01
  -1.42913E+01 -7.95830E+00  1.72920E+00  3.73137E+00  4.08171E+00  2.43238E+01  3.68126E+01  2.06981E+01  2.62149E+01  7.95475E+00
   2.35210E-01  1.12344E+01 -7.15022E-01 -3.73770E+00  1.18308E+01  8.36723E+00 -5.21844E+01 -6.29197E+01  6.13029E+01  1.83887E+02
   2.15213E+02  2.14443E+02  2.03220E+02  1.69455E+02  1.54144E+02  1.69227E+02  1.48278E+02  1.28426E+02  1.32032E+02  1.31550E+02
   1.33225E+02  1.16571E+02  1.21578E+02  1.35873E+02  1.25845E+02  1.27212E+02  1.39734E+02  1.19269E+02  9.95182E+01  9.87235E+01
   1.03606E+02  1.18673E+02  9.38593E+01  9.44170E+01  9.80413E+01  8.14953E+01  1.01252E+02  8.86928E+01  6.94364E+01  7.14041E+01
   7.67169E+01  7.23694E+01  6.04971E+01  4.94367E+01  3.07701E+01  3.21247E+01  2.30496E+01  1.12176E+01  2.55989E+01  1.29897E+01
   4.21196E+00  2.35543E+01  2.19660E+01  2.24808E+01  2.14745E+01  2.44545E+01  4.11246E+01  4.19022E+01  4.84517E+01  6.01472E+01
   5.97575E+01  5.45103E+01  6.13665E+01  6.49027E+01  8.37418E+01  1.17722E+02  1.20258E+02  1.14177E+02  1.17396E+02  1.19581E+02
   1.25230E+02  1.43366E+02  1.38248E+02  1.45529E+02  1.59926E+02  1.54035E+02  1.83360E+02  1.88644E+02  1.78674E+02  1.80480E+02
   1.66268E+02  1.57588E+02  1.57272E+02  1.42333E+02  1.29086E+02  1.31466E+02  1.06813E+02  9.29841E+01  1.00055E+02  9.89285E+01
   8.33339E+01  8.26929E+01  8.78283E+01  5.96549E+01  4.14225E+01  2.80752E+01  2.09238E+01  2.12822E+01  2.87843E+01  1.01769E+01
   1.24889E+01  4.10309E+01  1.93961E+01  2.39317E+01  2.94592E+01  3.32984E+01  2.40151E+01  1.50181E+01  2.43664E+01  1.27166E+01
   2.06856E+01  2.42560E+01  3.90427E+01  4.41153E+01  5.39227E+01  5.25318E+01  5.08449E+01  5.52313E+01  5.00741E+01  7.47555E+01
   4.97115E+01  7.06573E+01  8.37066E+01  7.11286E+01  8.58401E+01  7.35524E+01  9.51674E+01  8.17139E+01  8.10421E+01  8.74637E+01
   9.49834E+01  1.08842E+02  9.30026E+01  1.08424E+02  1.17105E+02  1.30863E+02  1.26538E+02  1.20240E+02  1.31246E+02  1.34092E+02
   1.28563E+02  1.21195E+02  1.15991E+02  9.27432E+01  8.65572E+01  6.47886E+01  6.24685E+01  7.82466E+01  7.67621E+01  7.07754E+01
   3.68451E+01  4.48647E+01  5.12372E+01  3.28440E+01  3.16627E+01  2.55597E+01  2.22593E+01  3.46409E+00 -2.67092E+00  5.32679E+00
   2.06270E+01  2.73411E+01  5.67585E+00  1.14426E+01  1.79324E+01  2.38850E+01  1.53478E+01  3.92081E+00  5.59145E+00 -8.67162E+00
   1.63895E+01  1.58293E+01  9.38980E+00  1.32202E+01  2.94760E+00  1.17886E+01  2.26898E+00  1.83383E+01  2.05460E+01  3.17174E+00
   1.27488E+01  2.45388E+01  6.94679E+00 -2.14228E+00  1.79669E+01  1.33190E+01  1.55951E+01  3.20809E+00  1.25022E+01  2.71743E+01
   1.29711E+01  3.06249E+00  4.96124E-01  2.41307E+01  4.56497E+00  7.31037E+00  1.61418E+01 -2.97222E+00  2.24236E+01  1.74643E+01
   1.43323E+01  2.81493E+01  8.01651E+00  1.32042E+01  1.96956E+01 -5.44992E-01  1.42558E+01  2.89496E+01  3.04793E+01  2.45172E+01
   1.98124E+01  2.76616E+01  7.93860E+00  7.39948E+00  5.92007E+00  2.31167E+00  1.10111E+01  5.17061E+00  2.62798E+01  2.54262E+01
   6.60338E+00  1.00033E+01  1.33622E+01  2.46690E+01  1.66549E+01  1.45300E+01  2.07900E+01  3.74969E+00  1.27099E+01  3.02861E+00
 NY points of the fit to the data follow
   7.29168E+01  8.03364E+01  8.73094E+01  9.14827E+01  8.90489E+01  8.64579E+01  9.22916E+01  1.01215E+02  1.02563E+02  9.61959E+01
   8.82218E+01  8.08816E+01  7.28340E+01  6.58192E+01  6.04748E+01  5.78379E+01  6.13312E+01  6.09481E+01  6.43182E+01  5.73288E+01
   4.46149E+01  4.01196E+01  4.96757E+01  6.67486E+01  9.61942E+01  1.27374E+02  1.38880E+02  1.36969E+02  1.37958E+02  1.40518E+02
   1.41667E+02  1.40496E+02  1.38051E+02  1.35600E+02  1.32666E+02  1.27527E+02  1.23054E+02  1.17579E+02  1.14127E+02  1.06541E+02
   9.38596E+01  7.86329E+01  7.42787E+01  8.16709E+01  9.60641E+01  1.13547E+02  1.30325E+02  1.40413E+02  1.43415E+02  1.43194E+02
   1.42084E+02  1.39322E+02  1.37467E+02  1.34542E+02  1.29352E+02  1.23053E+02  1.13214E+02  1.08320E+02  1.08834E+02  1.03442E+02
   9.97978E+01  1.06716E+02  1.12099E+02  1.11343E+02  1.17185E+02  1.27468E+02  1.31133E+02  1.31779E+02  1.30377E+02  1.17091E+02
   9.90389E+01  9.51741E+01  1.02606E+02  1.05723E+02  1.08879E+02  1.19777E+02  1.29768E+02  1.33724E+02  1.33088E+02  1.35649E+02
   1.31162E+02  1.24530E+02  1.09886E+02  9.06499E+01  7.23667E+01  6.55635E+01  6.91676E+01  8.09691E+01  9.61510E+01  1.07395E+02
   1.14156E+02  1.20555E+02  1.25839E+02  1.30460E+02  1.34365E+02  1.38697E+02  1.42848E+02  1.45584E+02  1.48409E+02  1.47476E+02
   1.44632E+02  1.49978E+02  1.46831E+02  1.33739E+02  1.10339E+02  8.83022E+01  6.63396E+01  5.76238E+01  5.80986E+01  3.78138E+01
  -8.69381E+00 -4.05152E+01 -3.25858E+01 -9.20505E+00  6.19849E+00  1.82454E+01  2.94501E+01  3.85813E+01  4.66540E+01  5.40745E+01
   6.10793E+01  6.79380E+01  7.51842E+01  8.34727E+01  9.30343E+01  1.05454E+02  1.19446E+02  1.22295E+02  1.32455E+02  1.39312E+02
   1.70697E+02  2.06514E+02  1.71620E+02  6.04585E+01 -1.59499E+01 -1.98696E+01 -1.13703E+01 -1.23627E+01 -8.28790E+00 -3.96332E+00
  -1.45933E+00 -9.20857E-02  9.54789E-01  2.28007E+00  3.43442E+00  4.23927E+00  5.19969E+00  7.00154E+00  9.34493E+00  1.18450E+01
   1.45022E+01  1.70789E+01  1.93500E+01  2.10012E+01  2.27947E+01  2.58605E+01  2.95387E+01  3.10327E+01  3.00778E+01  2.93092E+01
   3.09687E+01  3.49258E+01  3.74556E+01  3.54827E+01  3.12924E+01  2.92640E+01  3.05358E+01  3.28260E+01  3.40712E+01  3.37074E+01
   3.42763E+01  4.18758E+01  5.71115E+01  6.74538E+01  6.22609E+01  5.28975E+01  5.51860E+01  6.74450E+01  7.18013E+01  6.11436E+01
   4.56340E+01  3.64245E+01  3.18025E+01  2.74191E+01  2.36686E+01  2.14801E+01  2.02846E+01  1.96771E+01  1.96921E+01  2.11938E+01
   2.12138E+01  2.23401E+01  2.26517E+01  2.30216E+01  3.17006E+01  4.04294E+01  4.04942E+01  3.92769E+01  4.49086E+01  5.07970E+01
   4.90625E+01  4.48967E+01  4.47960E+01  4.92707E+01  4.85397E+01  4.08990E+01  3.31304E+01  2.76918E+01  2.16924E+01  1.50866E+01
   1.33899E+01  8.70602E+00  1.21049E+01  1.98102E+01  3.08445E+01  5.28693E+01  8.24665E+01  1.01261E+02  1.08356E+02  1.09480E+02
   9.98198E+01  8.55065E+01  7.80685E+01  7.44949E+01  7.20152E+01  7.03216E+01  6.82146E+01  6.52236E+01  6.05831E+01  5.42268E+01
   4.69082E+01  3.86307E+01  2.99718E+01  2.14454E+01  1.37074E+01  4.76942E+00 -2.48949E+00 -9.13679E+00 -1.32780E+01 -1.40597E+01
  -1.35333E+01 -1.07652E+01 -6.46561E+00 -1.09072E+00  6.20011E+00  1.28348E+01  1.77993E+01  1.87687E+01  1.64407E+01  1.35206E+01
   7.89702E+00 -1.67747E+00  3.58469E+00  3.42570E+00  1.28257E+01 -8.00807E+00 -6.45283E+01 -6.52772E+01  4.54224E+01  1.50829E+02
   1.70067E+02  1.59461E+02  1.57679E+02  1.51416E+02  1.43801E+02  1.38052E+02  1.33464E+02  1.29378E+02  1.25625E+02  1.22633E+02
   1.20118E+02  1.18099E+02  1.16816E+02  1.15852E+02  1.15027E+02  1.14193E+02  1.13139E+02  1.11499E+02  1.09829E+02  1.08399E+02
   1.06966E+02  1.05235E+02  1.03217E+02  1.01166E+02  9.95064E+01  9.77669E+01  9.56942E+01  9.35949E+01  9.15315E+01  8.94377E+01
   8.70677E+01  8.43971E+01  8.15710E+01  7.89747E+01  7.63869E+01  7.39783E+01  7.23423E+01  7.19351E+01  7.27577E+01  7.45600E+01
   7.66142E+01  7.86991E+01  8.10637E+01  8.37550E+01  8.63968E+01  8.88454E+01  9.12369E+01  9.34154E+01  9.55545E+01  9.80407E+01
   1.00818E+02  1.03375E+02  1.05478E+02  1.07273E+02  1.09051E+02  1.10795E+02  1.12104E+02  1.12957E+02  1.13642E+02  1.13749E+02
   1.12926E+02  1.11909E+02  1.10745E+02  1.09053E+02  1.06708E+02  1.04172E+02  1.01618E+02  9.87036E+01  9.46224E+01  8.93703E+01
   8.43820E+01  8.04793E+01  7.79292E+01  7.71092E+01  7.88777E+01  8.37553E+01  8.76662E+01  9.32409E+01  9.90477E+01  1.06488E+02
   1.23452E+02  1.20201E+02  8.94719E+01  4.70096E+01  6.84881E+00 -2.35977E+01 -2.37336E+01 -2.59809E+00  1.24281E+01  2.03622E+01
   2.84659E+01  3.37569E+01  3.66916E+01  3.80869E+01  3.80166E+01  3.66471E+01  3.51250E+01  3.44205E+01  3.45331E+01  3.55072E+01
   3.72195E+01  3.96338E+01  4.23883E+01  4.54898E+01  4.88580E+01  5.22112E+01  5.52702E+01  5.80627E+01  6.06819E+01  6.32476E+01
   6.59177E+01  6.87046E+01  7.12124E+01  7.38181E+01  7.65628E+01  7.96556E+01  8.31223E+01  8.69332E+01  9.08299E+01  9.53083E+01
   1.00534E+02  1.05815E+02  1.10748E+02  1.15970E+02  1.21269E+02  1.26170E+02  1.29896E+02  1.32246E+02  1.32318E+02  1.29311E+02
   1.22903E+02  1.14253E+02  1.05363E+02  9.72201E+01  8.98888E+01  8.33569E+01  7.77805E+01  7.19989E+01  6.52457E+01  5.78991E+01
   5.06978E+01  4.35250E+01  3.72517E+01  3.24044E+01  2.86980E+01  2.54802E+01  2.30519E+01  2.14691E+01  2.03193E+01  1.92198E+01
   1.81102E+01  1.71179E+01  1.63669E+01  1.60121E+01  1.57743E+01  1.53657E+01  1.49849E+01  1.49765E+01  1.50478E+01  1.45675E+01
   1.40868E+01  1.41993E+01  1.44506E+01  1.41642E+01  1.38203E+01  1.38521E+01  1.39097E+01  1.36930E+01  1.33663E+01  1.33018E+01
   1.34786E+01  1.37319E+01  1.36544E+01  1.34609E+01  1.32166E+01  1.29746E+01  1.28687E+01  1.29858E+01  1.31267E+01  1.31578E+01
   1.32160E+01  1.31349E+01  1.31045E+01  1.31690E+01  1.31586E+01  1.30015E+01  1.27163E+01  1.24896E+01  1.25435E+01  1.26461E+01
   1.26941E+01  1.27433E+01  1.27324E+01  1.24534E+01  1.24351E+01  1.25899E+01  1.27769E+01  1.27920E+01  1.28650E+01  1.27983E+01
   1.28045E+01  1.29208E+01  1.29884E+01  1.28211E+01  1.26783E+01  1.26202E+01  1.25798E+01  1.24785E+01  1.26588E+01  1.30877E+01
   1.35481E+01  1.36285E+01  1.33924E+01  1.30671E+01  1.29629E+01  1.31065E+01  1.32950E+01  1.33895E+01  1.37237E+01  1.39789E+01
 NY background values follow
     1.059E+02    1.059E+02    1.059E+02    1.059E+02    1.059E+02    1.059E+02    1.059E+02    1.059E+02    1.059E+02    1.059E+02
     1.059E+02    1.059E+02    1.059E+02    1.059E+02    1.059E+02    1.058E+02    1.058E+02    1.058E+02    1.058E+02    1.058E+02
     1.058E+02    1.057E+02    1.057E+02    1.057E+02    1.056E+02    1.056E+02    1.056E+02    1.055E+02    1.055E+02    1.054E+02
     1.053E+02    1.053E+02    1.052E+02    1.051E+02    1.051E+02    1.050E+02    1.049E+02    1.048E+02    1.047E+02    1.046E+02
     1.045E+02    1.044E+02    1.042E+02    1.041E+02    1.040E+02    1.038E+02    1.036E+02    1.035E+02    1.033E+02    1.031E+02
     1.029E+02    1.027E+02    1.025E+02    1.023E+02    1.021E+02    1.018E+02    1.016E+02    1.013E+02    1.010E+02    1.007E+02
     1.004E+02    1.001E+02    9.983E+01    9.950E+01    9.916E+01    9.881E+01    9.846E+01    9.809E+01    9.772E+01    9.733E+01
     9.694E+01    9.655E+01    9.614E+01    9.573E+01    9.531E+01    9.489E+01    9.446E+01    9.403E+01    9.359E+01    9.314E+01
     9.270E+01    9.225E+01    9.179E+01    9.133E+01    9.088E+01    9.041E+01    8.995E+01    8.949E+01    8.902E+01    8.856E+01
     8.809E+01    8.763E+01    8.716E+01    8.670E+01    8.623E+01    8.577E+01    8.531E+01    8.485E+01    8.439E+01    8.394E+01
     8.348E+01    8.303E+01    8.258E+01    8.213E+01    8.168E+01    8.124E+01    8.080E+01    8.036E+01    7.993E+01    7.950E+01
     7.907E+01    7.865E+01    7.823E+01    7.781E+01    7.740E+01    7.700E+01    7.659E+01    7.620E+01    7.580E+01    7.542E+01
     7.504E+01    7.466E+01    7.429E+01    7.392E+01    7.356E+01    7.321E+01    7.286E+01    7.251E+01    7.217E+01    7.183E+01
     7.150E+01    7.117E+01    7.085E+01    7.053E+01    7.021E+01    6.990E+01    6.959E+01    6.929E+01    6.899E+01    6.869E+01
     6.840E+01    6.811E+01    6.782E+01    6.754E+01    6.726E+01    6.698E+01    6.671E+01    6.643E+01    6.616E+01    6.590E+01
     6.563E+01    6.537E+01    6.511E+01    6.485E+01    6.459E+01    6.434E+01    6.409E+01    6.384E+01    6.359E+01    6.335E+01
     6.310E+01    6.286E+01    6.262E+01    6.239E+01    6.215E+01    6.192E+01    6.169E+01    6.146E+01    6.123E+01    6.100E+01
     6.078E+01    6.056E+01    6.034E+01    6.012E+01    5.990E+01    5.969E+01    5.948E+01    5.926E+01    5.906E+01    5.885E+01
     5.864E+01    5.844E+01    5.824E+01    5.803E+01    5.784E+01    5.764E+01    5.745E+01    5.726E+01    5.707E+01    5.688E+01
     5.670E+01    5.652E+01    5.634E+01    5.617E+01    5.600E+01    5.583E+01    5.567E+01    5.551E+01    5.535E+01    5.520E+01
     5.506E+01    5.492E+01    5.478E+01    5.465E+01    5.452E+01    5.439E+01    5.428E+01    5.416E+01    5.406E+01    5.395E+01
     5.386E+01    5.377E+01    5.368E+01    5.360E+01    5.352E+01    5.345E+01    5.338E+01    5.331E+01    5.325E+01    5.318E+01
     5.312E+01    5.306E+01    5.300E+01    5.294E+01    5.288E+01    5.282E+01    5.276E+01    5.269E+01    5.262E+01    5.256E+01
     5.248E+01    5.241E+01    5.233E+01    5.225E+01    5.216E+01    5.206E+01    5.196E+01    5.186E+01    5.174E+01    5.163E+01
     5.150E+01    5.136E+01    5.122E+01    5.107E+01    5.092E+01    5.075E+01    5.058E+01    5.041E+01    5.022E+01    5.004E+01
     4.984E+01    4.964E+01    4.943E+01    4.922E+01    4.901E+01    4.879E+01    4.856E+01    4.833E+01    4.810E+01    4.786E+01
     4.761E+01    4.737E+01    4.712E+01    4.687E+01    4.661E+01    4.635E+01    4.609E+01    4.582E+01    4.556E+01    4.529E+01
     4.502E+01    4.474E+01    4.447E+01    4.420E+01    4.393E+01    4.366E+01    4.340E+01    4.314E+01    4.289E+01    4.265E+01
     4.241E+01    4.218E+01    4.197E+01    4.176E+01    4.157E+01    4.139E+01    4.123E+01    4.108E+01    4.094E+01    4.083E+01
     4.073E+01    4.066E+01    4.060E+01    4.057E+01    4.056E+01    4.057E+01    4.061E+01    4.067E+01    4.077E+01    4.089E+01
     4.104E+01    4.121E+01    4.142E+01    4.165E+01    4.190E+01    4.218E+01    4.247E+01    4.278E+01    4.311E+01    4.346E+01
     4.381E+01    4.418E+01    4.455E+01    4.494E+01    4.533E+01    4.572E+01    4.612E+01    4.651E+01    4.691E+01    4.730E+01
     4.768E+01    4.806E+01    4.843E+01    4.879E+01    4.914E+01    4.948E+01    4.980E+01    5.010E+01    5.038E+01    5.064E+01
     5.088E+01    5.110E+01    5.129E+01    5.147E+01    5.162E+01    5.175E+01    5.186E+01    5.195E+01    5.202E+01    5.207E+01
     5.210E+01    5.211E+01    5.211E+01    5.209E+01    5.205E+01    5.199E+01    5.192E+01    5.183E+01    5.173E+01    5.162E+01
     5.148E+01    5.134E+01    5.118E+01    5.101E+01    5.083E+01    5.063E+01    5.042E+01    5.020E+01    4.997E+01    4.973E+01
     4.948E+01    4.923E+01    4.896E+01    4.868E+01    4.839E+01    4.810E+01    4.780E+01    4.749E+01    4.717E+01    4.685E+01
     4.652E+01    4.619E+01    4.584E+01    4.550E+01    4.514E+01    4.479E+01    4.442E+01    4.406E+01    4.369E+01    4.331E+01
     4.293E+01    4.255E+01    4.217E+01    4.178E+01    4.140E+01    4.101E+01    4.061E+01    4.022E+01    3.983E+01    3.944E+01
     3.904E+01    3.865E+01    3.825E+01    3.786E+01    3.747E+01    3.707E+01    3.668E+01    3.629E+01    3.590E+01    3.551E+01
     3.513E+01    3.474E+01    3.436E+01    3.397E+01    3.359E+01    3.321E+01    3.284E+01    3.246E+01    3.209E+01    3.172E+01
     3.136E+01    3.099E+01    3.063E+01    3.028E+01    2.992E+01    2.957E+01    2.923E+01    2.888E+01    2.854E+01    2.821E+01
     2.788E+01    2.755E+01    2.723E+01    2.691E+01    2.659E+01    2.628E+01    2.598E+01    2.567E+01    2.537E+01    2.507E+01
     2.478E+01    2.449E+01    2.420E+01    2.391E+01    2.363E+01    2.335E+01    2.307E+01    2.279E+01    2.252E+01    2.225E+01
     2.198E+01    2.171E+01    2.144E+01    2.118E+01    2.092E+01    2.066E+01    2.040E+01    2.014E+01    1.988E+01    1.962E+01
     1.936E+01    1.911E+01    1.885E+01    1.860E+01    1.835E+01    1.809E+01    1.784E+01    1.759E+01    1.734E+01    1.709E+01
     1.684E+01    1.659E+01    1.634E+01    1.609E+01    1.584E+01    1.559E+01    1.534E+01    1.509E+01    1.484E+01    1.459E+01
     1.434E+01    1.409E+01    1.384E+01    1.359E+01    1.334E+01    1.309E+01    1.284E+01    1.258E+01    1.233E+01    1.208E+01
 Mac      Conc. = 2.34E-04
   9.00384E+01  8.92710E+01  8.87029E+01  8.83706E+01  8.80215E+01  8.76298E+01  8.71539E+01  8.63208E+01  8.50751E+01  8.36336E+01
   8.23146E+01  8.13734E+01  8.08273E+01  8.06632E+01  8.08767E+01  8.09201E+01  8.03388E+01  7.88822E+01  7.82659E+01  8.04547E+01
   8.42218E+01  8.71895E+01  8.96135E+01  9.25742E+01  9.49639E+01  9.61086E+01  9.69102E+01  9.79373E+01  9.90802E+01  1.00439E+02
   1.02006E+02  1.03206E+02  1.03971E+02  1.04775E+02  1.05632E+02  1.05962E+02  1.05577E+02  1.05140E+02  1.05586E+02  1.07297E+02
   1.09356E+02  1.10257E+02  1.10004E+02  1.09583E+02  1.09789E+02  1.10513E+02  1.11325E+02  1.11677E+02  1.11397E+02  1.10802E+02
   1.09849E+02  1.08589E+02  1.07410E+02  1.06480E+02  1.05715E+02  1.05122E+02  1.04726E+02  1.04416E+02  1.04601E+02  1.05384E+02
   1.05898E+02  1.06196E+02  1.06897E+02  1.07591E+02  1.07502E+02  1.06685E+02  1.05652E+02  1.04759E+02  1.04291E+02  1.03930E+02
   1.03182E+02  1.02577E+02  1.03356E+02  1.04970E+02  1.06275E+02  1.06836E+02  1.06954E+02  1.06639E+02  1.05881E+02  1.04813E+02
   1.03744E+02  1.02987E+02  1.02319E+02  1.01536E+02  1.01042E+02  1.01074E+02  1.01254E+02  1.01267E+02  1.01379E+02  1.01537E+02
   1.01488E+02  1.01223E+02  1.00968E+02  1.00472E+02  9.98773E+01  9.91505E+01  9.79587E+01  9.59912E+01  9.36292E+01  9.10313E+01
   8.84056E+01  8.61292E+01  8.39051E+01  8.12625E+01  7.82293E+01  7.51500E+01  7.16100E+01  6.68962E+01  6.14038E+01  5.67090E+01
