 
 $NMID
 ID=''
 FMTDAT='(2E13.5)'
 TRAMP=   1.00000E+0
 VOLUME=   1.00000E+0
 $END
  -1.21951E+4   9.94084E+3
  -7.60232E+3   2.88688E+4
   2.98749E+4   1.45666E+4
   2.54497E+4  -2.14032E+4
  -1.77211E+4  -2.62835E+4
  -3.01448E+4   2.68202E+3
  -1.68696E+3   2.33086E+4
   2.09750E+4   1.19498E+4
   1.51214E+4  -1.32707E+4
  -7.22760E+3  -1.67611E+4
  -1.78341E+4   3.52921E+3
  -5.34093E+3   1.50007E+4
   1.00533E+4   5.78690E+3
   8.28965E+3  -6.42324E+3
  -3.53956E+3  -9.10423E+3
  -8.81147E+3  -2.77386E+3
  -2.77267E+3   6.16307E+3
   5.59699E+3   6.04252E+3
   5.18279E+3  -1.49678E+3
  -8.69457E+2  -4.81300E+3
  -4.26660E+3  -1.56336E+3
  -1.14749E+3   2.11904E+3
   2.47249E+3   3.90091E+3
   1.78901E+3   1.02552E+3
  -4.39978E+2  -3.59689E+3
   4.15405E+2  -1.69389E+3
   5.15537E+2   3.00688E+3
  -1.22852E+3   2.17618E+3
  -1.99856E+1  -1.35879E+3
   2.48263E+3  -8.11726E+2
   3.05762E+2   1.34794E+3
  -1.81002E+3   6.36511E+2
  -4.66802E+2  -8.56500E+2
   6.63650E+2  -8.48937E+2
   4.63990E+2  -4.65420E+2
   8.95387E+2  -7.53521E+2
   1.20046E+3   6.05036E+2
   4.00124E+2   1.28501E+3
  -5.78893E+2   1.14797E+2
  -4.78471E+2  -3.80066E+2
  -1.56228E+2   1.44380E+2
   2.83978E+2  -4.96358E+2
   5.51836E+2  -1.03041E+3
   7.49313E+2  -5.95087E+2
   8.22290E+2   4.63377E+2
   5.54247E+2   1.34221E+3
  -7.50404E+2   1.50538E+3
  -1.46556E+3  -3.67439E+2
  -1.05924E+3  -1.42636E+3
  -1.60448E+2  -8.43415E+2
   4.76309E+2   2.72585E+1
   4.70547E+2  -5.32236E+2
   7.00419E+2  -5.22696E+2
   4.58206E+2   4.29255E+2
  -4.58076E+2   8.72372E+2
  -3.55462E+2   2.46398E+2
  -5.31159E+2  -3.80018E+2
  -4.77214E+2  -6.89527E+2
   2.26976E+2  -1.13531E+3
   8.07476E+2  -4.37137E+2
   7.91316E+2   3.07902E+2
   3.45893E+2   7.61545E+2
  -4.91639E+2   1.14237E+3
  -1.20258E+3   3.75052E+2
  -1.11236E+3  -6.35090E+2
  -7.05936E+2  -1.10642E+3
  -2.37304E+2  -1.09268E+3
   3.98687E+2  -8.84555E+2
   8.12105E+2  -3.13168E+0
   3.37748E+2   7.67094E+2
  -3.30413E+2  -9.73957E+1
   1.08552E+2  -7.10411E+2
   4.29893E+2   2.75382E+2
  -3.10965E+2   1.16740E+3
  -5.34636E+2   4.22621E+2
   9.37032E-1  -3.25854E+2
   3.28951E+2  -2.86562E+2
  -5.19805E+2   5.09197E+2
  -4.08922E+2   2.68978E+2
  -1.67033E+2  -1.33114E+2
   3.39215E+1  -4.70555E+2
  -3.66279E+2  -4.62790E+2
  -2.70586E+2  -8.62357E+1
  -1.61927E+2  -2.74551E+2
   1.11654E+1  -3.16989E+2
   5.37380E+2   5.15606E-1
   4.40885E+2  -7.25299E+1
   6.20100E+1   1.42582E+2
  -8.21358E+1   1.97177E+2
  -7.80379E+1   2.85968E+2
   3.92264E+2   3.82765E+2
   1.41564E+2   4.71189E+2
  -5.58393E+2   1.99731E+1
  -6.38221E+2  -2.32409E+2
  -2.71623E+2  -4.05694E+2
   4.95762E+2  -3.16065E+2
   4.92088E+2   1.70332E+2
   3.67527E-1   2.83483E+2
  -1.69413E+2  -3.20154E+2
   6.54256E+2  -2.94296E+2
   3.59852E+2   7.40763E+2
  -2.96668E+2   8.67773E+2
  -4.13296E+2  -3.32074E+1
   9.16268E+1  -5.83180E+2
   3.10020E+2  -2.12169E+2
   8.76740E+1   7.43372E+2
  -5.20174E+2   4.10162E+2
  -6.99384E+2  -1.31915E+2
  -8.38482E+1  -8.61920E+2
   7.37772E+2  -8.39746E+2
   9.49442E+2   9.43730E+1
   2.82628E+2   5.57594E+2
  -2.27008E+2   5.01920E+2
  -2.40254E+2   6.08279E+1
   1.80611E-2   1.65656E+2
  -1.39792E+2   7.88076E+0
  -7.29346E+2  -1.15221E+2
  -5.09001E+2  -5.79988E+2
   5.19296E+2  -7.33941E+2
   7.53996E+2  -1.09216E+2
   6.08009E+2   1.50612E+2
   1.68077E+2   3.10247E+2
  -2.16265E+2   7.03972E+2
  -1.26281E+2   4.67580E+2
  -1.81627E+2  -1.94792E+1
  -1.73848E+2  -2.21344E+2
   2.18685E+2  -4.01119E+2
   1.70466E+2   1.94700E+1
   1.61709E+2   6.36958E+1
  -3.41211E+1   2.32316E+2
  -2.09493E+2   2.13600E+2
  -4.37249E+2  -4.37101E+2
  -4.35842E+1  -4.24873E+2
   2.25926E+2  -9.02273E+0
   1.23345E+2  -3.16079E+1
   1.12611E+2  -1.88983E+2
   3.13975E+2  -2.64882E+2
   4.61955E+2   2.03664E+2
  -1.05354E+2   7.58754E+2
  -2.16025E+2   1.10833E+2
  -4.14027E+2  -3.34164E+2
   2.54592E+2  -1.13929E+2
   2.60142E+2   1.88434E+2
   2.08880E+2   4.32928E+2
  -1.89857E+2   3.94570E+2
  -4.01198E+2  -5.41697E+1
  -2.23061E+2  -1.58654E+2
  -2.41158E+2  -2.06348E+2
  -1.68729E+2  -1.57620E+2
   1.18732E+2  -7.96760E+1
   3.99940E+2  -1.63490E+2
   3.73537E+2   9.86105E+1
   3.29045E+2   3.47534E+2
  -1.14634E+1   4.35608E+2
  -9.06999E+1   1.36020E+2
   3.08495E+1  -5.96900E+1
  -2.26396E+2   6.09438E-1
  -2.92844E+2   1.21989E+1
  -3.34389E+2   3.35312E+1
  -1.92367E+2  -1.21501E+2
   6.25448E+1   1.26717E+2
   3.91975E+1   1.63238E+2
  -2.34504E+2  -1.64845E+2
  -1.07291E+2  -2.57154E+2
   3.89794E+2  -2.10306E+2
   5.85393E+2   2.02296E+2
   1.47837E+2   2.02169E+2
  -7.55874E+1  -2.28437E+0
  -1.22327E+1  -5.25516E+1
   1.07786E+2  -9.28723E+1
   2.56632E+2   1.26881E+2
   2.03109E+1   6.81055E+1
  -1.61224E+2  -1.37286E+2
  -1.30165E+2   1.26278E+2
   4.20219E+1  -1.37777E+2
   1.83141E+1   1.76289E+2
  -1.85532E+2  -1.60149E+2
  -1.16662E+2  -2.90095E+2
   1.93928E+2  -4.49051E+2
   3.64745E+2  -4.44037E+1
  -2.49273E+2   3.39153E+2
  -2.65533E+2  -1.05147E+2
  -1.05026E+2  -1.14532E+2
   7.99684E+0  -5.07135E+0
  -2.31340E+2  -3.48542E+2
  -2.46990E+1  -2.52075E+2
   2.45127E+2  -1.89018E+2
   2.65162E+2   1.05309E+2
   2.90709E+2   3.90096E+2
   5.99128E+1   3.26243E+2
  -2.55137E+2   3.55154E+2
  -4.67390E+2  -3.36530E+2
  -2.36784E+2  -2.89026E+2
   3.97893E+1  -3.12166E+2
   2.16882E+2  -1.76744E+2
   1.39957E+2  -6.95789E+1
   1.51800E+2  -4.30021E+1
   2.44607E+1  -8.36498E+1
  -1.41334E+2   7.84609E+1
  -5.08681E+1   2.57915E+1
  -2.12970E+2  -1.05185E+2
  -3.64171E+1  -1.14050E+2
   2.85427E+2  -1.53900E+2
   1.71548E+2   6.38170E+1
   1.30584E+1  -2.37986E+1
  -7.09843E+1   5.48473E+1
  -4.05293E+1  -2.27834E+2
   1.53534E+2   6.91533E+1
  -6.45081E+1  -6.61859E+1
   2.33381E+1  -1.67534E+2
   6.12393E+1  -1.79892E+2
   6.04904E+2  -3.97200E+0
   1.19744E+2   2.31281E+2
  -4.36053E+2   2.76222E+2
  -3.63775E+2  -1.85449E+2
  -2.63484E+1  -1.92038E+2
   1.52498E+2  -1.95555E+2
   8.10482E+1  -1.07848E+2
   2.11249E+2  -3.35127E+1
  -6.74969E+1   7.85751E+1
   1.19818E+2  -3.92649E+1
   5.65398E+1   2.29347E+2
  -9.95685E+1   1.27834E+2
  -3.15542E+2  -2.25520E+2
  -4.49525E+1  -3.99161E+2
   1.68188E+2  -2.03487E+2
   2.92373E+1  -1.02450E+1
  -3.12607E+1   1.40640E+2
  -7.43946E+1  -5.33903E+1
   1.04521E+1  -3.97544E+1
   1.53056E+2  -1.25699E+2
  -6.65318E+1  -9.44821E+1
  -2.65490E+2  -1.60764E+2
  -2.24644E+1  -1.66527E+2
  -8.98353E+1   9.82499E+1
  -1.08274E+1  -1.92007E+2
  -1.11344E+2  -1.68467E+2
  -4.09204E+1   5.81058E+1
   2.81851E+1  -3.86095E+1
   2.14482E+2  -9.35605E+1
   2.50884E+1  -3.75495E+1
   2.43989E+2   8.81892E+1
   3.95851E+0  -3.49732E+1
  -7.41917E+1  -1.69723E+2
   1.58480E+2  -2.06963E+2
  -3.05745E+1   7.18655E+1
  -1.14778E+2   7.02128E+1
   2.29240E+2  -7.24507E+1
   2.23572E+2  -2.34776E+1
  -6.04408E+1   1.15624E+2
   9.54117E+1   7.12559E+1
  -1.31455E+1  -1.86044E+2
  -1.71941E+2  -2.77288E+2
   4.29094E+0  -1.73607E+2
   1.15085E+2  -8.97508E+1
  -5.27101E+0   2.12364E+2
  -7.46988E+1   5.93078E+1
  -1.55893E+2  -2.79990E+2
  -1.65816E+2  -8.11352E+1
  -2.64333E+2  -5.09690E+1
  -1.77498E+2  -1.81547E+1
  -1.31396E+2  -2.17851E+2
   3.31321E+2  -2.95428E+2
   1.89265E+2   7.26836E+1
   2.90955E+2   7.56277E+1
  -1.97147E+2   8.80661E+1
   7.67767E+0  -1.66024E+2
  -2.33865E+2  -2.82232E+2
   4.53712E+1  -2.39740E+2
   2.86302E+2  -1.14003E+2
  -9.61148E+1   6.98369E+1
   5.26222E+1   9.12850E+1
  -7.50800E+0   6.62718E+1
  -3.26362E+2  -7.24467E+1
  -2.35266E+2  -1.23344E+2
  -1.86176E+2  -2.21947E+2
   2.02781E+0  -2.72684E+2
   1.18161E+2  -5.99660E+1
   2.85624E+1  -1.43298E+2
   1.52304E+2   1.73901E+2
  -2.15070E+2  -3.66118E+1
  -1.39044E+2  -7.80353E+1
   3.73818E+1   3.22174E+1
  -1.14854E+2   2.44482E+1
  -3.57596E+2  -1.54825E+2
   4.62150E+0  -2.95117E+2
   1.05304E+2  -2.51647E+2
   1.37984E+2   9.34630E+1
  -1.06191E+2   1.41974E+2
  -2.19353E+2  -3.20386E+1
   2.49266E+1  -5.22108E+1
   1.65039E+1   1.22492E+1
   1.59049E+1  -1.01847E+2
   2.68642E+0  -3.30548E+1
   8.63279E+1  -7.70239E+1
   2.45206E+1   2.45791E+2
  -2.80019E+2  -9.38293E+1
   1.28716E+2   1.79449E+2
  -1.79742E+1  -6.68673E+0
   3.07593E+1  -1.07617E+2
   2.33467E+1  -2.30436E+2
  -2.35739E+2  -5.52336E+1
  -3.01140E+2   1.50776E+2
  -2.02399E+2  -7.20737E+1
  -2.96383E+2   4.83812E+1
   2.00959E+2  -2.61220E+2
   8.26641E+1   1.51812E+2
  -5.10356E+1   1.86032E+1
   2.19474E+2   7.67422E+1
   6.10202E+1  -6.99776E+1
   1.74541E+2  -1.07836E+2
   2.84155E+1   5.58947E+1
  -1.57462E+2  -4.38361E+0
  -8.28023E+1   1.34650E+0
   9.87981E+1  -4.68740E+2
   6.16808E+1   7.87302E+1
   4.24890E+0   2.99216E+1
  -5.23714E+0   2.87552E+1
  -1.35334E+2  -6.34588E+1
  -1.33952E+2   2.84339E+1
  -2.24992E+2   3.16840E-1
  -7.61462E+1   3.20794E+2
  -2.11511E+1  -3.79168E+1
  -1.20320E+2   7.15447E+1
   9.91484E+1   1.67037E+2
   4.06285E+1   1.16408E+2
  -2.73479E+2  -2.84499E+1
  -2.78980E+2  -1.78264E+2
  -8.53041E+1  -2.54082E+2
   1.77939E+1  -7.37713E+1
   2.04673E+2   4.21420E+1
  -1.96696E+2  -9.22154E+1
  -5.29838E+1   1.83427E+2
  -2.31023E+2   9.11852E+1
  -1.44044E+2  -1.47074E+2
   2.92486E+1   1.20977E+2
  -1.40615E+2  -8.44939E+1
   9.67551E+1  -7.96169E+1
   7.82675E+1   6.86180E+1
   1.48940E+2   6.27836E+1
  -1.80678E+1   8.93157E+1
   3.67264E+1  -4.42600E+1
  -1.64156E+2   1.63848E+2
  -6.48944E+1  -1.27422E+2
  -1.43345E+2  -9.25410E+1
  -2.79288E+2   2.16616E+1
  -3.38956E+1   2.96972E+1
   2.29528E+2   7.97375E+1
  -1.90441E+2   1.33092E+2
   5.21560E+1  -2.18118E+2
  -7.57340E+1  -3.10650E+1
   1.55538E+2   2.22759E+1
  -8.32171E+1  -2.39858E+0
  -1.18773E+2  -1.27283E+2
   6.45488E+1  -7.41569E+1
   1.30398E+2   2.23616E+2
  -3.82274E+1   2.48947E+2
  -2.14288E+1   2.00042E+2
  -1.71463E+2   2.85385E+2
  -2.26761E+2   2.74052E+2
  -1.25143E+2  -1.71524E+1
   1.39791E+2  -1.89888E+2
   1.51485E+2   1.54126E+2
  -3.47206E+1   2.47662E+2
  -2.12810E+2  -1.01820E+0
  -1.25657E+2   9.45332E+1
   1.72777E+2   8.16766E+1
