 
 $NMID
 ID=''
 FMTDAT='(2E13.5)'
 TRAMP=   1.00000E+0
 VOLUME=   1.00000E+0
 $END
  -4.92763E+5   2.39115E+5
  -1.44598E+6   1.86404E+5
  -1.36547E+6   3.80543E+5
  -1.25422E+6   2.65382E+5
  -1.30234E+6   1.63765E+5
  -1.29160E+6   1.28386E+5
  -1.28921E+6   5.71999E+4
  -1.34113E+6   4.95806E+4
  -1.30453E+6   7.85117E+4
  -1.25806E+6   3.29069E+4
  -1.25742E+6  -1.02852E+4
  -1.23427E+6  -3.76221E+4
  -1.22901E+6  -8.16796E+4
  -1.24565E+6  -8.68766E+4
  -1.21844E+6  -8.24972E+4
  -1.18929E+6  -1.10401E+5
  -1.18497E+6  -1.36131E+5
  -1.16358E+6  -1.66242E+5
  -1.15080E+6  -2.10495E+5
  -1.14841E+6  -2.32602E+5
  -1.12346E+6  -2.52423E+5
  -1.10331E+6  -2.84095E+5
  -1.09221E+6  -3.04698E+5
  -1.06986E+6  -3.28616E+5
  -1.05092E+6  -3.57848E+5
  -1.03996E+6  -3.66117E+5
  -1.02159E+6  -3.78183E+5
  -1.00556E+6  -3.97250E+5
  -9.88844E+5  -4.08272E+5
  -9.69448E+5  -4.19752E+5
  -9.55079E+5  -4.42655E+5
  -9.37601E+5  -4.58253E+5
  -9.14052E+5  -4.75267E+5
  -8.95978E+5  -4.94334E+5
  -8.77784E+5  -5.10363E+5
  -8.56773E+5  -5.28589E+5
  -8.38917E+5  -5.48922E+5
  -8.19367E+5  -5.63722E+5
  -7.96589E+5  -5.75833E+5
  -7.79368E+5  -5.88506E+5
  -7.61052E+5  -5.97532E+5
  -7.42335E+5  -6.06792E+5
  -7.25982E+5  -6.13336E+5
  -7.09813E+5  -6.19427E+5
  -6.90938E+5  -6.26540E+5
  -6.75081E+5  -6.34446E+5
  -6.57242E+5  -6.42809E+5
  -6.36181E+5  -6.52051E+5
  -6.14884E+5  -6.59439E+5
  -5.95665E+5  -6.66260E+5
  -5.76352E+5  -6.74102E+5
  -5.56659E+5  -6.81225E+5
  -5.37154E+5  -6.87525E+5
  -5.18094E+5  -6.93872E+5
  -4.99291E+5  -6.98384E+5
  -4.80030E+5  -7.02080E+5
  -4.61768E+5  -7.04926E+5
  -4.44255E+5  -7.06132E+5
  -4.27490E+5  -7.06097E+5
  -4.10170E+5  -7.07348E+5
  -3.93256E+5  -7.09051E+5
  -3.75853E+5  -7.10108E+5
  -3.58653E+5  -7.10711E+5
  -3.40670E+5  -7.10792E+5
  -3.22230E+5  -7.09630E+5
  -3.03769E+5  -7.08069E+5
  -2.86065E+5  -7.06658E+5
  -2.69269E+5  -7.04480E+5
  -2.53479E+5  -7.03103E+5
  -2.36804E+5  -7.00582E+5
  -2.19707E+5  -6.96351E+5
  -2.04477E+5  -6.91879E+5
  -1.90268E+5  -6.88793E+5
  -1.74719E+5  -6.85733E+5
  -1.59424E+5  -6.80291E+5
  -1.44677E+5  -6.74676E+5
  -1.30488E+5  -6.69856E+5
  -1.14990E+5  -6.64660E+5
  -9.91984E+4  -6.58839E+5
  -8.45064E+4  -6.52624E+5
  -6.99144E+4  -6.46150E+5
  -5.60811E+4  -6.39108E+5
  -4.25364E+4  -6.32064E+5
  -2.90155E+4  -6.24795E+5
  -1.56586E+4  -6.17407E+5
  -3.31353E+3  -6.08895E+5
   7.69395E+3  -6.00901E+5
   1.84910E+4  -5.93098E+5
   2.93354E+4  -5.84604E+5
   3.94210E+4  -5.75778E+5
   4.87942E+4  -5.67177E+5
   5.88600E+4  -5.59160E+5
   6.88861E+4  -5.50368E+5
   7.88715E+4  -5.40822E+5
   8.78691E+4  -5.31378E+5
   9.67095E+4  -5.22346E+5
   1.05790E+5  -5.13284E+5
   1.14302E+5  -5.03913E+5
   1.22208E+5  -4.94352E+5
   1.29675E+5  -4.85152E+5
   1.36616E+5  -4.75824E+5
   1.43714E+5  -4.66352E+5
   1.50231E+5  -4.56637E+5
   1.55961E+5  -4.46414E+5
   1.60854E+5  -4.36833E+5
   1.65641E+5  -4.27838E+5
   1.70855E+5  -4.18497E+5
   1.76554E+5  -4.08902E+5
   1.80719E+5  -3.98419E+5
   1.83999E+5  -3.88920E+5
   1.87680E+5  -3.80181E+5
   1.92460E+5  -3.70878E+5
   1.96680E+5  -3.60678E+5
   2.00037E+5  -3.51067E+5
   2.03481E+5  -3.41571E+5
   2.06852E+5  -3.32298E+5
   2.09508E+5  -3.22486E+5
   2.12387E+5  -3.12816E+5
   2.14118E+5  -3.02937E+5
   2.15440E+5  -2.94050E+5
   2.17230E+5  -2.85115E+5
   2.18990E+5  -2.76535E+5
   2.20657E+5  -2.67528E+5
   2.21699E+5  -2.58474E+5
   2.22589E+5  -2.49275E+5
   2.23179E+5  -2.39909E+5
   2.23524E+5  -2.31097E+5
   2.24165E+5  -2.22408E+5
   2.24183E+5  -2.13947E+5
   2.24378E+5  -2.05518E+5
   2.24716E+5  -1.96586E+5
   2.24487E+5  -1.87515E+5
   2.23715E+5  -1.79101E+5
   2.23333E+5  -1.70992E+5
   2.22893E+5  -1.62908E+5
   2.21356E+5  -1.54508E+5
   2.19802E+5  -1.46820E+5
   2.18639E+5  -1.39238E+5
   2.18109E+5  -1.31435E+5
   2.16363E+5  -1.23649E+5
   2.14445E+5  -1.16174E+5
   2.12609E+5  -1.08968E+5
   2.10611E+5  -1.01951E+5
   2.08777E+5  -9.52994E+4
   2.06729E+5  -8.83366E+4
   2.04381E+5  -8.19340E+4
   2.01788E+5  -7.52844E+4
   1.99285E+5  -6.92707E+4
   1.96443E+5  -6.32549E+4
   1.93830E+5  -5.70923E+4
   1.90879E+5  -5.17425E+4
   1.87653E+5  -4.62130E+4
   1.85147E+5  -4.09640E+4
   1.82135E+5  -3.60029E+4
   1.79175E+5  -3.06425E+4
   1.75852E+5  -2.57847E+4
   1.72853E+5  -2.11965E+4
   1.69814E+5  -1.69099E+4
   1.66726E+5  -1.22127E+4
   1.63383E+5  -8.00947E+3
   1.60236E+5  -4.04118E+3
   1.57002E+5  -4.15845E+2
   1.53700E+5   3.51031E+3
   1.50382E+5   7.27250E+3
   1.46981E+5   1.03281E+4
   1.43901E+5   1.36487E+4
   1.40737E+5   1.68303E+4
   1.37815E+5   1.99992E+4
   1.34646E+5   2.28102E+4
   1.31174E+5   2.53874E+4
   1.27945E+5   2.81360E+4
   1.24920E+5   3.05738E+4
   1.22123E+5   3.27528E+4
   1.18817E+5   3.51921E+4
   1.15477E+5   3.72562E+4
   1.12545E+5   3.91278E+4
   1.09651E+5   4.12571E+4
   1.06584E+5   4.32700E+4
   1.03315E+5   4.48372E+4
   1.00313E+5   4.62357E+4
   9.76069E+4   4.78733E+4
   9.46917E+4   4.97463E+4
   9.16900E+4   5.08349E+4
   8.88240E+4   5.20621E+4
   8.59062E+4   5.31527E+4
   8.31102E+4   5.38916E+4
   8.00098E+4   5.51613E+4
   7.73610E+4   5.57874E+4
   7.48945E+4   5.64383E+4
   7.24739E+4   5.69528E+4
   6.98502E+4   5.79367E+4
   6.71479E+4   5.82778E+4
   6.44794E+4   5.89168E+4
   6.21107E+4   5.91670E+4
   5.95961E+4   5.93011E+4
   5.71202E+4   5.96195E+4
   5.44018E+4   6.00263E+4
   5.22535E+4   6.00069E+4
   5.00714E+4   6.00869E+4
   4.76424E+4   6.04486E+4
   4.53432E+4   6.04612E+4
   4.31330E+4   6.02020E+4
   4.09520E+4   5.99716E+4
   3.87922E+4   5.98775E+4
   3.65437E+4   5.97397E+4
   3.47066E+4   5.96406E+4
   3.25138E+4   5.91492E+4
   3.06877E+4   5.87687E+4
   2.87512E+4   5.83081E+4
   2.64676E+4   5.81314E+4
   2.47573E+4   5.77079E+4
   2.28988E+4   5.69427E+4
   2.13439E+4   5.65463E+4
   1.96056E+4   5.60004E+4
   1.75819E+4   5.55425E+4
   1.61671E+4   5.47560E+4
   1.45752E+4   5.41659E+4
   1.30427E+4   5.33026E+4
   1.15958E+4   5.28786E+4
   9.83446E+3   5.23796E+4
   8.55498E+3   5.14898E+4
   7.11384E+3   5.08532E+4
   5.99390E+3   5.00828E+4
   4.84116E+3   4.94720E+4
   3.48298E+3   4.84646E+4
   2.53611E+3   4.77463E+4
   1.44921E+3   4.69228E+4
   6.89583E+2   4.62449E+4
  -5.78232E+2   4.56632E+4
  -1.79568E+3   4.46384E+4
  -2.34000E+3   4.35499E+4
  -3.14051E+3   4.25856E+4
  -4.15062E+3   4.21223E+4
  -4.68407E+3   4.09858E+4
  -5.67808E+3   4.04840E+4
  -6.10980E+3   3.95313E+4
  -6.67435E+3   3.88503E+4
  -7.57118E+3   3.79104E+4
  -7.78917E+3   3.70558E+4
  -8.00692E+3   3.65319E+4
  -8.41113E+3   3.55023E+4
  -9.16263E+3   3.47813E+4
  -9.60514E+3   3.39095E+4
  -9.79245E+3   3.29557E+4
  -1.02313E+4   3.20446E+4
  -1.04789E+4   3.15397E+4
  -1.06596E+4   3.06524E+4
  -1.07872E+4   2.97814E+4
  -1.10160E+4   2.89737E+4
  -1.11790E+4   2.82438E+4
  -1.11319E+4   2.75918E+4
  -1.15582E+4   2.66005E+4
  -1.15084E+4   2.59430E+4
  -1.15420E+4   2.53634E+4
  -1.14756E+4   2.43652E+4
  -1.18547E+4   2.37106E+4
  -1.16470E+4   2.27706E+4
  -1.15601E+4   2.19603E+4
  -1.14552E+4   2.13698E+4
  -1.14419E+4   2.06172E+4
  -1.15574E+4   1.99537E+4
  -1.13316E+4   1.88845E+4
  -1.14315E+4   1.81787E+4
  -1.12340E+4   1.76713E+4
  -1.09431E+4   1.69376E+4
  -1.11798E+4   1.62060E+4
  -1.08597E+4   1.54496E+4
  -1.05281E+4   1.48025E+4
  -1.06031E+4   1.44234E+4
  -1.05306E+4   1.37227E+4
  -1.03458E+4   1.31222E+4
  -1.01246E+4   1.25737E+4
  -9.91657E+3   1.19635E+4
  -9.45877E+3   1.13678E+4
  -9.35052E+3   1.07562E+4
  -9.02879E+3   1.00795E+4
  -8.86984E+3   9.83520E+3
  -8.33950E+3   9.25042E+3
  -8.28259E+3   8.94008E+3
  -8.27672E+3   8.29559E+3
  -8.03624E+3   7.88971E+3
  -7.67789E+3   7.71949E+3
  -7.36188E+3   6.85377E+3
  -7.09203E+3   6.90652E+3
  -6.88718E+3   6.19074E+3
  -6.51947E+3   5.72150E+3
  -6.47945E+3   5.41235E+3
  -5.84986E+3   5.39685E+3
  -6.04879E+3   5.11973E+3
  -5.48823E+3   4.74142E+3
  -5.26038E+3   4.56656E+3
  -4.78937E+3   4.13484E+3
  -4.70374E+3   4.25981E+3
  -4.28813E+3   3.75116E+3
  -4.44185E+3   3.74526E+3
  -3.80239E+3   3.38585E+3
  -3.60867E+3   3.38477E+3
  -3.12252E+3   3.11473E+3
  -2.98814E+3   2.77131E+3
  -2.71608E+3   2.82422E+3
  -2.42553E+3   2.80540E+3
  -2.23393E+3   2.64996E+3
  -2.11111E+3   2.53028E+3
  -1.77250E+3   2.36002E+3
  -1.28707E+3   2.31659E+3
  -1.06468E+3   2.30744E+3
  -7.65343E+2   2.12476E+3
  -4.72834E+2   1.85577E+3
  -2.99574E+2   1.86499E+3
  -5.56362E+1   1.94110E+3
   3.16716E+2   1.89150E+3
   4.22216E+2   1.94278E+3
   1.00153E+3   1.64134E+3
   1.13417E+3   1.86666E+3
   1.62003E+3   1.68352E+3
   1.72394E+3   1.46428E+3
   2.08161E+3   1.39146E+3
   2.34236E+3   1.40532E+3
   2.45840E+3   1.52108E+3
   2.83194E+3   1.42188E+3
   3.01035E+3   1.47406E+3
   3.18050E+3   1.25198E+3
   3.45376E+3   1.39868E+3
   3.70736E+3   1.35728E+3
   3.88605E+3   1.51044E+3
   4.23632E+3   1.28947E+3
   4.29952E+3   9.85442E+2
   4.54337E+3   1.21738E+3
   5.03261E+3   1.01083E+3
   5.05379E+3   1.02059E+3
   4.97365E+3   1.09030E+3
   5.36887E+3   1.06854E+3
   5.49329E+3   1.06178E+3
   5.70516E+3   1.03616E+3
   5.70852E+3   1.15911E+3
   5.79390E+3   9.14421E+2
   6.19740E+3   1.04670E+3
   6.36775E+3   1.14270E+3
   6.40556E+3   1.27869E+3
   6.42498E+3   1.04758E+3
   6.50976E+3   1.23879E+3
   6.65771E+3   1.12583E+3
   6.76815E+3   1.19767E+3
   6.77516E+3   1.34171E+3
   7.19291E+3   1.21014E+3
   7.03562E+3   1.18458E+3
   7.22135E+3   1.27315E+3
   7.36121E+3   1.24424E+3
   7.29551E+3   1.19489E+3
   7.15083E+3   1.45531E+3
   7.32293E+3   1.30389E+3
   7.57472E+3   1.49469E+3
   7.62546E+3   1.52319E+3
   7.42038E+3   1.34190E+3
   7.67442E+3   1.50048E+3
   7.44840E+3   1.57698E+3
   7.63552E+3   1.53937E+3
   7.81483E+3   1.80506E+3
   7.53466E+3   1.77360E+3
   7.68663E+3   1.94064E+3
   7.88193E+3   1.98313E+3
   7.76768E+3   2.31441E+3
   7.46925E+3   2.33938E+3
   7.58678E+3   2.26280E+3
   7.54042E+3   2.25760E+3
   7.59318E+3   2.45935E+3
   7.64160E+3   2.49099E+3
