 LCModel (Version 6.3-1N) Copyright: S.W. Provencher.          Ref.: Magn. Reson. Med. 30:672-679 (1993).                
 Slice_N1@12_17  28-Feb-2025 11:39:30
 27 lines in following concentration table = NCONC+1
    Conc.  %SD /Cr+PCr  Metabolite                                         
 2.12E-04   7% 2.3E-04 Mac                                                 
    2.925  49%   3.105 Cr                                                  
    4.610  30%   4.895 PCr                                                 
    6.900  17%   7.325 Ins                                                 
    9.813  10%  10.418 NAA                                                 
    5.924  18%   6.289 Tau                                                 
 9.03E-02 999% 9.6E-02 PCho                                                
    2.045  55%   2.171 GPC                                                 
    9.209  14%   9.776 Glu                                                 
    3.326  30%   3.530 Gln                                                 
    0.000 999%   0.000 Ala                                                 
    3.158  48%   3.353 Asc                                                 
    1.699  78%   1.804 Asp                                                 
    1.653  42%   1.755 GABA                                                
    0.682 140%   0.724 Glc                                                 
    1.867  32%   1.982 GSH                                                 
    0.000 999%   0.000 Lac                                                 
    2.615  25%   2.777 NAAG                                                
    0.394 356%   0.418 PE                                                  
    2.136  18%   2.267 GPC+PCho                                            
   12.429   9%  13.195 NAA+NAAG                                            
   12.534  13%  13.307 Glu+Gln                                             
    7.536  12%   8.000 Cr+PCr                                              
   12.429   9%  13.195 NAA+NAAG                                            
    7.536  12%   8.000 Cr+PCr                                              
   12.534  13%  13.307 Glu+Gln                                             
   6 lines in following misc. output table
  FWHM = 0.024 ppm    S/N =   3                                            
  Data shift = 0.033 ppm                                                   
  Ph:-123 deg       0.0 deg/ppm                                            
  alphaB,S = 1.4E-01,   1.6E+00                                            
   19 spline knots.   Ns = 5(1)                                            
  ( 4) 2 infls.   ( 2) 2 extrs.                                            
  480 points on ppm-axis = NY
      4.100000     4.091866     4.083733     4.075600     4.067466     4.059333     4.051199     4.043066     4.034933     4.026799
      4.018666     4.010532     4.002399     3.994265     3.986132     3.977998     3.969864     3.961731     3.953597     3.945463
      3.937330     3.929196     3.921062     3.912929     3.904795     3.896662     3.888528     3.880394     3.872261     3.864127
      3.855993     3.847860     3.839726     3.831592     3.823459     3.815325     3.807191     3.799058     3.790924     3.782790
      3.774657     3.766523     3.758389     3.750256     3.742122     3.733989     3.725855     3.717721     3.709588     3.701454
      3.693320     3.685187     3.677053     3.668919     3.660786     3.652652     3.644518     3.636385     3.628251     3.620117
      3.611984     3.603850     3.595716     3.587583     3.579449     3.571316     3.563182     3.555048     3.546915     3.538781
      3.530647     3.522514     3.514380     3.506246     3.498113     3.489979     3.481845     3.473712     3.465578     3.457444
      3.449311     3.441177     3.433043     3.424910     3.416776     3.408643     3.400509     3.392375     3.384242     3.376108
      3.367974     3.359841     3.351707     3.343573     3.335440     3.327306     3.319172     3.311039     3.302905     3.294771
      3.286638     3.278504     3.270370     3.262237     3.254103     3.245970     3.237836     3.229702     3.221569     3.213435
      3.205301     3.197168     3.189034     3.180900     3.172767     3.164633     3.156499     3.148366     3.140232     3.132098
      3.123965     3.115831     3.107697     3.099564     3.091430     3.083297     3.075163     3.067029     3.058896     3.050762
      3.042628     3.034495     3.026361     3.018227     3.010094     3.001960     2.993826     2.985693     2.977559     2.969425
      2.961292     2.953158     2.945024     2.936891     2.928757     2.920624     2.912490     2.904356     2.896223     2.888089
      2.879955     2.871822     2.863688     2.855554     2.847421     2.839287     2.831153     2.823020     2.814886     2.806752
      2.798619     2.790485     2.782351     2.774218     2.766084     2.757951     2.749817     2.741683     2.733550     2.725416
      2.717282     2.709149     2.701015     2.692881     2.684748     2.676614     2.668480     2.660347     2.652213     2.644079
      2.635946     2.627812     2.619678     2.611545     2.603411     2.595278     2.587144     2.579010     2.570877     2.562743
      2.554609     2.546476     2.538342     2.530208     2.522075     2.513941     2.505807     2.497674     2.489540     2.481406
      2.473273     2.465139     2.457006     2.448872     2.440738     2.432605     2.424471     2.416337     2.408204     2.400070
      2.391936     2.383803     2.375669     2.367535     2.359402     2.351268     2.343134     2.335001     2.326867     2.318733
      2.310600     2.302466     2.294333     2.286199     2.278065     2.269932     2.261798     2.253664     2.245531     2.237397
      2.229263     2.221130     2.212996     2.204862     2.196729     2.188595     2.180461     2.172328     2.164194     2.156060
      2.147927     2.139793     2.131660     2.123526     2.115392     2.107259     2.099125     2.090991     2.082858     2.074724
      2.066590     2.058457     2.050323     2.042189     2.034056     2.025922     2.017788     2.009655     2.001521     1.993387
      1.985254     1.977120     1.968987     1.960853     1.952719     1.944586     1.936452     1.928318     1.920185     1.912051
      1.903917     1.895784     1.887650     1.879516     1.871383     1.863249     1.855115     1.846982     1.838848     1.830714
      1.822581     1.814447     1.806314     1.798180     1.790046     1.781913     1.773779     1.765645     1.757512     1.749378
      1.741244     1.733111     1.724977     1.716843     1.708710     1.700576     1.692442     1.684309     1.676175     1.668041
      1.659908     1.651774     1.643641     1.635507     1.627373     1.619240     1.611106     1.602972     1.594839     1.586705
      1.578571     1.570438     1.562304     1.554170     1.546037     1.537903     1.529769     1.521636     1.513502     1.505368
      1.497235     1.489101     1.480968     1.472834     1.464700     1.456567     1.448433     1.440299     1.432166     1.424032
      1.415898     1.407765     1.399631     1.391497     1.383364     1.375230     1.367096     1.358963     1.350829     1.342695
      1.334562     1.326428     1.318295     1.310161     1.302027     1.293894     1.285760     1.277626     1.269493     1.261359
      1.253225     1.245092     1.236958     1.228824     1.220691     1.212557     1.204423     1.196290     1.188156     1.180022
      1.171889     1.163755     1.155622     1.147488     1.139354     1.131221     1.123087     1.114953     1.106820     1.098686
      1.090552     1.082419     1.074285     1.066151     1.058018     1.049884     1.041750     1.033617     1.025483     1.017349
      1.009216     1.001082     0.992949     0.984815     0.976681     0.968548     0.960414     0.952280     0.944147     0.936013
      0.927879     0.919746     0.911612     0.903478     0.895345     0.887211     0.879077     0.870944     0.862810     0.854676
      0.846543     0.838409     0.830276     0.822142     0.814008     0.805875     0.797741     0.789607     0.781474     0.773340
      0.765206     0.757073     0.748939     0.740805     0.732672     0.724538     0.716404     0.708271     0.700137     0.692003
      0.683870     0.675736     0.667603     0.659469     0.651335     0.643202     0.635068     0.626934     0.618801     0.610667
      0.602533     0.594400     0.586266     0.578132     0.569999     0.561865     0.553731     0.545598     0.537464     0.529330
      0.521197     0.513063     0.504930     0.496796     0.488662     0.480529     0.472395     0.464261     0.456128     0.447994
      0.439861     0.431727     0.423593     0.415460     0.407326     0.399192     0.391059     0.382925     0.374792     0.366658
      0.358524     0.350391     0.342257     0.334124     0.325990     0.317856     0.309723     0.301589     0.293455     0.285322
      0.277188     0.269055     0.260921     0.252787     0.244654     0.236520     0.228386     0.220253     0.212119     0.203986
 NY phased data points follow
   2.83561E+01  2.16206E+01  1.83484E+01  7.58966E+00  1.49290E+01  2.40519E+01  1.52387E+01  2.36064E+01  2.39136E+01  2.63097E+01
   1.18269E+01 -1.26796E+01  3.83414E+00  3.91306E+00 -1.32712E+01 -1.76511E+00  7.49029E+00 -1.58701E+01 -2.95590E+01 -4.36697E+01
  -5.84429E+01 -3.96419E+01 -1.59890E+01 -3.58013E+00  9.59042E+00  3.00921E+01  3.57795E+01  4.05148E+01  4.12958E+01  4.09764E+01
   4.21099E+01  4.79625E+01  6.23781E+01  5.20518E+01  5.05228E+01  3.50816E+01  3.17110E+01  4.06543E+01  1.39050E+01 -1.70493E+00
  -2.33360E+01 -2.32635E+01 -2.57607E+01 -4.71290E+01 -2.40801E+01  1.54904E+01  4.65489E+01  5.01735E+01  5.15328E+01  5.61865E+01
   4.55916E+01  5.57782E+01  5.46941E+01  3.60451E+01  2.28884E+01  1.31692E+01  1.82569E+01  1.07705E+00 -7.95204E+00  9.39482E+00
   7.72443E+00  1.12625E+01  2.14555E+01  3.41757E+01  4.61194E+01  5.10284E+01  5.82291E+01  4.84205E+01  1.46409E+01 -1.47447E+01
  -1.42563E+01 -1.55359E+00  1.05647E+01  1.97941E+01  2.99551E+01  4.66805E+01  5.38991E+01  6.79621E+01  7.09317E+01  6.08754E+01
   7.10856E+01  5.74363E+01  4.02152E+01  2.93824E+01  1.42225E+01  1.37743E+01 -1.76804E+00  2.70173E+01  5.83497E+01  3.57858E+01
   4.87983E+01  7.91379E+01  7.39457E+01  7.08699E+01  8.92584E+01  7.98915E+01  9.37182E+01  1.13698E+02  9.64345E+01  9.93509E+01
   9.17994E+01  8.79119E+01  8.42300E+01  8.15393E+01  6.14206E+01  4.02284E+01  5.75422E+01  4.16017E+01  2.04553E+01 -4.39853E+01
  -1.04164E+02 -1.04351E+02 -9.85074E+01 -6.07208E+01 -4.82424E+01 -3.50499E+01 -4.70239E+00  7.91410E+00  1.04934E+00 -9.72341E-01
   1.00362E+01  9.51181E+00  1.85133E+01  6.40591E+00  2.87845E+01  5.07171E+01  5.46663E+01  8.66100E+01  9.21826E+01  1.44238E+02
   1.83515E+02  1.43436E+02  7.34319E+01 -5.39660E+00 -3.14961E+01 -3.46692E+01 -5.13829E+01 -2.99298E+01 -1.68787E+01 -3.27551E+01
  -2.11679E+01 -3.68956E+01 -4.06144E+01 -2.88772E+01 -3.60316E+01 -3.32871E+01 -4.89827E+01 -3.64637E+01 -2.61858E+01 -2.89848E+01
  -1.48546E+01 -2.08794E+01 -2.97087E+01 -2.37350E+01 -1.66267E+01 -2.24843E+01 -1.74784E+01 -9.43541E+00 -1.41177E+01 -1.36437E+01
  -5.78376E+00 -2.73493E+00 -7.89742E+00 -6.49017E+00 -2.76266E+00 -1.21077E+01 -1.75795E+01 -2.15110E+01 -1.80052E+01 -8.31379E+00
  -2.06007E+01  1.24920E+01  3.94288E+01  1.89749E+01  1.32872E+01  1.11088E+01  2.37739E+01  2.06805E+01  1.76472E+01  1.56503E+01
   3.11768E+00 -6.17789E+00 -1.87873E+01 -1.85338E+01 -2.95074E+01 -3.64588E+01 -3.69001E+01 -2.90655E+01 -1.59245E+01 -7.27542E+00
  -4.13418E+00 -8.66589E+00 -4.89010E+00 -1.24050E+01 -6.02072E+00  2.76276E+00 -7.80767E+00 -6.02811E-01  7.36049E+00  1.13767E+01
   2.65430E+01  3.35081E+01  4.31512E+01  2.62962E+01  2.82009E+00  1.29101E+01 -2.45672E+00 -1.17713E+01 -2.69466E+01 -3.59186E+01
  -3.26174E+01 -5.28807E+01 -2.89700E+01 -1.77684E+01 -1.88687E+01  2.08230E+01  4.54830E+01  3.97240E+01  3.47127E+01  3.35965E+01
   1.18393E+01 -4.28138E+00  8.32177E+00  9.11461E+00  5.81286E+00  2.10365E+01  9.59510E+00  9.43592E+00  1.78303E+01  4.47491E+00
   8.46605E+00  5.97966E+00  2.08523E+00 -1.32892E+00 -1.86472E+01 -2.99832E+01 -3.32355E+01 -4.66070E+01 -5.58259E+01 -4.73219E+01
  -5.12315E+01 -5.34034E+01 -2.81416E+01 -2.20488E+01 -2.40029E+01  2.78404E+00 -2.89710E-01 -1.20641E+01 -1.55867E+01 -2.92196E+01
  -4.24740E+01 -5.32235E+01 -3.82488E+01 -3.17963E+01 -6.99003E+01 -1.27354E+02 -1.12261E+02 -1.13267E+01  8.99470E+01  1.24724E+02
   1.41516E+02  1.66583E+02  1.25504E+02  1.11745E+02  1.04736E+02  7.87994E+01  1.00344E+02  8.42640E+01  6.35892E+01  6.91774E+01
   6.39161E+01  6.28084E+01  6.73770E+01  7.62834E+01  8.53583E+01  8.61886E+01  9.28394E+01  1.01970E+02  9.97868E+01  9.88645E+01
   9.66795E+01  1.03247E+02  8.63391E+01  7.36274E+01  9.53350E+01  9.05846E+01  8.81362E+01  8.25287E+01  8.01787E+01  7.90269E+01
   6.95790E+01  8.86528E+01  7.22403E+01  6.33228E+01  6.89917E+01  5.24906E+01  3.98411E+01  2.22674E+01  4.17860E+01  2.76490E+01
   1.40404E+01  3.71349E+01  2.22143E+01  2.59819E+01  2.14558E+01  1.93009E+01  2.75118E+01  1.26830E+01  1.84119E+01  1.89440E+01
  -6.05230E+00 -1.45470E+01 -8.56563E+00 -3.08871E+01 -5.04260E+01 -4.82652E+01 -4.81353E+01 -4.40035E+01 -4.02558E+01 -3.65216E+01
  -1.80149E+01 -8.35817E+00 -7.21074E+00  4.92656E-01 -6.27585E-01  6.55288E+00 -4.52239E+00 -1.29565E+01  2.69330E-01  1.71347E+00
   1.41376E+00 -9.98068E+00 -1.32838E+01 -7.84228E+00 -2.95707E+00 -1.07484E+01 -2.94682E+00  2.46635E+01  2.07908E+01  1.29152E+01
  -1.19902E+01 -2.13183E+01 -1.68077E+00  1.94857E+00  1.18028E+01  2.41021E+01  4.73713E+01  6.43462E+01  7.25232E+01  8.03745E+01
   7.17229E+01  8.22448E+01  7.69489E+01  6.15675E+01  6.82324E+01  5.52967E+01  4.94733E+01  4.20529E+01  3.16379E+01  3.16664E+01
   1.90745E+01  4.77301E+00 -6.48759E+00  5.13986E+00  1.23869E+01  3.38476E+00  1.79356E+01  3.62213E+01  3.41062E+01  3.99683E+01
   4.40974E+01  3.43178E+01  4.52505E+01  4.55209E+01  4.57443E+01  5.26907E+01  4.94381E+01  5.84144E+01  5.41950E+01  5.72652E+01
   7.30620E+01  8.42353E+01  9.13609E+01  9.07648E+01  1.02535E+02  1.02391E+02  1.08913E+02  1.42240E+02  1.35666E+02  1.16801E+02
   1.30483E+02  1.37854E+02  1.27981E+02  1.09494E+02  1.05436E+02  9.75580E+01  8.03328E+01  8.40341E+01  7.57059E+01  6.36691E+01
   4.97595E+01  3.77882E+01  4.12990E+01  2.42077E+01  2.34591E+01  1.49909E+01 -3.04757E+00  9.31443E+00 -8.97739E+00  1.14443E+00
   1.68812E+01 -7.39631E+00  1.15167E+01  1.20145E+01 -9.81261E+00  4.43781E+00  8.84629E+00 -6.19768E+00  5.35840E+00  1.32217E+01
   4.81507E+00  1.18146E+01 -6.62056E+00 -8.06287E+00  6.21915E+00 -5.95894E+00 -4.12166E-01  3.07775E+00 -8.04076E-01  2.24160E+00
  -6.42766E+00 -4.70708E+00  1.09600E+01  9.13926E-01 -2.43015E+00 -1.68839E+00 -1.48455E+01 -1.18951E+01 -1.46185E+01 -1.05421E+01
   5.69746E+00  1.44626E+01 -2.67212E+00 -2.90994E+00  1.76553E+01 -1.57905E+00 -4.64247E+00  1.17378E+00  4.95465E+00  1.09826E+01
   7.88666E-01 -6.44236E+00 -9.38264E+00  4.55602E+00  1.64872E+00 -8.57890E+00 -8.01664E+00  1.02041E+01  1.72083E+01 -3.58848E+00
   4.24158E+00  6.85826E-01  3.84873E+00  6.42188E+00 -4.22271E+00  6.89539E+00  3.82839E+00  5.38013E+00  8.35125E+00  7.98586E+00
   5.21266E+00  4.31564E+00  2.74091E+00 -4.50794E-01  1.14478E+01  2.12935E+00  2.89311E+00  1.02726E+01  2.07358E+00  5.05464E+00
 NY points of the fit to the data follow
   1.50510E+01  5.72216E+00 -7.16078E+00 -1.55127E+01 -9.96137E+00  6.90968E+00  2.16027E+01  2.46405E+01  2.11625E+01  1.53865E+01
   8.65701E+00  4.56707E+00  3.82513E+00  4.65369E+00  4.38919E+00  4.00635E+00  4.36094E-02 -7.16322E+00 -3.00101E+01 -5.26957E+01
  -5.80046E+01 -4.34623E+01 -2.12170E+01 -2.41197E+00  2.17641E+01  3.81179E+01  4.28769E+01  5.07166E+01  5.54431E+01  5.55881E+01
   5.59487E+01  5.60657E+01  5.54276E+01  5.37571E+01  5.14775E+01  5.12139E+01  4.90182E+01  4.38931E+01  2.55337E+01 -2.01965E+00
  -2.67644E+01 -3.56353E+01 -2.99043E+01 -2.11260E+01 -5.50440E+00  1.42935E+01  3.11094E+01  4.29656E+01  5.13651E+01  5.76334E+01
   5.93162E+01  5.60212E+01  4.65608E+01  3.36086E+01  2.29101E+01  2.08777E+01  2.18047E+01  1.41412E+01  3.39185E+00  3.53727E-01
   5.14909E+00  8.40369E+00  1.50106E+01  3.42713E+01  5.17432E+01  6.17713E+01  6.67200E+01  5.30422E+01  2.65318E+01  8.10902E+00
   3.58973E+00  3.95213E+00  5.17512E+00  1.71330E+01  3.51433E+01  4.61964E+01  5.46348E+01  6.25592E+01  6.99524E+01  7.24935E+01
   7.16017E+01  6.13099E+01  4.43919E+01  2.53938E+01  1.00752E+01  6.70965E+00  1.13730E+01  2.27840E+01  3.56523E+01  4.44928E+01
   5.24140E+01  5.81953E+01  6.25600E+01  6.69649E+01  7.16099E+01  7.59007E+01  8.08114E+01  8.27013E+01  8.33954E+01  8.60345E+01
   9.17933E+01  8.99700E+01  8.27764E+01  6.79700E+01  5.61206E+01  4.58436E+01  5.63169E+01  6.30231E+01  2.24588E+01 -4.70017E+01
  -9.57160E+01 -9.74922E+01 -8.38751E+01 -7.00397E+01 -4.67806E+01 -2.91419E+01 -1.92601E+01 -1.12438E+01 -4.27057E+00  1.83480E+00
   7.54450E+00  1.32182E+01  1.90051E+01  2.57645E+01  3.35884E+01  4.19000E+01  4.94664E+01  6.53099E+01  8.85559E+01  1.38140E+02
   1.71383E+02  1.44591E+02  6.55700E+01 -4.19443E+00 -2.74841E+01 -4.29595E+01 -5.15019E+01 -4.21334E+01 -3.68386E+01 -3.54098E+01
  -3.38794E+01 -3.38194E+01 -3.46411E+01 -3.54310E+01 -3.61132E+01 -3.63883E+01 -3.50193E+01 -3.25640E+01 -3.02522E+01 -2.80454E+01
  -2.62299E+01 -2.46833E+01 -2.32386E+01 -2.12632E+01 -1.84759E+01 -1.57702E+01 -1.41549E+01 -1.37990E+01 -1.37223E+01 -1.24716E+01
  -9.92000E+00 -8.07865E+00 -8.25713E+00 -9.57016E+00 -9.16039E+00 -7.01417E+00 -6.67682E+00 -9.64624E+00 -1.31010E+01 -1.09049E+01
   7.20939E-01  1.61406E+01  2.31257E+01  1.77110E+01  1.12081E+01  1.46493E+01  2.52830E+01  2.96505E+01  2.42559E+01  1.32585E+01
   2.49437E+00 -5.72574E+00 -1.30492E+01 -1.72825E+01 -1.84958E+01 -1.97192E+01 -2.05921E+01 -2.06030E+01 -2.05310E+01 -1.87653E+01
  -1.65083E+01 -1.61532E+01 -1.25619E+01 -3.40554E+00  5.06735E+00  6.95978E+00  6.07697E+00  1.19497E+01  1.63977E+01  1.36591E+01
   1.25645E+01  1.44069E+01  1.94231E+01  2.13847E+01  1.82017E+01  1.47631E+01  9.14583E+00  4.70366E-01 -9.16217E+00 -1.72071E+01
  -2.81751E+01 -3.51057E+01 -3.76598E+01 -3.06324E+01 -1.06771E+01  1.27024E+01  3.61970E+01  4.81312E+01  5.17527E+01  4.72347E+01
   3.33917E+01  2.77431E+01  2.73031E+01  2.81479E+01  3.27336E+01  3.42225E+01  3.27745E+01  2.79754E+01  1.88425E+01  9.01785E+00
  -2.79115E+00 -1.45234E+01 -2.51502E+01 -3.54808E+01 -4.38941E+01 -4.98850E+01 -5.40280E+01 -5.49392E+01 -5.34539E+01 -4.99281E+01
  -4.60768E+01 -4.14685E+01 -3.18280E+01 -2.42585E+01 -1.74241E+01 -1.13237E+01 -1.09538E+01 -1.15821E+01 -1.62692E+01 -2.55429E+01
  -3.88188E+01 -5.04215E+01 -5.23062E+01 -4.30401E+01 -7.58760E+01 -1.25341E+02 -1.16917E+02 -2.74052E+01  7.00221E+01  1.06772E+02
   1.24780E+02  1.34351E+02  1.19593E+02  1.06071E+02  9.88381E+01  9.20315E+01  8.56263E+01  7.83306E+01  7.17678E+01  6.60111E+01
   6.19104E+01  6.04261E+01  6.01011E+01  6.19205E+01  6.37119E+01  6.54633E+01  6.74007E+01  6.79308E+01  6.81660E+01  6.74413E+01
   6.57894E+01  6.40639E+01  6.22168E+01  6.02468E+01  5.81551E+01  5.60877E+01  5.41411E+01  5.20873E+01  4.95976E+01  4.68361E+01
   4.35717E+01  4.00046E+01  3.61254E+01  3.22518E+01  2.92212E+01  2.74331E+01  2.69558E+01  2.75381E+01  2.85965E+01  2.99504E+01
   3.16447E+01  3.35495E+01  3.53273E+01  3.69145E+01  3.83441E+01  3.95369E+01  4.08621E+01  4.25384E+01  4.44704E+01  4.62269E+01
   4.76405E+01  4.89542E+01  5.02502E+01  5.14565E+01  5.24068E+01  5.30907E+01  5.35004E+01  5.31955E+01  5.21693E+01  5.08953E+01
   4.93324E+01  4.73867E+01  4.50962E+01  4.29547E+01  4.05792E+01  3.72011E+01  3.22012E+01  2.54908E+01  1.81275E+01  1.06231E+01
   3.47403E+00 -2.62513E+00 -6.76222E+00 -8.44796E+00 -7.64344E+00 -4.84641E+00 -1.39494E+00  1.82511E+00  4.15228E+00  5.62957E+00
   7.21388E+00  9.39227E+00  1.25840E+01  1.62450E+01  1.98535E+01  2.27579E+01  2.45414E+01  2.60205E+01  2.70901E+01  2.74828E+01
   2.71472E+01  2.58057E+01  2.31523E+01  1.94251E+01  1.56411E+01  1.26742E+01  1.07053E+01  9.87289E+00  1.02658E+01  1.16452E+01
   1.36154E+01  1.63177E+01  1.93295E+01  2.24202E+01  2.53716E+01  2.79707E+01  3.05089E+01  3.29551E+01  3.54439E+01  3.79776E+01
   4.02112E+01  4.25250E+01  4.48383E+01  4.74748E+01  5.03801E+01  5.35330E+01  5.69787E+01  6.10093E+01  6.56687E+01  7.04417E+01
   7.55197E+01  8.15220E+01  8.83340E+01  9.56442E+01  1.02691E+02  1.08758E+02  1.12037E+02  1.11420E+02  1.06645E+02  9.90045E+01
   9.06143E+01  8.26020E+01  7.58379E+01  7.05209E+01  6.62439E+01  6.16127E+01  5.58777E+01  4.91882E+01  4.19535E+01  3.44803E+01
   2.78481E+01  2.25301E+01  1.83430E+01  1.49904E+01  1.27011E+01  1.12704E+01  1.01478E+01  9.13882E+00  8.14318E+00  7.25424E+00
   6.61881E+00  6.30883E+00  6.10529E+00  5.86955E+00  5.78348E+00  5.91519E+00  5.88898E+00  5.50899E+00  5.38921E+00  5.61138E+00
   5.78768E+00  5.61905E+00  5.54354E+00  5.69297E+00  5.63021E+00  5.37381E+00  5.19487E+00  5.29900E+00  5.57392E+00  5.84951E+00
   5.86336E+00  5.76431E+00  5.47272E+00  5.21815E+00  5.11126E+00  5.17804E+00  5.36675E+00  5.45154E+00  5.57572E+00  5.59980E+00
   5.66402E+00  5.73846E+00  5.69803E+00  5.47031E+00  5.15231E+00  5.01614E+00  4.98551E+00  5.07667E+00  5.18800E+00  5.17309E+00
   5.10631E+00  4.85014E+00  4.82094E+00  4.93686E+00  5.05367E+00  5.08881E+00  5.18785E+00  5.16069E+00  5.23313E+00  5.36562E+00
   5.35384E+00  5.18783E+00  4.94535E+00  4.72673E+00  4.50939E+00  4.37007E+00  4.66293E+00  5.13103E+00  5.56244E+00  5.60844E+00
   5.32298E+00  4.94570E+00  4.70008E+00  4.64044E+00  4.65151E+00  4.72549E+00  4.87359E+00  4.74772E+00  4.47464E+00  4.22479E+00
 NY background values follow
     3.422E+01    3.409E+01    3.397E+01    3.384E+01    3.372E+01    3.359E+01    3.347E+01    3.334E+01    3.322E+01    3.310E+01
     3.298E+01    3.285E+01    3.273E+01    3.262E+01    3.250E+01    3.238E+01    3.227E+01    3.215E+01    3.204E+01    3.193E+01
     3.182E+01    3.171E+01    3.161E+01    3.150E+01    3.140E+01    3.130E+01    3.121E+01    3.111E+01    3.102E+01    3.093E+01
     3.084E+01    3.076E+01    3.068E+01    3.060E+01    3.052E+01    3.045E+01    3.038E+01    3.031E+01    3.025E+01    3.018E+01
     3.012E+01    3.007E+01    3.001E+01    2.996E+01    2.991E+01    2.986E+01    2.982E+01    2.977E+01    2.973E+01    2.969E+01
     2.966E+01    2.963E+01    2.960E+01    2.957E+01    2.954E+01    2.952E+01    2.950E+01    2.948E+01    2.946E+01    2.945E+01
     2.943E+01    2.942E+01    2.941E+01    2.941E+01    2.940E+01    2.940E+01    2.940E+01    2.940E+01    2.940E+01    2.940E+01
     2.941E+01    2.941E+01    2.942E+01    2.942E+01    2.943E+01    2.944E+01    2.945E+01    2.945E+01    2.946E+01    2.947E+01
     2.948E+01    2.949E+01    2.949E+01    2.950E+01    2.951E+01    2.951E+01    2.952E+01    2.952E+01    2.952E+01    2.952E+01
     2.952E+01    2.952E+01    2.952E+01    2.951E+01    2.951E+01    2.950E+01    2.949E+01    2.948E+01    2.947E+01    2.945E+01
     2.944E+01    2.942E+01    2.940E+01    2.938E+01    2.936E+01    2.933E+01    2.930E+01    2.927E+01    2.924E+01    2.921E+01
     2.917E+01    2.913E+01    2.909E+01    2.905E+01    2.900E+01    2.896E+01    2.891E+01    2.885E+01    2.880E+01    2.874E+01
     2.868E+01    2.862E+01    2.855E+01    2.849E+01    2.842E+01    2.834E+01    2.827E+01    2.819E+01    2.811E+01    2.803E+01
     2.795E+01    2.786E+01    2.778E+01    2.769E+01    2.759E+01    2.750E+01    2.740E+01    2.731E+01    2.721E+01    2.711E+01
     2.700E+01    2.690E+01    2.679E+01    2.669E+01    2.658E+01    2.647E+01    2.635E+01    2.624E+01    2.613E+01    2.601E+01
     2.589E+01    2.577E+01    2.565E+01    2.553E+01    2.541E+01    2.529E+01    2.517E+01    2.504E+01    2.492E+01    2.479E+01
     2.466E+01    2.454E+01    2.441E+01    2.428E+01    2.416E+01    2.403E+01    2.390E+01    2.377E+01    2.365E+01    2.352E+01
     2.339E+01    2.326E+01    2.314E+01    2.301E+01    2.289E+01    2.276E+01    2.264E+01    2.251E+01    2.239E+01    2.227E+01
     2.215E+01    2.203E+01    2.191E+01    2.179E+01    2.167E+01    2.156E+01    2.144E+01    2.133E+01    2.122E+01    2.111E+01
     2.100E+01    2.089E+01    2.078E+01    2.067E+01    2.056E+01    2.046E+01    2.036E+01    2.025E+01    2.015E+01    2.005E+01
     1.995E+01    1.985E+01    1.976E+01    1.966E+01    1.956E+01    1.947E+01    1.938E+01    1.929E+01    1.920E+01    1.911E+01
     1.902E+01    1.893E+01    1.885E+01    1.876E+01    1.868E+01    1.859E+01    1.851E+01    1.843E+01    1.835E+01    1.826E+01
     1.818E+01    1.810E+01    1.801E+01    1.793E+01    1.785E+01    1.776E+01    1.768E+01    1.759E+01    1.750E+01    1.741E+01
     1.732E+01    1.723E+01    1.714E+01    1.704E+01    1.695E+01    1.685E+01    1.675E+01    1.664E+01    1.654E+01    1.643E+01
     1.632E+01    1.620E+01    1.609E+01    1.597E+01    1.584E+01    1.572E+01    1.559E+01    1.545E+01    1.532E+01    1.517E+01
     1.503E+01    1.488E+01    1.473E+01    1.457E+01    1.441E+01    1.424E+01    1.407E+01    1.389E+01    1.371E+01    1.352E+01
     1.333E+01    1.313E+01    1.293E+01    1.272E+01    1.250E+01    1.228E+01    1.206E+01    1.182E+01    1.158E+01    1.134E+01
     1.108E+01    1.083E+01    1.056E+01    1.029E+01    1.001E+01    9.735E+00    9.452E+00    9.165E+00    8.876E+00    8.584E+00
     8.291E+00    7.997E+00    7.702E+00    7.407E+00    7.112E+00    6.818E+00    6.526E+00    6.236E+00    5.948E+00    5.663E+00
     5.382E+00    5.105E+00    4.833E+00    4.565E+00    4.304E+00    4.048E+00    3.800E+00    3.558E+00    3.325E+00    3.099E+00
     2.882E+00    2.675E+00    2.477E+00    2.288E+00    2.110E+00    1.941E+00    1.782E+00    1.634E+00    1.496E+00    1.368E+00
     1.252E+00    1.146E+00    1.052E+00    9.698E-01    8.989E-01    8.398E-01    7.927E-01    7.579E-01    7.355E-01    7.257E-01
     7.287E-01    7.448E-01    7.740E-01    8.167E-01    8.729E-01    9.429E-01    1.027E+00    1.125E+00    1.238E+00    1.365E+00
     1.506E+00    1.662E+00    1.832E+00    2.015E+00    2.211E+00    2.418E+00    2.636E+00    2.865E+00    3.104E+00    3.353E+00
     3.610E+00    3.874E+00    4.147E+00    4.426E+00    4.711E+00    5.001E+00    5.297E+00    5.596E+00    5.900E+00    6.206E+00
     6.514E+00    6.824E+00    7.135E+00    7.447E+00    7.758E+00    8.068E+00    8.377E+00    8.684E+00    8.988E+00    9.288E+00
     9.585E+00    9.877E+00    1.016E+01    1.045E+01    1.073E+01    1.100E+01    1.127E+01    1.153E+01    1.179E+01    1.204E+01
     1.228E+01    1.252E+01    1.276E+01    1.298E+01    1.320E+01    1.342E+01    1.362E+01    1.382E+01    1.401E+01    1.420E+01
     1.438E+01    1.455E+01    1.471E+01    1.486E+01    1.501E+01    1.515E+01    1.527E+01    1.539E+01    1.551E+01    1.561E+01
     1.570E+01    1.578E+01    1.586E+01    1.592E+01    1.598E+01    1.603E+01    1.607E+01    1.610E+01    1.613E+01    1.614E+01
     1.615E+01    1.615E+01    1.615E+01    1.613E+01    1.611E+01    1.608E+01    1.605E+01    1.601E+01    1.596E+01    1.591E+01
     1.585E+01    1.578E+01    1.571E+01    1.563E+01    1.555E+01    1.546E+01    1.536E+01    1.527E+01    1.516E+01    1.505E+01
     1.494E+01    1.482E+01    1.470E+01    1.457E+01    1.444E+01    1.431E+01    1.417E+01    1.403E+01    1.389E+01    1.374E+01
     1.359E+01    1.344E+01    1.328E+01    1.313E+01    1.297E+01    1.280E+01    1.264E+01    1.247E+01    1.230E+01    1.213E+01
     1.196E+01    1.179E+01    1.162E+01    1.144E+01    1.127E+01    1.110E+01    1.092E+01    1.074E+01    1.057E+01    1.039E+01
     1.022E+01    1.004E+01    9.868E+00    9.694E+00    9.520E+00    9.346E+00    9.172E+00    8.999E+00    8.825E+00    8.652E+00
     8.479E+00    8.306E+00    8.133E+00    7.961E+00    7.788E+00    7.616E+00    7.443E+00    7.271E+00    7.099E+00    6.926E+00
     6.754E+00    6.582E+00    6.409E+00    6.237E+00    6.065E+00    5.892E+00    5.719E+00    5.547E+00    5.374E+00    5.201E+00
 Mac      Conc. = 2.12E-04
   1.92867E+01  1.89957E+01  1.87838E+01  1.86416E+01  1.82880E+01  1.74083E+01  1.59610E+01  1.41950E+01  1.25943E+01  1.14481E+01
   1.09341E+01  1.09179E+01  1.08985E+01  1.01646E+01  8.18767E+00  5.50669E+00  4.38017E+00  5.74449E+00  8.57060E+00  1.15995E+01
   1.47094E+01  1.80813E+01  2.02368E+01  2.11794E+01  2.19531E+01  2.27013E+01  2.36143E+01  2.49173E+01  2.65230E+01  2.79237E+01
   2.90725E+01  3.01134E+01  3.07589E+01  3.05462E+01  2.97268E+01  2.92502E+01  2.99016E+01  3.17702E+01  3.36976E+01  3.45822E+01
   3.45592E+01  3.43357E+01  3.47086E+01  3.55745E+01  3.67398E+01  3.76785E+01  3.80130E+01  3.78757E+01  3.70866E+01  3.59712E+01
   3.48540E+01  3.38622E+01  3.29974E+01  3.22029E+01  3.16388E+01  3.13418E+01  3.16529E+01  3.24541E+01  3.32737E+01  3.43758E+01
   3.58009E+01  3.70604E+01  3.74643E+01  3.71707E+01  3.66121E+01  3.58613E+01  3.52221E+01  3.44382E+01  3.34714E+01  3.32804E+01
   3.44920E+01  3.64972E+01  3.85601E+01  4.01157E+01  4.12726E+01  4.16821E+01  4.13419E+01  4.07688E+01  4.00331E+01  3.94612E+01
   3.88961E+01  3.83496E+01  3.82703E+01  3.86277E+01  3.91281E+01  3.96869E+01  4.03721E+01  4.10353E+01  4.15509E+01  4.19768E+01
   4.24986E+01  4.29594E+01  4.34354E+01  4.37048E+01  4.33642E+01  4.21953E+01  4.04872E+01  3.85069E+01  3.66659E+01  3.53115E+01
   3.42002E+01  3.30435E+01  3.16196E+01  2.97544E+01  2.64674E+01  2.13002E+01  1.51842E+01  9.65266E+00  6.13827E+00  4.64855E+00
