 LCModel (Version 6.3-1N) Copyright: S.W. Provencher.          Ref.: Magn. Reson. Med. 30:672-679 (1993).                
 Slice_N1@18_8  28-Feb-2025 11:42:40
 27 lines in following concentration table = NCONC+1
    Conc.  %SD /Cr+PCr  Metabolite                                         
 2.82E-04   5% 6.1E-04 Mac                                                 
    0.000 999%   0.000 Cr                                                  
    3.670  19%   8.000 PCr                                                 
    3.364  27%   7.333 Ins                                                 
    0.724 129%   1.579 NAA                                                 
    4.476  23%   9.758 Tau                                                 
    0.000 999%   0.000 PCho                                                
    0.234 125%   0.510 GPC                                                 
    5.665  19%  12.348 Glu                                                 
    5.251  15%  11.447 Gln                                                 
    2.697  30%   5.878 Ala                                                 
    0.000 999%   0.000 Asc                                                 
    1.062  53%   2.316 Asp                                                 
    0.000 999%   0.000 GABA                                                
    0.267 132%   0.582 Glc                                                 
 4.97E-03 999% 1.1E-02 GSH                                                 
    2.458  31%   5.357 Lac                                                 
    6.680  12%  14.561 NAAG                                                
    0.875 125%   1.908 PE                                                  
    0.234 125%   0.510 GPC+PCho                                            
    7.404  12%  16.140 NAA+NAAG                                            
   10.916  12%  23.796 Glu+Gln                                             
    3.670  19%   8.000 Cr+PCr                                              
    7.404  12%  16.140 NAA+NAAG                                            
    3.670  19%   8.000 Cr+PCr                                              
   10.916  12%  23.796 Glu+Gln                                             
   6 lines in following misc. output table
  FWHM = 0.049 ppm    S/N =   3                                            
  Data shift =-0.033 ppm                                                   
  Ph: 175 deg       0.0 deg/ppm                                            
  alphaB,S = 1.7E-01,   1.3E+01                                            
   19 spline knots.   Ns = 9(1)                                            
  (10) 5 infls.   (12) 2 extrs.                                            
  480 points on ppm-axis = NY
      4.100000     4.091866     4.083733     4.075600     4.067466     4.059333     4.051199     4.043066     4.034933     4.026799
      4.018666     4.010532     4.002399     3.994265     3.986132     3.977998     3.969864     3.961731     3.953597     3.945463
      3.937330     3.929196     3.921062     3.912929     3.904795     3.896662     3.888528     3.880394     3.872261     3.864127
      3.855993     3.847860     3.839726     3.831592     3.823459     3.815325     3.807191     3.799058     3.790924     3.782790
      3.774657     3.766523     3.758389     3.750256     3.742122     3.733989     3.725855     3.717721     3.709588     3.701454
      3.693320     3.685187     3.677053     3.668919     3.660786     3.652652     3.644518     3.636385     3.628251     3.620117
      3.611984     3.603850     3.595716     3.587583     3.579449     3.571316     3.563182     3.555048     3.546915     3.538781
      3.530647     3.522514     3.514380     3.506246     3.498113     3.489979     3.481845     3.473712     3.465578     3.457444
      3.449311     3.441177     3.433043     3.424910     3.416776     3.408643     3.400509     3.392375     3.384242     3.376108
      3.367974     3.359841     3.351707     3.343573     3.335440     3.327306     3.319172     3.311039     3.302905     3.294771
      3.286638     3.278504     3.270370     3.262237     3.254103     3.245970     3.237836     3.229702     3.221569     3.213435
      3.205301     3.197168     3.189034     3.180900     3.172767     3.164633     3.156499     3.148366     3.140232     3.132098
      3.123965     3.115831     3.107697     3.099564     3.091430     3.083297     3.075163     3.067029     3.058896     3.050762
      3.042628     3.034495     3.026361     3.018227     3.010094     3.001960     2.993826     2.985693     2.977559     2.969425
      2.961292     2.953158     2.945024     2.936891     2.928757     2.920624     2.912490     2.904356     2.896223     2.888089
      2.879955     2.871822     2.863688     2.855554     2.847421     2.839287     2.831153     2.823020     2.814886     2.806752
      2.798619     2.790485     2.782351     2.774218     2.766084     2.757951     2.749817     2.741683     2.733550     2.725416
      2.717282     2.709149     2.701015     2.692881     2.684748     2.676614     2.668480     2.660347     2.652213     2.644079
      2.635946     2.627812     2.619678     2.611545     2.603411     2.595278     2.587144     2.579010     2.570877     2.562743
      2.554609     2.546476     2.538342     2.530208     2.522075     2.513941     2.505807     2.497674     2.489540     2.481406
      2.473273     2.465139     2.457006     2.448872     2.440738     2.432605     2.424471     2.416337     2.408204     2.400070
      2.391936     2.383803     2.375669     2.367535     2.359402     2.351268     2.343134     2.335001     2.326867     2.318733
      2.310600     2.302466     2.294333     2.286199     2.278065     2.269932     2.261798     2.253664     2.245531     2.237397
      2.229263     2.221130     2.212996     2.204862     2.196729     2.188595     2.180461     2.172328     2.164194     2.156060
      2.147927     2.139793     2.131660     2.123526     2.115392     2.107259     2.099125     2.090991     2.082858     2.074724
      2.066590     2.058457     2.050323     2.042189     2.034056     2.025922     2.017788     2.009655     2.001521     1.993387
      1.985254     1.977120     1.968987     1.960853     1.952719     1.944586     1.936452     1.928318     1.920185     1.912051
      1.903917     1.895784     1.887650     1.879516     1.871383     1.863249     1.855115     1.846982     1.838848     1.830714
      1.822581     1.814447     1.806314     1.798180     1.790046     1.781913     1.773779     1.765645     1.757512     1.749378
      1.741244     1.733111     1.724977     1.716843     1.708710     1.700576     1.692442     1.684309     1.676175     1.668041
      1.659908     1.651774     1.643641     1.635507     1.627373     1.619240     1.611106     1.602972     1.594839     1.586705
      1.578571     1.570438     1.562304     1.554170     1.546037     1.537903     1.529769     1.521636     1.513502     1.505368
      1.497235     1.489101     1.480968     1.472834     1.464700     1.456567     1.448433     1.440299     1.432166     1.424032
      1.415898     1.407765     1.399631     1.391497     1.383364     1.375230     1.367096     1.358963     1.350829     1.342695
      1.334562     1.326428     1.318295     1.310161     1.302027     1.293894     1.285760     1.277626     1.269493     1.261359
      1.253225     1.245092     1.236958     1.228824     1.220691     1.212557     1.204423     1.196290     1.188156     1.180022
      1.171889     1.163755     1.155622     1.147488     1.139354     1.131221     1.123087     1.114953     1.106820     1.098686
      1.090552     1.082419     1.074285     1.066151     1.058018     1.049884     1.041750     1.033617     1.025483     1.017349
      1.009216     1.001082     0.992949     0.984815     0.976681     0.968548     0.960414     0.952280     0.944147     0.936013
      0.927879     0.919746     0.911612     0.903478     0.895345     0.887211     0.879077     0.870944     0.862810     0.854676
      0.846543     0.838409     0.830276     0.822142     0.814008     0.805875     0.797741     0.789607     0.781474     0.773340
      0.765206     0.757073     0.748939     0.740805     0.732672     0.724538     0.716404     0.708271     0.700137     0.692003
      0.683870     0.675736     0.667603     0.659469     0.651335     0.643202     0.635068     0.626934     0.618801     0.610667
      0.602533     0.594400     0.586266     0.578132     0.569999     0.561865     0.553731     0.545598     0.537464     0.529330
      0.521197     0.513063     0.504930     0.496796     0.488662     0.480529     0.472395     0.464261     0.456128     0.447994
      0.439861     0.431727     0.423593     0.415460     0.407326     0.399192     0.391059     0.382925     0.374792     0.366658
      0.358524     0.350391     0.342257     0.334124     0.325990     0.317856     0.309723     0.301589     0.293455     0.285322
      0.277188     0.269055     0.260921     0.252787     0.244654     0.236520     0.228386     0.220253     0.212119     0.203986
 NY phased data points follow
  -6.04427E+01 -9.48811E+01 -6.68112E+01 -4.86431E+01 -5.67461E+01 -5.70703E+01 -8.19841E+01 -6.55047E+01 -5.65206E+01 -7.00931E+01
  -7.81892E+01 -8.08906E+01 -5.42559E+01 -7.14952E+01 -9.29374E+01 -7.49455E+01 -8.63859E+01 -9.29479E+01 -9.35291E+01 -1.08160E+02
  -9.93574E+01 -9.15741E+01 -8.29273E+01 -5.26629E+01 -6.72771E+01 -5.63602E+01 -4.54087E+01 -4.91710E+01 -1.30338E+01 -4.22361E+01
  -4.11983E+01 -2.36096E+01 -3.07908E+01 -2.19588E+01 -4.44925E+01 -3.89443E+01 -4.98021E+01 -5.77583E+01 -4.23003E+01 -7.20396E+01
  -7.05829E+01 -5.10513E+01 -7.36691E+01 -6.98889E+01 -6.08386E+01 -3.69108E+01 -2.57200E+01 -3.39450E+01 -2.14003E+01 -1.85806E+01
   1.08780E+00 -1.83624E+01  1.21618E+01  4.36582E+00 -3.25430E+01  1.14599E+01 -1.18785E+01  4.47527E+00 -1.35955E+01 -2.88015E+01
   6.05067E-01 -4.48397E+00  5.71166E+00  3.50695E+00  7.83420E+00 -1.55691E+01 -1.54961E+01 -5.86951E+00 -1.03501E+01 -1.24078E+01
  -1.06082E+01 -1.89757E+01 -1.20563E+01  1.07730E+01 -2.16123E+01 -2.06057E+01 -6.30248E+00  1.91116E+01  4.19288E+00 -1.23328E+01
   4.23036E+00 -9.59571E+00  5.52295E+00  5.29690E+00  8.10219E+00  3.35191E+00 -8.83089E+00 -1.87081E+01 -1.29493E+01 -5.14186E+00
  -1.54004E+00  1.34910E+01  1.13249E+01  2.18415E+01  2.16885E+01  4.43206E+01  3.82657E+01  4.47982E+01  6.15160E+01  4.35509E+01
   4.55395E+01  4.17831E+01  3.99759E+01  2.27937E+01  1.70559E+01 -1.39691E+01 -2.71727E+01 -4.29368E+01 -5.81956E+01 -6.07032E+01
  -8.05027E+01 -6.96093E+01 -1.06661E+02 -6.96049E+01 -5.27956E+01 -6.27146E+01 -4.74993E+01 -8.01113E+01 -3.18321E+01 -3.58701E+01
  -6.34182E+01 -2.17642E+01 -8.26352E+00 -1.77215E+01  4.93511E+00  2.01412E+01  2.37264E+01  4.06246E+01  4.37549E+01  4.29287E+01
   3.48144E+00  6.29790E-01 -1.54027E+01 -4.30665E+01 -4.95245E+01 -9.50186E+01 -7.85741E+01 -5.46543E+01 -6.40505E+01 -8.98362E+01
  -1.07027E+02 -9.45000E+01 -9.76433E+01 -8.59081E+01 -8.29913E+01 -8.83105E+01 -7.69111E+01 -7.94371E+01 -8.36700E+01 -6.76036E+01
  -5.53167E+01 -5.84080E+01 -5.44027E+01 -4.99284E+01 -6.64357E+01 -6.08740E+01 -3.96389E+01 -3.35928E+01 -2.52621E+01 -3.44890E+01
  -2.35777E+01 -3.10784E+01 -5.22190E+01 -1.62779E+01 -2.50289E+01 -3.89607E+01 -1.94213E+01 -1.24391E+01 -2.50143E+01 -3.51760E+01
  -9.57866E+00 -2.61667E+01 -1.99167E+01  5.70169E+00 -1.09021E+01 -7.25066E+00 -1.51158E+01 -1.67855E+01 -1.64776E+01 -2.62196E+01
  -4.03738E+01 -4.54204E+01 -4.09055E+01 -6.44870E+01 -7.15964E+01 -6.75878E+01 -6.68457E+01 -5.29115E+01 -4.61617E+01 -5.32426E+01
  -6.68239E+01 -6.37010E+01 -5.09618E+01 -5.60279E+01 -4.15195E+01 -2.99505E+01 -2.72677E+01 -3.05227E+01 -5.05360E+01 -2.06581E+01
  -1.50775E+01 -2.83238E+01 -3.38672E+01 -2.97042E+01 -3.83642E+01 -5.79086E+01 -2.75030E+01 -4.53408E+01 -4.03280E+01 -4.63564E+01
  -4.41332E+01 -2.12315E+01 -5.05983E+01 -1.61674E+01 -1.65773E+01 -1.59300E+01  4.25942E+00  5.61641E+00  1.31313E+01 -1.93960E-01
   1.04626E+01  1.92468E+01 -1.05504E+00 -1.27486E+01  2.50129E+00 -1.50090E+01 -3.37107E+01 -2.77719E+01 -1.60248E+01 -4.06035E+01
  -5.02974E+01 -2.74059E+01 -5.16084E+01 -4.08897E+01 -5.51943E+01 -7.31306E+01 -5.98286E+01 -6.73971E+01 -7.91035E+01 -9.74230E+01
  -1.02793E+02 -8.79547E+01 -7.39404E+01 -8.24439E+01 -5.00931E+01 -5.79186E+01 -7.55438E+01 -5.34237E+01 -6.47601E+01 -6.83340E+01
  -6.65959E+01 -6.12468E+01 -9.53209E+01 -8.29983E+01 -5.46613E+01 -7.04934E+01 -3.47810E+01 -9.94720E+00  2.65732E+01  8.33145E+01
   1.02492E+02  9.81914E+01  7.62832E+01  8.00517E+01  1.01523E+02  1.03703E+02  9.80018E+01  8.41223E+01  8.80506E+01  6.51432E+01
   4.40176E+01  5.23063E+01  3.30527E+01  4.98281E+01  6.62312E+01  5.60708E+01  3.70909E+01  2.45599E+01  3.48133E+01  3.96328E+01
   2.72065E+01  4.05898E+01  4.04521E+01  8.93984E+00  5.61022E+01  4.48665E+01  8.73247E+00  9.95415E+00  1.62486E+01  3.96982E+01
   8.85618E+00  1.64265E+01  1.92161E+01  1.55409E+01  7.59050E+00  1.21149E+01  1.89882E+01 -5.90122E+00  2.76920E+01  1.74518E+01
  -1.80237E-01 -2.88036E+00  3.42887E+00  2.13265E+01  3.15580E+01  5.43882E+01  3.60913E+01  4.22842E+01  5.47775E+01  4.51329E+01
   3.34526E+01  5.54646E+01  7.03073E+01  4.39863E+01  6.93162E+01  8.76830E+01  1.12324E+02  1.42565E+02  1.22001E+02  1.12361E+02
   1.25141E+02  1.46674E+02  1.29393E+02  9.59970E+01  8.54756E+01  6.10345E+01  5.43721E+01  3.49501E+01  1.68521E-01  4.84640E+00
   1.12034E+01  1.21946E+01  2.43608E+00 -6.65832E+00  2.66926E+00  1.42796E+00  1.89998E+01  2.38221E+01 -4.41985E-01  8.33623E+00
  -2.97770E+00  5.14234E+00  1.83847E+01  3.38675E+00  1.96805E+01  1.39656E+01  2.16453E+01  1.49417E+01  6.55901E+00  2.52928E+01
   2.02800E+01  1.23770E+01  7.62881E+00  1.36056E+01  9.94955E-01  2.11975E+00 -1.28246E-01 -1.39034E+01 -3.32837E+01 -2.76159E+01
  -9.56079E+00 -3.32204E+01 -2.78172E+01 -1.61581E+01 -1.12327E+00 -6.45830E+00  6.55731E+00  8.28786E+00 -1.40565E+01  2.00790E+01
   2.51016E+01  7.39453E+00  7.75755E+00  3.30178E+01  2.89217E+01  2.67224E+01  3.37340E+01  4.20676E+01  4.78814E+01  4.48835E+01
   5.74804E+01  4.08090E+01  5.79041E+01  6.22471E+01  8.14794E+01  8.10052E+01  8.85735E+01  1.21834E+02  9.06960E+01  1.10857E+02
   9.03246E+01  5.98962E+01  6.21468E+01  6.40873E+01  5.73881E+01  5.87074E+01  5.71637E+01  3.74911E+01  4.73788E+01  9.07771E-01
   1.62798E+01  1.17916E+01 -2.66631E+01 -1.34030E+01 -4.01543E+01 -3.84360E+01 -2.52317E+01 -2.86204E+01 -4.72389E+01 -1.85812E+01
  -2.01075E+01 -7.44296E+01 -7.18084E+01 -6.23456E+01 -5.41952E+01 -4.21611E+01 -5.83413E+01 -6.89101E+01 -4.58615E+01 -4.52047E+01
  -5.07104E+01 -4.96039E+01 -2.32994E+01 -1.66412E+01 -4.52785E+01 -4.28637E+01 -4.30916E+01 -3.45042E+01 -2.36381E+01 -3.52575E+01
  -5.18081E+01 -2.80424E+01 -2.94465E+01 -4.44941E+01 -3.25503E+01 -3.95588E+01 -2.96970E+01 -4.08971E+01 -4.11900E+01 -2.42161E+01
  -4.44275E+01 -5.06317E+01 -4.50483E+01 -5.54866E+01 -2.94381E+01 -2.79291E+01 -5.08073E+01 -4.13638E+01 -3.85662E+01 -3.02013E+01
  -4.83861E+01 -2.74034E+01 -3.21047E+01 -5.46615E+01 -3.45012E+01 -4.04506E+01 -2.86503E+01 -3.56074E+01 -1.54684E+01 -1.87365E+01
  -4.08911E+01 -2.68834E+01 -2.50654E+01 -3.39241E+01 -4.68103E+01 -2.06631E+01 -2.64712E+01 -4.11242E+01 -3.54951E+01 -2.08764E+01
  -2.04254E+01 -4.64775E+01 -3.18444E+01 -2.39389E+01 -3.42607E+01 -2.86083E+01 -2.42882E+01 -1.85028E+01 -4.72082E+00 -1.58174E+01
 NY points of the fit to the data follow
  -7.98590E+01 -7.46377E+01 -6.99346E+01 -6.65574E+01 -6.48178E+01 -6.45561E+01 -6.49287E+01 -6.57923E+01 -6.59727E+01 -6.45155E+01
  -6.27634E+01 -6.63529E+01 -7.33311E+01 -8.05447E+01 -8.60836E+01 -8.88042E+01 -9.07884E+01 -9.35876E+01 -9.55593E+01 -9.43087E+01
  -9.01066E+01 -8.42261E+01 -7.60490E+01 -6.57225E+01 -5.43743E+01 -4.50558E+01 -4.05076E+01 -3.83295E+01 -3.48414E+01 -3.00529E+01
  -2.57705E+01 -2.16337E+01 -1.77143E+01 -1.66720E+01 -1.86868E+01 -2.29916E+01 -2.87405E+01 -3.44351E+01 -3.95895E+01 -4.47275E+01
  -5.02424E+01 -5.56694E+01 -5.98021E+01 -6.13725E+01 -5.87652E+01 -5.20206E+01 -4.27535E+01 -3.22729E+01 -2.27552E+01 -1.59109E+01
  -1.07684E+01 -6.62785E+00 -5.70582E+00 -5.35164E+00 -5.38957E+00 -7.26169E+00 -9.76943E+00 -1.20318E+01 -1.44720E+01 -1.67962E+01
  -1.75128E+01 -1.67775E+01 -1.67946E+01 -1.71136E+01 -1.63889E+01 -1.50364E+01 -1.31368E+01 -1.14739E+01 -1.07074E+01 -1.03462E+01
  -1.08272E+01 -1.24845E+01 -1.32688E+01 -1.33051E+01 -1.03378E+01 -6.12030E+00 -9.97817E-01  3.03947E+00  4.66422E+00  5.66008E+00
   6.39827E+00  5.13737E+00  1.82212E+00 -2.71696E+00 -8.22083E+00 -1.43070E+01 -1.90270E+01 -2.13865E+01 -2.12356E+01 -1.84036E+01
  -1.37800E+01 -8.03588E+00 -3.34955E+00  1.29037E+00  7.29609E+00  1.34103E+01  2.06747E+01  2.65987E+01  3.01109E+01  3.09817E+01
   3.09552E+01  3.01656E+01  2.66355E+01  1.96794E+01  9.11098E+00 -4.74819E+00 -1.97929E+01 -3.53164E+01 -4.97165E+01 -6.09492E+01
  -6.82958E+01 -7.24944E+01 -7.42479E+01 -7.37292E+01 -7.23962E+01 -6.84982E+01 -6.36261E+01 -5.75906E+01 -5.12420E+01 -4.51404E+01
  -4.15142E+01 -3.38872E+01 -1.95187E+01 -4.20518E+00  8.91083E+00  1.82304E+01  2.35043E+01  2.76919E+01  3.19797E+01  3.29143E+01
   2.78375E+01  1.86374E+01  6.35851E+00 -9.11407E+00 -2.69522E+01 -4.48644E+01 -5.73169E+01 -6.23274E+01 -6.50907E+01 -6.96247E+01
  -7.21181E+01 -7.20792E+01 -7.16592E+01 -7.09805E+01 -7.01191E+01 -6.90600E+01 -6.77404E+01 -6.60123E+01 -6.38686E+01 -6.14348E+01
  -5.89563E+01 -5.69167E+01 -5.54761E+01 -5.42265E+01 -5.26545E+01 -5.09121E+01 -4.92416E+01 -4.84793E+01 -4.81226E+01 -4.74052E+01
  -4.57910E+01 -4.41404E+01 -4.39104E+01 -4.42368E+01 -4.35515E+01 -4.07381E+01 -3.67888E+01 -3.29797E+01 -3.00943E+01 -2.80012E+01
  -2.57793E+01 -2.34883E+01 -2.17527E+01 -2.05702E+01 -1.99793E+01 -2.02717E+01 -2.25188E+01 -2.67016E+01 -3.16077E+01 -3.53523E+01
  -3.77058E+01 -3.98427E+01 -4.31400E+01 -4.58364E+01 -4.71631E+01 -4.87916E+01 -4.95947E+01 -5.02200E+01 -5.02790E+01 -4.94460E+01
  -4.85761E+01 -4.70128E+01 -4.52695E+01 -4.29943E+01 -4.10328E+01 -4.02581E+01 -4.03939E+01 -4.08646E+01 -4.09479E+01 -3.98730E+01
  -3.86959E+01 -3.77595E+01 -3.59013E+01 -3.42869E+01 -3.33105E+01 -3.18140E+01 -3.18720E+01 -3.06645E+01 -3.02648E+01 -3.14866E+01
  -3.27388E+01 -3.43577E+01 -3.59574E+01 -3.70287E+01 -3.60360E+01 -3.23343E+01 -2.60806E+01 -1.79271E+01 -9.49319E+00 -1.73646E+00
   4.95419E+00  9.51047E+00  1.23697E+01  1.44878E+01  1.45337E+01  1.18796E+01  8.48677E+00 -6.30670E-01 -1.19342E+01 -2.42517E+01
  -3.78346E+01 -5.07364E+01 -6.17909E+01 -7.26674E+01 -8.26174E+01 -8.98823E+01 -9.44605E+01 -9.48912E+01 -9.09733E+01 -8.42339E+01
  -7.67783E+01 -6.85597E+01 -6.09820E+01 -5.26663E+01 -4.23693E+01 -4.74439E+01 -5.98618E+01 -6.76287E+01 -7.14734E+01 -7.19433E+01
  -7.14194E+01 -7.39739E+01 -7.78589E+01 -7.49091E+01 -6.39736E+01 -4.87326E+01 -2.58718E+01  3.13927E+00  3.46854E+01  6.12095E+01
   7.43616E+01  7.79109E+01  8.21235E+01  8.73658E+01  8.41623E+01  7.96722E+01  7.51861E+01  7.08663E+01  6.60090E+01  6.12435E+01
   5.70405E+01  5.33275E+01  5.02926E+01  4.82676E+01  4.72537E+01  4.70846E+01  4.76982E+01  4.88801E+01  5.04635E+01  5.22777E+01
   5.40270E+01  5.54697E+01  5.64433E+01  5.67186E+01  5.62583E+01  5.49518E+01  5.27257E+01  4.96995E+01  4.62454E+01  4.24731E+01
   3.82780E+01  3.39515E+01  2.97960E+01  2.61175E+01  2.32308E+01  2.13297E+01  2.04196E+01  2.04783E+01  2.14577E+01  2.30935E+01
   2.53485E+01  2.79907E+01  3.07910E+01  3.37139E+01  3.67805E+01  3.98241E+01  4.29457E+01  4.62836E+01  4.97417E+01  5.31541E+01
   5.65988E+01  5.98540E+01  6.27457E+01  6.61469E+01  7.20624E+01  7.76353E+01  8.39921E+01  8.90962E+01  9.10010E+01  9.08444E+01
   8.93543E+01  8.60689E+01  8.06048E+01  7.24502E+01  6.08099E+01  4.59337E+01  2.99233E+01  1.39122E+01 -2.24621E-01 -1.06869E+01
  -1.83726E+01 -2.38449E+01 -2.54019E+01 -2.38725E+01 -2.08850E+01 -1.41837E+01 -7.60983E+00 -2.34242E+00  2.43971E+00  7.00334E+00
   1.10362E+01  1.44672E+01  1.68973E+01  1.73346E+01  1.57501E+01  1.27251E+01  8.77533E+00  5.50656E+00  3.60351E+00  2.37526E+00
   1.29279E+00  6.64402E-02 -2.61141E+00 -5.91676E+00 -8.86501E+00 -1.18493E+01 -1.43159E+01 -1.59128E+01 -1.64490E+01 -1.60261E+01
  -1.47584E+01 -1.27123E+01 -1.01248E+01 -7.32853E+00 -4.59333E+00 -1.86268E+00  7.34419E-01  3.01874E+00  5.10028E+00  7.14721E+00
   9.13245E+00  1.10640E+01  1.31620E+01  1.54853E+01  1.83764E+01  2.23873E+01  2.77247E+01  3.47324E+01  4.33756E+01  5.32157E+01
   6.36218E+01  7.40709E+01  8.39955E+01  9.28772E+01  1.00501E+02  1.06354E+02  1.09779E+02  1.10437E+02  1.08377E+02  1.03588E+02
   9.65745E+01  8.81887E+01  7.92919E+01  7.02428E+01  6.11312E+01  5.18178E+01  4.23176E+01  3.26469E+01  2.29732E+01  1.34754E+01
   4.56769E+00 -3.52169E+00 -1.05610E+01 -1.64020E+01 -2.11202E+01 -2.49688E+01 -2.80371E+01 -3.03320E+01 -3.22321E+01 -3.38644E+01
  -3.52162E+01 -3.62379E+01 -3.69923E+01 -3.75261E+01 -3.79375E+01 -3.82640E+01 -3.85038E+01 -3.86963E+01 -3.88758E+01 -3.90607E+01
  -3.91953E+01 -3.91508E+01 -3.90347E+01 -3.89884E+01 -3.90966E+01 -3.91149E+01 -3.90608E+01 -3.90561E+01 -3.90419E+01 -3.89340E+01
  -3.87952E+01 -3.87135E+01 -3.86544E+01 -3.85823E+01 -3.84426E+01 -3.82458E+01 -3.80744E+01 -3.78566E+01 -3.76368E+01 -3.74167E+01
  -3.71675E+01 -3.70062E+01 -3.68960E+01 -3.68570E+01 -3.68126E+01 -3.68020E+01 -3.67175E+01 -3.65654E+01 -3.63710E+01 -3.62050E+01
  -3.60204E+01 -3.57737E+01 -3.55124E+01 -3.52261E+01 -3.49137E+01 -3.46289E+01 -3.43768E+01 -3.42395E+01 -3.40810E+01 -3.38906E+01
  -3.36315E+01 -3.33603E+01 -3.31788E+01 -3.30437E+01 -3.28787E+01 -3.26728E+01 -3.23992E+01 -3.20391E+01 -3.16848E+01 -3.14230E+01
  -3.12163E+01 -3.12469E+01 -3.14327E+01 -3.16159E+01 -3.17336E+01 -3.17914E+01 -3.18864E+01 -3.19578E+01 -3.19415E+01 -3.18586E+01
 NY background values follow
    -5.234E+01   -5.185E+01   -5.135E+01   -5.086E+01   -5.037E+01   -4.988E+01   -4.939E+01   -4.890E+01   -4.840E+01   -4.791E+01
    -4.742E+01   -4.693E+01   -4.643E+01   -4.594E+01   -4.545E+01   -4.495E+01   -4.446E+01   -4.396E+01   -4.347E+01   -4.297E+01
    -4.247E+01   -4.198E+01   -4.148E+01   -4.098E+01   -4.048E+01   -3.998E+01   -3.948E+01   -3.897E+01   -3.847E+01   -3.797E+01
    -3.746E+01   -3.696E+01   -3.645E+01   -3.594E+01   -3.543E+01   -3.493E+01   -3.442E+01   -3.391E+01   -3.341E+01   -3.290E+01
    -3.240E+01   -3.189E+01   -3.139E+01   -3.089E+01   -3.040E+01   -2.990E+01   -2.941E+01   -2.892E+01   -2.843E+01   -2.795E+01
    -2.747E+01   -2.700E+01   -2.653E+01   -2.606E+01   -2.560E+01   -2.514E+01   -2.469E+01   -2.424E+01   -2.380E+01   -2.337E+01
    -2.294E+01   -2.252E+01   -2.210E+01   -2.169E+01   -2.129E+01   -2.089E+01   -2.050E+01   -2.012E+01   -1.975E+01   -1.938E+01
    -1.902E+01   -1.867E+01   -1.833E+01   -1.799E+01   -1.767E+01   -1.735E+01   -1.704E+01   -1.674E+01   -1.644E+01   -1.616E+01
    -1.588E+01   -1.562E+01   -1.536E+01   -1.512E+01   -1.488E+01   -1.465E+01   -1.444E+01   -1.423E+01   -1.403E+01   -1.385E+01
    -1.367E+01   -1.351E+01   -1.335E+01   -1.321E+01   -1.307E+01   -1.294E+01   -1.283E+01   -1.272E+01   -1.262E+01   -1.253E+01
    -1.244E+01   -1.237E+01   -1.230E+01   -1.224E+01   -1.218E+01   -1.213E+01   -1.209E+01   -1.205E+01   -1.201E+01   -1.199E+01
    -1.196E+01   -1.194E+01   -1.193E+01   -1.191E+01   -1.191E+01   -1.190E+01   -1.190E+01   -1.190E+01   -1.190E+01   -1.190E+01
    -1.190E+01   -1.191E+01   -1.192E+01   -1.192E+01   -1.193E+01   -1.194E+01   -1.195E+01   -1.196E+01   -1.197E+01   -1.198E+01
    -1.199E+01   -1.201E+01   -1.202E+01   -1.203E+01   -1.204E+01   -1.205E+01   -1.206E+01   -1.207E+01   -1.208E+01   -1.209E+01
    -1.209E+01   -1.210E+01   -1.211E+01   -1.211E+01   -1.211E+01   -1.212E+01   -1.212E+01   -1.212E+01   -1.211E+01   -1.211E+01
    -1.210E+01   -1.210E+01   -1.209E+01   -1.207E+01   -1.206E+01   -1.205E+01   -1.203E+01   -1.202E+01   -1.200E+01   -1.198E+01
    -1.196E+01   -1.194E+01   -1.192E+01   -1.189E+01   -1.187E+01   -1.185E+01   -1.183E+01   -1.180E+01   -1.178E+01   -1.176E+01
    -1.174E+01   -1.171E+01   -1.169E+01   -1.167E+01   -1.165E+01   -1.163E+01   -1.161E+01   -1.159E+01   -1.158E+01   -1.156E+01
    -1.155E+01   -1.153E+01   -1.152E+01   -1.151E+01   -1.150E+01   -1.149E+01   -1.149E+01   -1.148E+01   -1.148E+01   -1.147E+01
    -1.147E+01   -1.146E+01   -1.146E+01   -1.146E+01   -1.145E+01   -1.145E+01   -1.145E+01   -1.145E+01   -1.145E+01   -1.144E+01
    -1.144E+01   -1.144E+01   -1.144E+01   -1.143E+01   -1.143E+01   -1.143E+01   -1.142E+01   -1.142E+01   -1.141E+01   -1.140E+01
    -1.140E+01   -1.139E+01   -1.138E+01   -1.137E+01   -1.135E+01   -1.134E+01   -1.133E+01   -1.131E+01   -1.130E+01   -1.128E+01
    -1.126E+01   -1.124E+01   -1.122E+01   -1.119E+01   -1.117E+01   -1.114E+01   -1.112E+01   -1.109E+01   -1.106E+01   -1.103E+01
    -1.099E+01   -1.096E+01   -1.092E+01   -1.089E+01   -1.085E+01   -1.080E+01   -1.076E+01   -1.072E+01   -1.067E+01   -1.062E+01
    -1.057E+01   -1.052E+01   -1.047E+01   -1.041E+01   -1.035E+01   -1.029E+01   -1.023E+01   -1.017E+01   -1.010E+01   -1.003E+01
    -9.958E+00   -9.882E+00   -9.804E+00   -9.722E+00   -9.638E+00   -9.550E+00   -9.459E+00   -9.364E+00   -9.267E+00   -9.165E+00
    -9.060E+00   -8.951E+00   -8.838E+00   -8.721E+00   -8.601E+00   -8.476E+00   -8.347E+00   -8.213E+00   -8.075E+00   -7.933E+00
    -7.785E+00   -7.634E+00   -7.477E+00   -7.317E+00   -7.152E+00   -6.983E+00   -6.810E+00   -6.633E+00   -6.453E+00   -6.268E+00
    -6.080E+00   -5.889E+00   -5.694E+00   -5.496E+00   -5.295E+00   -5.091E+00   -4.885E+00   -4.675E+00   -4.463E+00   -4.248E+00
    -4.031E+00   -3.812E+00   -3.590E+00   -3.366E+00   -3.141E+00   -2.913E+00   -2.684E+00   -2.454E+00   -2.221E+00   -1.988E+00
    -1.753E+00   -1.517E+00   -1.282E+00   -1.046E+00   -8.113E-01   -5.781E-01   -3.470E-01   -1.184E-01    1.069E-01    3.285E-01
     5.457E-01    7.581E-01    9.649E-01    1.166E+00    1.360E+00    1.547E+00    1.726E+00    1.897E+00    2.058E+00    2.211E+00
     2.353E+00    2.484E+00    2.605E+00    2.713E+00    2.809E+00    2.892E+00    2.962E+00    3.017E+00    3.058E+00    3.083E+00
     3.093E+00    3.087E+00    3.065E+00    3.028E+00    2.977E+00    2.911E+00    2.830E+00    2.736E+00    2.629E+00    2.508E+00
     2.375E+00    2.229E+00    2.071E+00    1.901E+00    1.720E+00    1.527E+00    1.324E+00    1.111E+00    8.867E-01    6.530E-01
     4.099E-01    1.576E-01   -1.035E-01   -3.731E-01   -6.508E-01   -9.363E-01   -1.229E+00   -1.530E+00   -1.836E+00   -2.150E+00
    -2.469E+00   -2.795E+00   -3.126E+00   -3.461E+00   -3.802E+00   -4.147E+00   -4.495E+00   -4.848E+00   -5.203E+00   -5.561E+00
    -5.922E+00   -6.284E+00   -6.649E+00   -7.014E+00   -7.381E+00   -7.748E+00   -8.115E+00   -8.482E+00   -8.848E+00   -9.214E+00
    -9.578E+00   -9.940E+00   -1.030E+01   -1.066E+01   -1.101E+01   -1.137E+01   -1.171E+01   -1.206E+01   -1.240E+01   -1.273E+01
    -1.306E+01   -1.339E+01   -1.371E+01   -1.402E+01   -1.433E+01   -1.464E+01   -1.493E+01   -1.523E+01   -1.551E+01   -1.579E+01
    -1.607E+01   -1.634E+01   -1.660E+01   -1.686E+01   -1.711E+01   -1.735E+01   -1.759E+01   -1.782E+01   -1.805E+01   -1.827E+01
    -1.848E+01   -1.868E+01   -1.888E+01   -1.907E+01   -1.926E+01   -1.944E+01   -1.961E+01   -1.977E+01   -1.993E+01   -2.008E+01
    -2.022E+01   -2.035E+01   -2.048E+01   -2.060E+01   -2.072E+01   -2.082E+01   -2.092E+01   -2.102E+01   -2.110E+01   -2.118E+01
    -2.126E+01   -2.133E+01   -2.139E+01   -2.145E+01   -2.150E+01   -2.155E+01   -2.159E+01   -2.163E+01   -2.166E+01   -2.168E+01
    -2.170E+01   -2.172E+01   -2.173E+01   -2.174E+01   -2.174E+01   -2.174E+01   -2.174E+01   -2.173E+01   -2.172E+01   -2.170E+01
    -2.168E+01   -2.166E+01   -2.163E+01   -2.160E+01   -2.157E+01   -2.154E+01   -2.150E+01   -2.146E+01   -2.142E+01   -2.137E+01
    -2.132E+01   -2.127E+01   -2.122E+01   -2.117E+01   -2.111E+01   -2.106E+01   -2.100E+01   -2.094E+01   -2.088E+01   -2.082E+01
    -2.075E+01   -2.069E+01   -2.063E+01   -2.056E+01   -2.050E+01   -2.043E+01   -2.036E+01   -2.030E+01   -2.023E+01   -2.017E+01
 Mac      Conc. = 2.82E-04
  -6.90386E+01 -6.92359E+01 -6.94829E+01 -6.96053E+01 -6.96417E+01 -6.97461E+01 -7.05097E+01 -7.21655E+01 -7.41510E+01 -7.60828E+01
  -7.78295E+01 -7.91340E+01 -8.01100E+01 -8.08419E+01 -8.12889E+01 -8.12223E+01 -8.06785E+01 -7.94869E+01 -7.72923E+01 -7.40542E+01
  -7.02651E+01 -6.65726E+01 -6.32123E+01 -5.99573E+01 -5.67195E+01 -5.38930E+01 -5.16546E+01 -4.96931E+01 -4.77876E+01 -4.57398E+01
  -4.36007E+01 -4.16580E+01 -4.01262E+01 -3.91236E+01 -3.81540E+01 -3.69752E+01 -3.55092E+01 -3.37583E+01 -3.16512E+01 -2.93678E+01
  -2.73223E+01 -2.55603E+01 -2.40882E+01 -2.27103E+01 -2.12562E+01 -2.00322E+01 -1.94465E+01 -1.94349E+01 -1.97564E+01 -2.04216E+01
  -2.12647E+01 -2.19880E+01 -2.25767E+01 -2.26940E+01 -2.23362E+01 -2.16921E+01 -2.08638E+01 -1.96293E+01 -1.80789E+01 -1.66189E+01
  -1.55366E+01 -1.48939E+01 -1.45255E+01 -1.43063E+01 -1.41560E+01 -1.41866E+01 -1.41403E+01 -1.37570E+01 -1.30567E+01 -1.20246E+01
  -1.06252E+01 -8.94115E+00 -7.09931E+00 -5.33049E+00 -3.97981E+00 -3.18964E+00 -2.84193E+00 -2.71792E+00 -2.84330E+00 -3.14865E+00
  -3.37274E+00 -3.38186E+00 -3.21871E+00 -2.71826E+00 -1.83540E+00 -5.69543E-01  9.79619E-01  2.59940E+00  4.07502E+00  5.30947E+00
   6.43509E+00  7.38874E+00  8.12303E+00  8.67948E+00  9.04304E+00  9.27688E+00  9.26952E+00  8.58012E+00  7.02657E+00  4.58735E+00
   1.49945E+00 -2.18509E+00 -6.41307E+00 -1.12456E+01 -1.66856E+01 -2.24442E+01 -2.82388E+01 -3.36749E+01 -3.81801E+01 -4.12875E+01
