 
 $NMID
 ID=''
 FMTDAT='(2E13.5)'
 TRAMP=   1.00000E+0
 VOLUME=   1.00000E+0
 $END
  -3.14758E+5   3.20550E+5
  -1.05358E+6   5.47033E+5
  -9.25674E+5   6.48857E+5
  -8.88233E+5   5.55366E+5
  -9.36618E+5   5.93845E+5
  -8.57680E+5   6.55111E+5
  -8.13200E+5   6.20457E+5
  -8.38778E+5   6.36065E+5
  -7.93510E+5   6.66683E+5
  -7.65080E+5   6.37928E+5
  -7.75071E+5   6.41695E+5
  -7.39953E+5   6.59224E+5
  -7.15832E+5   6.40545E+5
  -7.20007E+5   6.38345E+5
  -6.93732E+5   6.40769E+5
  -6.71662E+5   6.26052E+5
  -6.68866E+5   6.27987E+5
  -6.47430E+5   6.30536E+5
  -6.26908E+5   6.19573E+5
  -6.12052E+5   6.24253E+5
  -5.89892E+5   6.23164E+5
  -5.75833E+5   6.12376E+5
  -5.66262E+5   6.11615E+5
  -5.48276E+5   6.07806E+5
  -5.37345E+5   5.96953E+5
  -5.25978E+5   5.95418E+5
  -5.14784E+5   5.87364E+5
  -5.09560E+5   5.74678E+5
  -5.01971E+5   5.68421E+5
  -4.90226E+5   5.61792E+5
  -4.84917E+5   5.52735E+5
  -4.75395E+5   5.48180E+5
  -4.65222E+5   5.40435E+5
  -4.59906E+5   5.33954E+5
  -4.50444E+5   5.30849E+5
  -4.39291E+5   5.26600E+5
  -4.35664E+5   5.23123E+5
  -4.30067E+5   5.18868E+5
  -4.22377E+5   5.10849E+5
  -4.19882E+5   5.06739E+5
  -4.16670E+5   5.03254E+5
  -4.11854E+5   4.95043E+5
  -4.10014E+5   4.89983E+5
  -4.08391E+5   4.87635E+5
  -4.06938E+5   4.81188E+5
  -4.07589E+5   4.76498E+5
  -4.06288E+5   4.74063E+5
  -4.04625E+5   4.68573E+5
  -4.04174E+5   4.64086E+5
  -4.02520E+5   4.63164E+5
  -4.00623E+5   4.61123E+5
  -4.01222E+5   4.59367E+5
  -4.00501E+5   4.58459E+5
  -3.99250E+5   4.57166E+5
  -3.99495E+5   4.54996E+5
  -3.99896E+5   4.54572E+5
  -3.99976E+5   4.52723E+5
  -3.99803E+5   4.50979E+5
  -3.99439E+5   4.50854E+5
  -3.99618E+5   4.51262E+5
  -4.00884E+5   4.50777E+5
  -4.00863E+5   4.50586E+5
  -4.00121E+5   4.51211E+5
  -3.99995E+5   4.51020E+5
  -3.99012E+5   4.50858E+5
  -3.97114E+5   4.51168E+5
  -3.94850E+5   4.52280E+5
  -3.94106E+5   4.53477E+5
  -3.93281E+5   4.54625E+5
  -3.92273E+5   4.54877E+5
  -3.90817E+5   4.55001E+5
  -3.88705E+5   4.55870E+5
  -3.86601E+5   4.56640E+5
  -3.85119E+5   4.56801E+5
  -3.82932E+5   4.56892E+5
  -3.79610E+5   4.57057E+5
  -3.77042E+5   4.57239E+5
  -3.74246E+5   4.57776E+5
  -3.70778E+5   4.57505E+5
  -3.67138E+5   4.56644E+5
  -3.63422E+5   4.56133E+5
  -3.59585E+5   4.55536E+5
  -3.56211E+5   4.54671E+5
  -3.53090E+5   4.53095E+5
  -3.49550E+5   4.50707E+5
  -3.45568E+5   4.48989E+5
  -3.41825E+5   4.47210E+5
  -3.38069E+5   4.44905E+5
  -3.34324E+5   4.41484E+5
  -3.29501E+5   4.39224E+5
  -3.25058E+5   4.36861E+5
  -3.20842E+5   4.33852E+5
  -3.16252E+5   4.30479E+5
  -3.11164E+5   4.26576E+5
  -3.05712E+5   4.22651E+5
  -3.00846E+5   4.19559E+5
  -2.96496E+5   4.15776E+5
  -2.91889E+5   4.11122E+5
  -2.87529E+5   4.06627E+5
  -2.83131E+5   4.02156E+5
  -2.79290E+5   3.97116E+5
  -2.76038E+5   3.91814E+5
  -2.71807E+5   3.85628E+5
  -2.67329E+5   3.79542E+5
  -2.63389E+5   3.74439E+5
  -2.60065E+5   3.69358E+5
  -2.57296E+5   3.63415E+5
  -2.54291E+5   3.56430E+5
  -2.50974E+5   3.50409E+5
  -2.46745E+5   3.44736E+5
  -2.44401E+5   3.39161E+5
  -2.42572E+5   3.32462E+5
  -2.40172E+5   3.25619E+5
  -2.38031E+5   3.18985E+5
  -2.36159E+5   3.12088E+5
  -2.34808E+5   3.05515E+5
  -2.33339E+5   2.98448E+5
  -2.31713E+5   2.91145E+5
  -2.29742E+5   2.84768E+5
  -2.28097E+5   2.79026E+5
  -2.27067E+5   2.72657E+5
  -2.26603E+5   2.66385E+5
  -2.25638E+5   2.59955E+5
  -2.25123E+5   2.53551E+5
  -2.24725E+5   2.46759E+5
  -2.23694E+5   2.40515E+5
  -2.22961E+5   2.34056E+5
  -2.22902E+5   2.27887E+5
  -2.22860E+5   2.22383E+5
  -2.23422E+5   2.16194E+5
  -2.23760E+5   2.09571E+5
  -2.23880E+5   2.03281E+5
  -2.23535E+5   1.97477E+5
  -2.23712E+5   1.92037E+5
  -2.24536E+5   1.86377E+5
  -2.24359E+5   1.80592E+5
  -2.24139E+5   1.75344E+5
  -2.24685E+5   1.70553E+5
  -2.24840E+5   1.65297E+5
  -2.25137E+5   1.59764E+5
  -2.24903E+5   1.54657E+5
  -2.24311E+5   1.50434E+5
  -2.24047E+5   1.45806E+5
  -2.24510E+5   1.41368E+5
  -2.24451E+5   1.36562E+5
  -2.24386E+5   1.31819E+5
  -2.23695E+5   1.27491E+5
  -2.23044E+5   1.23086E+5
  -2.22586E+5   1.19002E+5
  -2.22041E+5   1.14976E+5
  -2.21419E+5   1.10893E+5
  -2.20411E+5   1.07369E+5
  -2.19531E+5   1.03996E+5
  -2.18957E+5   1.00596E+5
  -2.17831E+5   9.67319E+4
  -2.16399E+5   9.30601E+4
  -2.15278E+5   9.03569E+4
  -2.14309E+5   8.70609E+4
  -2.13003E+5   8.33574E+4
  -2.11356E+5   8.08550E+4
  -2.09867E+5   7.77079E+4
  -2.08771E+5   7.45688E+4
  -2.06807E+5   7.13593E+4
  -2.04892E+5   6.83350E+4
  -2.02941E+5   6.57744E+4
  -2.01203E+5   6.33047E+4
  -1.99609E+5   6.04259E+4
  -1.97855E+5   5.75660E+4
  -1.95840E+5   5.49025E+4
  -1.93824E+5   5.20484E+4
  -1.91829E+5   4.97138E+4
  -1.89941E+5   4.72662E+4
  -1.87705E+5   4.43903E+4
  -1.85647E+5   4.15036E+4
  -1.83469E+5   3.92153E+4
  -1.81192E+5   3.67763E+4
  -1.79534E+5   3.37008E+4
  -1.77091E+5   3.06904E+4
  -1.74542E+5   2.78402E+4
  -1.72528E+5   2.53716E+4
  -1.70479E+5   2.26409E+4
  -1.68446E+5   1.98074E+4
  -1.66012E+5   1.68052E+4
  -1.63844E+5   1.39907E+4
  -1.61758E+5   1.15317E+4
  -1.59671E+5   8.61225E+3
  -1.57452E+5   6.00584E+3
  -1.55111E+5   3.38204E+3
  -1.53031E+5   9.82554E+2
  -1.51537E+5  -1.71527E+3
  -1.49511E+5  -4.84146E+3
  -1.47436E+5  -7.64421E+3
  -1.45287E+5  -1.04609E+4
  -1.42957E+5  -1.29119E+4
  -1.41182E+5  -1.57102E+4
  -1.39276E+5  -1.84682E+4
  -1.37656E+5  -2.12680E+4
  -1.35471E+5  -2.39824E+4
  -1.33756E+5  -2.64675E+4
  -1.31719E+5  -2.93394E+4
  -1.29777E+5  -3.22550E+4
  -1.27884E+5  -3.46925E+4
  -1.25921E+5  -3.67038E+4
  -1.24356E+5  -3.91949E+4
  -1.22697E+5  -4.15153E+4
  -1.20753E+5  -4.42769E+4
  -1.19150E+5  -4.64337E+4
  -1.17486E+5  -4.87571E+4
  -1.15871E+5  -5.10868E+4
  -1.14232E+5  -5.36043E+4
  -1.12740E+5  -5.53141E+4
  -1.10854E+5  -5.74311E+4
  -1.09336E+5  -5.92019E+4
  -1.07675E+5  -6.12290E+4
  -1.06317E+5  -6.32730E+4
  -1.04452E+5  -6.50335E+4
  -1.02591E+5  -6.63476E+4
  -1.01191E+5  -6.77688E+4
  -9.98554E+4  -6.92801E+4
  -9.83257E+4  -7.06208E+4
  -9.67370E+4  -7.20038E+4
  -9.51224E+4  -7.31149E+4
  -9.38135E+4  -7.43857E+4
  -9.18161E+4  -7.54570E+4
  -9.03413E+4  -7.66443E+4
  -8.89613E+4  -7.75312E+4
  -8.74648E+4  -7.83262E+4
  -8.62358E+4  -7.92178E+4
  -8.46745E+4  -8.00767E+4
  -8.32328E+4  -8.11065E+4
  -8.16452E+4  -8.16217E+4
  -7.99903E+4  -8.21203E+4
  -7.87957E+4  -8.23596E+4
  -7.72090E+4  -8.30936E+4
  -7.56727E+4  -8.35707E+4
  -7.43509E+4  -8.37094E+4
  -7.28768E+4  -8.38433E+4
  -7.12944E+4  -8.44562E+4
  -6.98708E+4  -8.44766E+4
  -6.86320E+4  -8.47814E+4
  -6.74459E+4  -8.48037E+4
  -6.59931E+4  -8.48917E+4
  -6.46658E+4  -8.50200E+4
  -6.29285E+4  -8.51800E+4
  -6.16864E+4  -8.52114E+4
  -6.01922E+4  -8.50932E+4
  -5.86073E+4  -8.49167E+4
  -5.71518E+4  -8.46656E+4
  -5.56520E+4  -8.45404E+4
  -5.42967E+4  -8.42856E+4
  -5.30917E+4  -8.43940E+4
  -5.15408E+4  -8.41807E+4
  -4.97603E+4  -8.41295E+4
  -4.81683E+4  -8.38147E+4
  -4.68316E+4  -8.35690E+4
  -4.56769E+4  -8.32491E+4
  -4.43465E+4  -8.31715E+4
  -4.30118E+4  -8.31036E+4
  -4.12402E+4  -8.27131E+4
  -3.97797E+4  -8.26100E+4
  -3.84077E+4  -8.25805E+4
  -3.68080E+4  -8.21776E+4
  -3.53298E+4  -8.15862E+4
  -3.43399E+4  -8.11886E+4
  -3.30610E+4  -8.11503E+4
  -3.14703E+4  -8.10326E+4
  -2.99894E+4  -8.05221E+4
  -2.86598E+4  -8.00686E+4
  -2.76030E+4  -7.96560E+4
  -2.62873E+4  -7.92615E+4
  -2.52087E+4  -7.90988E+4
  -2.39575E+4  -7.85638E+4
  -2.25544E+4  -7.78211E+4
  -2.14074E+4  -7.74401E+4
  -2.00159E+4  -7.71020E+4
  -1.88383E+4  -7.68023E+4
  -1.75548E+4  -7.61823E+4
  -1.67142E+4  -7.55562E+4
  -1.52386E+4  -7.50540E+4
  -1.41192E+4  -7.45220E+4
  -1.32315E+4  -7.40647E+4
  -1.21446E+4  -7.34606E+4
  -1.11653E+4  -7.29298E+4
  -9.99968E+3  -7.24132E+4
  -9.10523E+3  -7.20351E+4
  -8.19333E+3  -7.10897E+4
  -7.33994E+3  -7.03133E+4
  -6.72293E+3  -7.00687E+4
  -5.84077E+3  -6.93655E+4
  -4.98776E+3  -6.90556E+4
  -4.03174E+3  -6.79415E+4
  -3.25642E+3  -6.72906E+4
  -2.46566E+3  -6.63346E+4
  -1.59332E+3  -6.61502E+4
  -7.93821E+2  -6.51769E+4
  -1.30533E+2  -6.45813E+4
   5.31125E+2  -6.38211E+4
   1.12045E+3  -6.30513E+4
   1.88835E+3  -6.21297E+4
   2.61912E+3  -6.13823E+4
   3.44278E+3  -6.04711E+4
   3.99607E+3  -5.99862E+4
   4.60569E+3  -5.91005E+4
   5.32447E+3  -5.81981E+4
   5.98292E+3  -5.75865E+4
   6.61413E+3  -5.66748E+4
   7.00508E+3  -5.59839E+4
   7.61148E+3  -5.52239E+4
   8.04182E+3  -5.42240E+4
   8.49963E+3  -5.34661E+4
   9.05056E+3  -5.28802E+4
   9.66175E+3  -5.19780E+4
   1.02926E+4  -5.10532E+4
   1.06953E+4  -5.02126E+4
   1.12919E+4  -4.90248E+4
   1.16072E+4  -4.83336E+4
   1.21480E+4  -4.74781E+4
   1.23806E+4  -4.67046E+4
   1.29318E+4  -4.58048E+4
   1.33293E+4  -4.51593E+4
   1.36845E+4  -4.42163E+4
   1.39376E+4  -4.34133E+4
   1.45030E+4  -4.23732E+4
   1.47853E+4  -4.15858E+4
   1.50823E+4  -4.10191E+4
   1.54137E+4  -3.98809E+4
   1.59127E+4  -3.92456E+4
   1.64769E+4  -3.83795E+4
   1.67752E+4  -3.72138E+4
   1.70963E+4  -3.62993E+4
   1.71195E+4  -3.56375E+4
   1.76697E+4  -3.49452E+4
   1.76683E+4  -3.39393E+4
   1.81040E+4  -3.30220E+4
   1.83960E+4  -3.22653E+4
   1.90785E+4  -3.15296E+4
   1.94673E+4  -3.06259E+4
   1.96565E+4  -2.97963E+4
   1.95539E+4  -2.89062E+4
   1.97218E+4  -2.78630E+4
   1.99944E+4  -2.73811E+4
   2.06137E+4  -2.65501E+4
   2.05576E+4  -2.57269E+4
   2.07308E+4  -2.50091E+4
   2.11662E+4  -2.42767E+4
   2.13603E+4  -2.33904E+4
   2.12780E+4  -2.27340E+4
   2.16875E+4  -2.18485E+4
   2.16391E+4  -2.09906E+4
   2.20379E+4  -2.02993E+4
   2.20393E+4  -1.97368E+4
   2.21333E+4  -1.87895E+4
   2.22103E+4  -1.79487E+4
   2.25429E+4  -1.73816E+4
   2.25660E+4  -1.65225E+4
   2.25192E+4  -1.58186E+4
   2.27088E+4  -1.49521E+4
   2.27211E+4  -1.44264E+4
   2.30369E+4  -1.38132E+4
   2.31293E+4  -1.32496E+4
   2.29371E+4  -1.23973E+4
   2.31137E+4  -1.18258E+4
   2.29523E+4  -1.14124E+4
   2.31094E+4  -1.08507E+4
   2.30141E+4  -1.03310E+4
   2.34492E+4  -9.76838E+3
   2.30912E+4  -8.76550E+3
