 LCModel (Version 6.3-1N) Copyright: S.W. Provencher.          Ref.: Magn. Reson. Med. 30:672-679 (1993).                
 Slice_N1@12_23  28-Feb-2025 11:37:41
 27 lines in following concentration table = NCONC+1
    Conc.  %SD /Cr+PCr  Metabolite                                         
 2.84E-04   6% 2.4E-04 Mac                                                 
    3.037 127%   2.613 Cr                                                  
    6.260  60%   5.387 PCr                                                 
   12.314  13%  10.597 Ins                                                 
    9.843  14%   8.470 NAA                                                 
    7.595  25%   6.536 Tau                                                 
    0.000 999%   0.000 PCho                                                
    0.000 999%   0.000 GPC                                                 
   10.510  15%   9.044 Glu                                                 
    0.000 999%   0.000 Gln                                                 
    0.000 999%   0.000 Ala                                                 
    0.000 999%   0.000 Asc                                                 
    3.481  36%   2.996 Asp                                                 
    0.000 999%   0.000 GABA                                                
    0.644 131%   0.554 Glc                                                 
    0.000 999%   0.000 GSH                                                 
    7.963  15%   6.853 Lac                                                 
    3.602  35%   3.100 NAAG                                                
    5.245  32%   4.513 PE                                                  
    0.000 999%   0.000 GPC+PCho                                            
   13.445  10%  11.570 NAA+NAAG                                            
   10.510  15%   9.044 Glu+Gln                                             
    9.297  13%   8.000 Cr+PCr                                              
   13.445  10%  11.570 NAA+NAAG                                            
    9.297  13%   8.000 Cr+PCr                                              
   10.510  15%   9.044 Glu+Gln                                             
   6 lines in following misc. output table
  FWHM = 0.065 ppm    S/N =   2                                            
  Data shift = 0.016 ppm                                                   
  Ph: -76 deg       0.0 deg/ppm                                            
  alphaB,S = 1.0E-01,   2.2E+01                                            
   19 spline knots.   Ns = 9(1)                                            
  ( 9) 6 infls.   ( 7) 3 extrs.                                            
  480 points on ppm-axis = NY
      4.100000     4.091866     4.083733     4.075600     4.067466     4.059333     4.051199     4.043066     4.034933     4.026799
      4.018666     4.010532     4.002399     3.994265     3.986132     3.977998     3.969864     3.961731     3.953597     3.945463
      3.937330     3.929196     3.921062     3.912929     3.904795     3.896662     3.888528     3.880394     3.872261     3.864127
      3.855993     3.847860     3.839726     3.831592     3.823459     3.815325     3.807191     3.799058     3.790924     3.782790
      3.774657     3.766523     3.758389     3.750256     3.742122     3.733989     3.725855     3.717721     3.709588     3.701454
      3.693320     3.685187     3.677053     3.668919     3.660786     3.652652     3.644518     3.636385     3.628251     3.620117
      3.611984     3.603850     3.595716     3.587583     3.579449     3.571316     3.563182     3.555048     3.546915     3.538781
      3.530647     3.522514     3.514380     3.506246     3.498113     3.489979     3.481845     3.473712     3.465578     3.457444
      3.449311     3.441177     3.433043     3.424910     3.416776     3.408643     3.400509     3.392375     3.384242     3.376108
      3.367974     3.359841     3.351707     3.343573     3.335440     3.327306     3.319172     3.311039     3.302905     3.294771
      3.286638     3.278504     3.270370     3.262237     3.254103     3.245970     3.237836     3.229702     3.221569     3.213435
      3.205301     3.197168     3.189034     3.180900     3.172767     3.164633     3.156499     3.148366     3.140232     3.132098
      3.123965     3.115831     3.107697     3.099564     3.091430     3.083297     3.075163     3.067029     3.058896     3.050762
      3.042628     3.034495     3.026361     3.018227     3.010094     3.001960     2.993826     2.985693     2.977559     2.969425
      2.961292     2.953158     2.945024     2.936891     2.928757     2.920624     2.912490     2.904356     2.896223     2.888089
      2.879955     2.871822     2.863688     2.855554     2.847421     2.839287     2.831153     2.823020     2.814886     2.806752
      2.798619     2.790485     2.782351     2.774218     2.766084     2.757951     2.749817     2.741683     2.733550     2.725416
      2.717282     2.709149     2.701015     2.692881     2.684748     2.676614     2.668480     2.660347     2.652213     2.644079
      2.635946     2.627812     2.619678     2.611545     2.603411     2.595278     2.587144     2.579010     2.570877     2.562743
      2.554609     2.546476     2.538342     2.530208     2.522075     2.513941     2.505807     2.497674     2.489540     2.481406
      2.473273     2.465139     2.457006     2.448872     2.440738     2.432605     2.424471     2.416337     2.408204     2.400070
      2.391936     2.383803     2.375669     2.367535     2.359402     2.351268     2.343134     2.335001     2.326867     2.318733
      2.310600     2.302466     2.294333     2.286199     2.278065     2.269932     2.261798     2.253664     2.245531     2.237397
      2.229263     2.221130     2.212996     2.204862     2.196729     2.188595     2.180461     2.172328     2.164194     2.156060
      2.147927     2.139793     2.131660     2.123526     2.115392     2.107259     2.099125     2.090991     2.082858     2.074724
      2.066590     2.058457     2.050323     2.042189     2.034056     2.025922     2.017788     2.009655     2.001521     1.993387
      1.985254     1.977120     1.968987     1.960853     1.952719     1.944586     1.936452     1.928318     1.920185     1.912051
      1.903917     1.895784     1.887650     1.879516     1.871383     1.863249     1.855115     1.846982     1.838848     1.830714
      1.822581     1.814447     1.806314     1.798180     1.790046     1.781913     1.773779     1.765645     1.757512     1.749378
      1.741244     1.733111     1.724977     1.716843     1.708710     1.700576     1.692442     1.684309     1.676175     1.668041
      1.659908     1.651774     1.643641     1.635507     1.627373     1.619240     1.611106     1.602972     1.594839     1.586705
      1.578571     1.570438     1.562304     1.554170     1.546037     1.537903     1.529769     1.521636     1.513502     1.505368
      1.497235     1.489101     1.480968     1.472834     1.464700     1.456567     1.448433     1.440299     1.432166     1.424032
      1.415898     1.407765     1.399631     1.391497     1.383364     1.375230     1.367096     1.358963     1.350829     1.342695
      1.334562     1.326428     1.318295     1.310161     1.302027     1.293894     1.285760     1.277626     1.269493     1.261359
      1.253225     1.245092     1.236958     1.228824     1.220691     1.212557     1.204423     1.196290     1.188156     1.180022
      1.171889     1.163755     1.155622     1.147488     1.139354     1.131221     1.123087     1.114953     1.106820     1.098686
      1.090552     1.082419     1.074285     1.066151     1.058018     1.049884     1.041750     1.033617     1.025483     1.017349
      1.009216     1.001082     0.992949     0.984815     0.976681     0.968548     0.960414     0.952280     0.944147     0.936013
      0.927879     0.919746     0.911612     0.903478     0.895345     0.887211     0.879077     0.870944     0.862810     0.854676
      0.846543     0.838409     0.830276     0.822142     0.814008     0.805875     0.797741     0.789607     0.781474     0.773340
      0.765206     0.757073     0.748939     0.740805     0.732672     0.724538     0.716404     0.708271     0.700137     0.692003
      0.683870     0.675736     0.667603     0.659469     0.651335     0.643202     0.635068     0.626934     0.618801     0.610667
      0.602533     0.594400     0.586266     0.578132     0.569999     0.561865     0.553731     0.545598     0.537464     0.529330
      0.521197     0.513063     0.504930     0.496796     0.488662     0.480529     0.472395     0.464261     0.456128     0.447994
      0.439861     0.431727     0.423593     0.415460     0.407326     0.399192     0.391059     0.382925     0.374792     0.366658
      0.358524     0.350391     0.342257     0.334124     0.325990     0.317856     0.309723     0.301589     0.293455     0.285322
      0.277188     0.269055     0.260921     0.252787     0.244654     0.236520     0.228386     0.220253     0.212119     0.203986
 NY phased data points follow
   9.84614E+01  1.06641E+02  1.03803E+02  9.62691E+01  9.98010E+01  1.23593E+02  1.23063E+02  9.75150E+01  1.29010E+02  1.32411E+02
   1.32646E+02  1.39265E+02  1.38225E+02  1.33926E+02  1.25980E+02  1.39311E+02  1.28259E+02  1.22028E+02  1.30782E+02  1.34609E+02
   1.32130E+02  1.40205E+02  1.41197E+02  1.52163E+02  1.80972E+02  1.73713E+02  1.82000E+02  1.96633E+02  1.89029E+02  2.00973E+02
   2.19960E+02  2.19815E+02  2.14423E+02  2.24776E+02  2.31755E+02  2.22756E+02  2.34007E+02  2.24442E+02  2.02843E+02  2.11373E+02
   2.20092E+02  2.31075E+02  2.04821E+02  2.10288E+02  2.24351E+02  2.08573E+02  2.28500E+02  2.27937E+02  2.38980E+02  2.63620E+02
   2.66779E+02  2.43830E+02  2.32497E+02  2.26820E+02  2.08582E+02  2.12484E+02  1.90749E+02  1.75838E+02  1.68765E+02  1.72389E+02
   1.84789E+02  1.75198E+02  1.70759E+02  1.67506E+02  1.73198E+02  1.63760E+02  1.56252E+02  1.75397E+02  1.75891E+02  1.51936E+02
   1.57773E+02  1.51257E+02  1.30403E+02  1.57429E+02  1.45410E+02  1.42730E+02  1.70717E+02  1.51886E+02  1.49926E+02  1.58070E+02
   1.77104E+02  1.71135E+02  1.35223E+02  1.48966E+02  1.38635E+02  1.42797E+02  1.48371E+02  1.30328E+02  1.44700E+02  1.27403E+02
   1.47223E+02  1.58635E+02  1.51037E+02  1.68834E+02  1.65552E+02  1.67347E+02  1.62454E+02  1.72909E+02  1.57846E+02  1.65662E+02
   1.66126E+02  1.47269E+02  1.61398E+02  1.40069E+02  1.43659E+02  1.13580E+02  1.04644E+02  1.10082E+02  7.45800E+01  7.35978E+01
   7.10906E+01  8.04742E+01  4.56880E+01  4.68275E+01  6.44433E+01  5.61543E+01  7.24350E+01  5.98445E+01  9.38046E+01  9.22490E+01
   8.25252E+01  1.09877E+02  9.05002E+01  1.07090E+02  1.24422E+02  1.25917E+02  1.40410E+02  1.42098E+02  1.61854E+02  1.50660E+02
   1.19877E+02  1.28356E+02  1.19361E+02  1.35199E+02  1.11364E+02  4.36297E+01  4.90511E+01  2.32808E+01  9.77117E+00  2.55135E+01
   1.71402E+01  1.95358E+01  2.46991E+01  2.95738E+01  7.22448E+00  1.12665E+01  2.37136E+01  1.91514E+01  2.94771E+01  2.93959E+01
   3.38575E+01  3.73497E+01  3.16937E+01  3.71934E+01  4.29348E+01  4.37966E+01  5.29806E+01  4.84363E+01  6.56429E+01  7.86415E+01
   5.37291E+01  5.76435E+01  6.79049E+01  7.38500E+01  6.92051E+01  5.83151E+01  5.84752E+01  6.29143E+01  6.97421E+01  7.07647E+01
   8.06039E+01  8.28890E+01  8.50980E+01  1.04177E+02  1.02464E+02  9.01682E+01  9.57667E+01  7.56605E+01  6.82093E+01  8.24490E+01
   7.96920E+01  7.68853E+01  5.56496E+01  5.38160E+01  4.47012E+01  2.42227E+01  3.29663E+01  3.10638E+01  1.04128E+01  2.92423E+01
   5.50999E+01  2.71036E+01  3.52338E+01  4.93746E+01  5.43300E+01  5.39591E+01  6.24174E+01  7.80779E+01  5.01602E+01  7.00539E+01
   5.81021E+01  3.98737E+01  4.66838E+01  3.92227E+01  4.97759E+01  2.64030E+01  4.22938E+01  4.63087E+01  3.05723E+01  2.73755E+01
   2.17571E+01  4.38622E+01  2.69705E+01  2.77710E+01  4.32607E+01  4.99252E+01  7.16069E+01  7.73460E+01  9.72631E+01  1.04684E+02
   8.98787E+01  8.76170E+01  8.52758E+01  6.85232E+01  7.17551E+01  8.16228E+01  5.50338E+01  5.88238E+01  7.27340E+01  6.98625E+01
   7.44157E+01  5.91128E+01  6.05419E+01  5.44051E+01  3.04037E+01  2.90763E+01  3.53169E+01  2.45973E+01  1.73113E+01  8.10393E+00
  -2.01361E+01  4.97452E+00  1.27040E+01 -5.75822E+00 -2.93681E+00 -1.41790E+00  2.04957E+01  1.96411E+01  1.02436E+01 -7.40590E+00
   5.27477E+00 -4.08992E+00 -2.62291E+01  1.59238E+00 -1.96557E+01  9.20068E+00  4.62593E+01  6.77486E+01  5.83760E+01  4.58111E+01
   1.58051E+02  1.79467E+02  1.76271E+02  1.99965E+02  1.84885E+02  1.84866E+02  1.62061E+02  1.62658E+02  1.28258E+02  1.35645E+02
   1.62346E+02  1.30071E+02  1.30953E+02  1.19314E+02  1.28953E+02  1.40004E+02  1.33488E+02  1.27432E+02  1.06693E+02  1.05505E+02
   1.16262E+02  1.25813E+02  1.18218E+02  1.04529E+02  1.10961E+02  1.14119E+02  7.79191E+01  8.92528E+01  1.03180E+02  8.00434E+01
   9.47888E+01  8.65160E+01  9.05549E+01  8.35286E+01  7.01806E+01  6.45197E+01  4.33169E+01  5.65328E+01  5.70014E+01  5.27274E+01
   3.78918E+01  4.09006E+01  5.55522E+01  4.54095E+01  4.83478E+01  7.03574E+01  8.12304E+01  4.70567E+01  5.79001E+01  7.97658E+01
   7.86605E+01  9.52031E+01  7.71906E+01  6.42509E+01  7.64984E+01  8.11679E+01  8.64376E+01  1.10566E+02  1.24011E+02  1.15383E+02
   1.30741E+02  1.65416E+02  1.76829E+02  1.81026E+02  1.83899E+02  1.59996E+02  1.52100E+02  1.60537E+02  1.58601E+02  1.46307E+02
   1.32724E+02  1.29695E+02  1.19187E+02  1.29853E+02  1.26857E+02  8.12843E+01  8.80826E+01  8.59001E+01  4.39950E+01  5.48305E+01
   6.40505E+01  5.13777E+01  4.55162E+01  5.16156E+01  5.74123E+01  4.75555E+01  5.21785E+01  6.22185E+01  5.72266E+01  5.49702E+01
   6.47301E+01  6.03792E+01  6.21645E+01  5.87054E+01  4.62195E+01  4.71717E+01  4.57026E+01  5.72884E+01  4.01166E+01  2.23541E+01
   3.83933E+01  4.27702E+01  3.79971E+01  3.68974E+01  3.97982E+01  4.07925E+01  4.81034E+01  6.20576E+01  6.51673E+01  4.70301E+01
   6.91033E+01  8.33930E+01  6.67318E+01  9.00264E+01  7.21410E+01  7.66652E+01  1.10865E+02  8.89985E+01  9.67360E+01  1.03377E+02
   8.66105E+01  9.56053E+01  1.06973E+02  1.14914E+02  1.26143E+02  1.39036E+02  1.40253E+02  1.43543E+02  1.49022E+02  1.34629E+02
   1.38446E+02  1.49723E+02  1.37372E+02  1.17378E+02  1.15160E+02  1.09058E+02  9.01836E+01  9.56005E+01  8.68135E+01  7.30681E+01
   6.18946E+01  4.76715E+01  5.35992E+01  5.11061E+01  4.32250E+01  2.74578E+01  1.28086E+01  2.89133E+01  3.14112E+01  3.40381E+00
   1.03334E+01  1.08214E+01  1.34840E+01  3.13958E+01  1.22576E+01  1.52056E+01  4.46202E+00  1.32828E+01  3.09537E+01  1.89001E+01
   2.27132E+01  8.10763E+00  2.79061E+01  1.43412E+01  1.62489E+00  2.47801E+01  8.31040E+00  1.74241E+01  5.04529E+00  1.35594E+01
   2.83482E+01  1.13124E+01  1.57684E+01  9.55475E+00  2.59877E+01  1.52861E+01  3.21672E+00  2.39834E+01  1.35699E+01  1.37769E+01
   1.60119E+01  1.95918E+01  3.83217E+01  1.72798E+01 -1.18086E+01  4.53598E+00  6.51501E+00  1.24888E+01  2.41781E+01  9.19542E+00
   2.25037E+01  3.22255E+01  2.70124E+01  2.50761E+01  2.50059E+01  1.50441E+01  1.05873E+01  1.01145E+01  5.69988E+00  1.73933E+01
   1.63751E+01  3.71671E+01  2.87966E+01  2.16176E+01  3.23382E+01  1.15670E+01  2.46915E+01  2.59435E+01  2.61491E+01  1.17588E+01
   6.11101E+00  1.95942E+01  1.93569E+01  2.92583E+01  1.65590E+01  3.08185E+01  3.00480E+01  1.02902E+01  1.15982E+01  8.30765E+00
 NY points of the fit to the data follow
   1.18661E+02  1.20488E+02  1.23604E+02  1.28143E+02  1.32796E+02  1.34934E+02  1.33503E+02  1.31315E+02  1.32866E+02  1.38726E+02
   1.43399E+02  1.43824E+02  1.40504E+02  1.36113E+02  1.31881E+02  1.27387E+02  1.23380E+02  1.21332E+02  1.23319E+02  1.29765E+02
   1.36241E+02  1.39784E+02  1.42945E+02  1.51389E+02  1.65620E+02  1.78967E+02  1.90638E+02  2.00208E+02  2.05644E+02  2.09997E+02
   2.14994E+02  2.17575E+02  2.19204E+02  2.19779E+02  2.18805E+02  2.16927E+02  2.13947E+02  2.10012E+02  2.05946E+02  2.02969E+02
   2.01484E+02  2.00793E+02  1.99614E+02  1.98114E+02  1.97452E+02  1.98719E+02  2.02545E+02  2.07968E+02  2.13176E+02  2.16421E+02
   2.18233E+02  2.18711E+02  2.16880E+02  2.13687E+02  2.09438E+02  2.02764E+02  1.95584E+02  1.87626E+02  1.79011E+02  1.72596E+02
   1.68359E+02  1.64360E+02  1.60723E+02  1.61271E+02  1.63888E+02  1.61812E+02  1.59638E+02  1.60325E+02  1.59505E+02  1.59913E+02
   1.59598E+02  1.51926E+02  1.42262E+02  1.38598E+02  1.41438E+02  1.45669E+02  1.49193E+02  1.55142E+02  1.60765E+02  1.63852E+02
   1.65818E+02  1.65127E+02  1.62691E+02  1.60847E+02  1.57819E+02  1.53086E+02  1.47939E+02  1.44663E+02  1.44892E+02  1.48117E+02
   1.53732E+02  1.59969E+02  1.65217E+02  1.70305E+02  1.76041E+02  1.80547E+02  1.84583E+02  1.87463E+02  1.88056E+02  1.87043E+02
   1.83534E+02  1.75985E+02  1.66144E+02  1.55358E+02  1.42991E+02  1.26664E+02  1.08108E+02  9.15475E+01  7.58700E+01  6.28960E+01
   5.46873E+01  4.77497E+01  4.32322E+01  4.32631E+01  4.59643E+01  5.19377E+01  5.94274E+01  6.64291E+01  7.35661E+01  8.06334E+01
   8.79612E+01  9.54112E+01  1.02734E+02  1.12750E+02  1.23772E+02  1.35328E+02  1.47736E+02  1.56621E+02  1.58708E+02  1.53684E+02
   1.43440E+02  1.37007E+02  1.37067E+02  1.32307E+02  1.08480E+02  7.26778E+01  4.78434E+01  3.63285E+01  3.07810E+01  2.82740E+01
   2.38111E+01  1.80855E+01  1.86895E+01  2.10750E+01  2.33199E+01  2.53079E+01  2.71406E+01  2.89844E+01  3.09795E+01  3.31826E+01
   3.55827E+01  3.81006E+01  4.05257E+01  4.27578E+01  4.46998E+01  4.64905E+01  4.85989E+01  5.10232E+01  5.31205E+01  5.42812E+01
   5.45378E+01  5.47702E+01  5.57360E+01  5.71693E+01  5.80619E+01  5.77982E+01  5.76720E+01  5.94862E+01  6.29744E+01  6.62692E+01
   6.78145E+01  6.81034E+01  7.02398E+01  7.58087E+01  8.16808E+01  8.31712E+01  7.96685E+01  7.55698E+01  7.41700E+01  7.39524E+01
   7.17564E+01  6.62058E+01  5.93912E+01  5.43156E+01  5.07272E+01  4.75522E+01  4.50663E+01  4.30844E+01  4.18059E+01  4.19389E+01
   4.27130E+01  4.43101E+01  4.68003E+01  4.90530E+01  5.11135E+01  5.39805E+01  5.79511E+01  6.11817E+01  6.19642E+01  6.23724E+01
   6.32030E+01  6.25025E+01  6.01035E+01  5.62623E+01  5.18615E+01  4.78401E+01  4.22934E+01  3.61731E+01  3.14624E+01  2.79852E+01
   2.77305E+01  3.04662E+01  3.44116E+01  3.99729E+01  4.61783E+01  5.29233E+01  6.09682E+01  7.02523E+01  8.00001E+01  8.70522E+01
   9.13687E+01  9.33431E+01  9.15046E+01  8.83674E+01  8.57154E+01  8.17385E+01  7.74044E+01  7.24005E+01  6.60383E+01  5.93698E+01
   5.23705E+01  4.54815E+01  3.86355E+01  3.21890E+01  2.67612E+01  2.22030E+01  1.86129E+01  1.59151E+01  1.46027E+01  1.44212E+01
   1.48335E+01  1.58749E+01  1.62858E+01  1.53412E+01  1.39682E+01  1.15333E+01  8.83023E+00  6.51724E+00  1.22697E+00 -3.89840E+00
  -7.48955E+00 -1.11121E+01 -1.28216E+01 -1.19228E+01 -5.11807E+00  1.34804E+01  3.54302E+01  4.73064E+01  5.22266E+01  7.04605E+01
   1.04818E+02  1.32598E+02  1.46528E+02  1.51428E+02  1.49512E+02  1.48960E+02  1.51602E+02  1.48974E+02  1.43959E+02  1.39346E+02
   1.35374E+02  1.32086E+02  1.29466E+02  1.27469E+02  1.25870E+02  1.24585E+02  1.23481E+02  1.22376E+02  1.21206E+02  1.19993E+02
   1.18717E+02  1.17355E+02  1.15753E+02  1.13851E+02  1.11774E+02  1.09524E+02  1.07115E+02  1.04437E+02  1.01538E+02  9.85198E+01
   9.54171E+01  9.23230E+01  8.93325E+01  8.66005E+01  8.42640E+01  8.22927E+01  8.07416E+01  7.98821E+01  7.98293E+01  8.05837E+01
   8.19975E+01  8.38053E+01  8.58926E+01  8.83070E+01  9.10048E+01  9.38536E+01  9.67718E+01  9.96314E+01  1.02361E+02  1.05072E+02
   1.07850E+02  1.10599E+02  1.13167E+02  1.15443E+02  1.17389E+02  1.19045E+02  1.20424E+02  1.21430E+02  1.21992E+02  1.22114E+02
   1.21688E+02  1.20654E+02  1.19098E+02  1.16904E+02  1.13865E+02  1.10085E+02  1.05868E+02  1.01364E+02  9.66928E+01  9.18695E+01
   8.71974E+01  8.39869E+01  8.23841E+01  8.24526E+01  8.44214E+01  8.61457E+01  8.64715E+01  8.48530E+01  8.08146E+01  7.69518E+01
   7.49291E+01  7.27726E+01  6.71683E+01  5.71147E+01  4.59534E+01  3.59811E+01  3.09096E+01  3.27643E+01  3.61182E+01  3.81765E+01
   4.06042E+01  4.21556E+01  4.35246E+01  4.54666E+01  4.61118E+01  4.58577E+01  4.51404E+01  4.44604E+01  4.41775E+01  4.44669E+01
   4.53663E+01  4.68393E+01  4.88050E+01  5.11966E+01  5.39672E+01  5.69856E+01  6.00738E+01  6.31886E+01  6.62812E+01  6.93113E+01
   7.23401E+01  7.54423E+01  7.86390E+01  8.19523E+01  8.54724E+01  8.92531E+01  9.33354E+01  9.78601E+01  1.02878E+02  1.08333E+02
   1.14242E+02  1.20497E+02  1.26615E+02  1.32198E+02  1.37049E+02  1.40808E+02  1.43210E+02  1.44233E+02  1.43842E+02  1.41832E+02
   1.38061E+02  1.32501E+02  1.25483E+02  1.17612E+02  1.09404E+02  1.01059E+02  9.28313E+01  8.48222E+01  7.69319E+01  6.91397E+01
   6.15980E+01  5.44174E+01  4.77174E+01  4.17959E+01  3.67432E+01  3.24054E+01  2.87300E+01  2.57913E+01  2.34837E+01  2.17259E+01
   2.03585E+01  1.92114E+01  1.82646E+01  1.75414E+01  1.70226E+01  1.66283E+01  1.62869E+01  1.60678E+01  1.59861E+01  1.58888E+01
   1.56996E+01  1.55494E+01  1.55613E+01  1.56154E+01  1.56041E+01  1.55892E+01  1.56312E+01  1.56870E+01  1.57170E+01  1.56795E+01
   1.56528E+01  1.57497E+01  1.58779E+01  1.59532E+01  1.59812E+01  1.59857E+01  1.60228E+01  1.61336E+01  1.62809E+01  1.63936E+01
   1.64974E+01  1.65810E+01  1.66455E+01  1.67309E+01  1.68569E+01  1.69497E+01  1.69476E+01  1.68928E+01  1.68801E+01  1.69542E+01
   1.70690E+01  1.72060E+01  1.73338E+01  1.73978E+01  1.74498E+01  1.75966E+01  1.77862E+01  1.79412E+01  1.80728E+01  1.81523E+01
   1.81911E+01  1.82818E+01  1.84074E+01  1.85265E+01  1.86347E+01  1.87409E+01  1.88144E+01  1.88836E+01  1.89453E+01  1.90876E+01
   1.93064E+01  1.95014E+01  1.95857E+01  1.95750E+01  1.95131E+01  1.95159E+01  1.95938E+01  1.96747E+01  1.97929E+01  2.00042E+01
 NY background values follow
     1.589E+02    1.598E+02    1.606E+02    1.615E+02    1.624E+02    1.632E+02    1.641E+02    1.649E+02    1.658E+02    1.667E+02
     1.675E+02    1.683E+02    1.692E+02    1.700E+02    1.708E+02    1.716E+02    1.723E+02    1.731E+02    1.738E+02    1.746E+02
     1.753E+02    1.759E+02    1.766E+02    1.772E+02    1.778E+02    1.784E+02    1.790E+02    1.795E+02    1.800E+02    1.804E+02
     1.808E+02    1.812E+02    1.816E+02    1.819E+02    1.821E+02    1.824E+02    1.826E+02    1.828E+02    1.829E+02    1.830E+02
     1.830E+02    1.830E+02    1.830E+02    1.830E+02    1.829E+02    1.827E+02    1.825E+02    1.823E+02    1.821E+02    1.818E+02
     1.815E+02    1.811E+02    1.807E+02    1.802E+02    1.797E+02    1.792E+02    1.786E+02    1.780E+02    1.774E+02    1.767E+02
     1.760E+02    1.752E+02    1.744E+02    1.736E+02    1.727E+02    1.718E+02    1.708E+02    1.698E+02    1.688E+02    1.678E+02
     1.667E+02    1.657E+02    1.645E+02    1.634E+02    1.623E+02    1.611E+02    1.599E+02    1.587E+02    1.575E+02    1.563E+02
     1.551E+02    1.539E+02    1.526E+02    1.514E+02    1.502E+02    1.489E+02    1.477E+02    1.464E+02    1.452E+02    1.440E+02
     1.428E+02    1.415E+02    1.403E+02    1.392E+02    1.380E+02    1.368E+02    1.356E+02    1.345E+02    1.333E+02    1.322E+02
     1.311E+02    1.300E+02    1.289E+02    1.278E+02    1.267E+02    1.257E+02    1.246E+02    1.236E+02    1.226E+02    1.215E+02
     1.206E+02    1.196E+02    1.186E+02    1.176E+02    1.167E+02    1.158E+02    1.148E+02    1.139E+02    1.131E+02    1.122E+02
     1.113E+02    1.105E+02    1.097E+02    1.088E+02    1.080E+02    1.073E+02    1.065E+02    1.057E+02    1.050E+02    1.043E+02
     1.036E+02    1.029E+02    1.022E+02    1.015E+02    1.008E+02    1.002E+02    9.955E+01    9.892E+01    9.831E+01    9.771E+01
     9.712E+01    9.655E+01    9.598E+01    9.543E+01    9.489E+01    9.435E+01    9.383E+01    9.332E+01    9.282E+01    9.233E+01
     9.186E+01    9.139E+01    9.093E+01    9.048E+01    9.003E+01    8.960E+01    8.918E+01    8.876E+01    8.835E+01    8.795E+01
     8.755E+01    8.717E+01    8.679E+01    8.641E+01    8.604E+01    8.568E+01    8.532E+01    8.497E+01    8.462E+01    8.428E+01
     8.394E+01    8.360E+01    8.327E+01    8.294E+01    8.261E+01    8.229E+01    8.197E+01    8.165E+01    8.133E+01    8.102E+01
     8.070E+01    8.039E+01    8.008E+01    7.976E+01    7.945E+01    7.915E+01    7.884E+01    7.854E+01    7.823E+01    7.793E+01
     7.764E+01    7.734E+01    7.705E+01    7.677E+01    7.648E+01    7.620E+01    7.592E+01    7.565E+01    7.538E+01    7.512E+01
     7.486E+01    7.460E+01    7.435E+01    7.411E+01    7.387E+01    7.363E+01    7.341E+01    7.318E+01    7.297E+01    7.276E+01
     7.255E+01    7.236E+01    7.216E+01    7.198E+01    7.179E+01    7.162E+01    7.144E+01    7.127E+01    7.110E+01    7.094E+01
     7.077E+01    7.061E+01    7.044E+01    7.028E+01    7.011E+01    6.995E+01    6.978E+01    6.961E+01    6.944E+01    6.926E+01
     6.908E+01    6.889E+01    6.870E+01    6.851E+01    6.831E+01    6.810E+01    6.788E+01    6.766E+01    6.743E+01    6.719E+01
     6.694E+01    6.668E+01    6.641E+01    6.613E+01    6.585E+01    6.555E+01    6.525E+01    6.493E+01    6.461E+01    6.428E+01
     6.394E+01    6.359E+01    6.323E+01    6.287E+01    6.249E+01    6.211E+01    6.172E+01    6.132E+01    6.092E+01    6.051E+01
     6.009E+01    5.966E+01    5.923E+01    5.878E+01    5.833E+01    5.788E+01    5.742E+01    5.695E+01    5.647E+01    5.599E+01
     5.550E+01    5.500E+01    5.451E+01    5.400E+01    5.350E+01    5.300E+01    5.251E+01    5.202E+01    5.153E+01    5.105E+01
     5.059E+01    5.013E+01    4.969E+01    4.926E+01    4.885E+01    4.845E+01    4.808E+01    4.772E+01    4.740E+01    4.709E+01
     4.681E+01    4.656E+01    4.634E+01    4.615E+01    4.600E+01    4.588E+01    4.580E+01    4.575E+01    4.575E+01    4.578E+01
     4.586E+01    4.598E+01    4.614E+01    4.634E+01    4.658E+01    4.684E+01    4.714E+01    4.746E+01    4.781E+01    4.818E+01
     4.857E+01    4.898E+01    4.940E+01    4.984E+01    5.028E+01    5.073E+01    5.119E+01    5.164E+01    5.210E+01    5.256E+01
     5.300E+01    5.344E+01    5.387E+01    5.429E+01    5.469E+01    5.508E+01    5.544E+01    5.578E+01    5.609E+01    5.638E+01
     5.663E+01    5.686E+01    5.705E+01    5.721E+01    5.735E+01    5.746E+01    5.754E+01    5.759E+01    5.762E+01    5.762E+01
     5.760E+01    5.756E+01    5.749E+01    5.741E+01    5.730E+01    5.717E+01    5.702E+01    5.685E+01    5.667E+01    5.646E+01
     5.625E+01    5.601E+01    5.576E+01    5.550E+01    5.522E+01    5.493E+01    5.463E+01    5.432E+01    5.400E+01    5.367E+01
     5.333E+01    5.298E+01    5.262E+01    5.226E+01    5.189E+01    5.152E+01    5.113E+01    5.075E+01    5.036E+01    4.996E+01
     4.957E+01    4.916E+01    4.876E+01    4.835E+01    4.795E+01    4.754E+01    4.713E+01    4.672E+01    4.631E+01    4.591E+01
     4.550E+01    4.510E+01    4.470E+01    4.430E+01    4.391E+01    4.352E+01    4.313E+01    4.275E+01    4.238E+01    4.201E+01
     4.165E+01    4.129E+01    4.094E+01    4.060E+01    4.027E+01    3.994E+01    3.961E+01    3.930E+01    3.899E+01    3.868E+01
     3.838E+01    3.809E+01    3.780E+01    3.752E+01    3.724E+01    3.697E+01    3.670E+01    3.643E+01    3.618E+01    3.592E+01
     3.568E+01    3.543E+01    3.519E+01    3.496E+01    3.473E+01    3.450E+01    3.428E+01    3.406E+01    3.384E+01    3.363E+01
     3.342E+01    3.322E+01    3.302E+01    3.282E+01    3.262E+01    3.243E+01    3.224E+01    3.206E+01    3.188E+01    3.170E+01
     3.152E+01    3.135E+01    3.118E+01    3.101E+01    3.084E+01    3.068E+01    3.051E+01    3.036E+01    3.020E+01    3.004E+01
     2.989E+01    2.974E+01    2.959E+01    2.944E+01    2.930E+01    2.915E+01    2.901E+01    2.887E+01    2.873E+01    2.859E+01
     2.845E+01    2.832E+01    2.818E+01    2.805E+01    2.792E+01    2.778E+01    2.765E+01    2.752E+01    2.739E+01    2.726E+01
     2.713E+01    2.700E+01    2.687E+01    2.675E+01    2.662E+01    2.649E+01    2.636E+01    2.623E+01    2.610E+01    2.597E+01
     2.584E+01    2.571E+01    2.558E+01    2.544E+01    2.531E+01    2.517E+01    2.504E+01    2.490E+01    2.476E+01    2.462E+01
 Mac      Conc. = 2.84E-04
   1.40018E+02  1.40351E+02  1.40559E+02  1.40667E+02  1.40723E+02  1.40794E+02  1.40906E+02  1.40954E+02  1.40886E+02  1.40666E+02
   1.40335E+02  1.39970E+02  1.39642E+02  1.39574E+02  1.39995E+02  1.40946E+02  1.42287E+02  1.43611E+02  1.44883E+02  1.46595E+02
   1.49155E+02  1.52274E+02  1.55393E+02  1.58455E+02  1.61555E+02  1.64424E+02  1.67011E+02  1.69387E+02  1.71477E+02  1.73427E+02
   1.75292E+02  1.76959E+02  1.78386E+02  1.79723E+02  1.81104E+02  1.82445E+02  1.83523E+02  1.84259E+02  1.84834E+02  1.85657E+02
   1.86911E+02  1.88305E+02  1.89352E+02  1.89864E+02  1.90098E+02  1.90315E+02  1.90566E+02  1.90711E+02  1.90500E+02  1.89906E+02
   1.89104E+02  1.88140E+02  1.87046E+02  1.85975E+02  1.85054E+02  1.84314E+02  1.83742E+02  1.83246E+02  1.82856E+02  1.82639E+02
   1.82541E+02  1.82315E+02  1.81928E+02  1.81521E+02  1.80987E+02  1.80173E+02  1.79196E+02  1.78176E+02  1.77278E+02  1.76652E+02
   1.76036E+02  1.75272E+02  1.74600E+02  1.74260E+02  1.74105E+02  1.73824E+02  1.73264E+02  1.72429E+02  1.71354E+02  1.70142E+02
   1.68833E+02  1.67496E+02  1.66207E+02  1.64953E+02  1.63751E+02  1.62672E+02  1.61799E+02  1.61050E+02  1.60360E+02  1.59709E+02
   1.58953E+02  1.58013E+02  1.56882E+02  1.55511E+02  1.53887E+02  1.52084E+02  1.50081E+02  1.47825E+02  1.45216E+02  1.42263E+02
   1.38889E+02  1.35160E+02  1.31151E+02  1.26839E+02  1.22213E+02  1.17581E+02  1.13160E+02  1.08911E+02  1.04714E+02  1.00721E+02
