 LCModel (Version 6.3-1N) Copyright: S.W. Provencher.          Ref.: Magn. Reson. Med. 30:672-679 (1993).                
 Slice_N1@14_16  28-Feb-2025 11:37:41
 27 lines in following concentration table = NCONC+1
    Conc.  %SD /Cr+PCr  Metabolite                                         
 2.72E-04   3% 2.7E-04 Mac                                                 
    2.540  36%   2.530 Cr                                                  
    5.491  16%   5.470 PCr                                                 
    6.711  11%   6.685 Ins                                                 
    9.076   7%   9.041 NAA                                                 
    4.358  14%   4.342 Tau                                                 
    0.000 999%   0.000 PCho                                                
    1.696  13%   1.690 GPC                                                 
    6.888  11%   6.862 Glu                                                 
    3.214  19%   3.202 Gln                                                 
    3.391  16%   3.378 Ala                                                 
    3.601  25%   3.587 Asc                                                 
    3.572  24%   3.558 Asp                                                 
 6.74E-02 672% 6.7E-02 GABA                                                
    0.534 126%   0.532 Glc                                                 
    1.171  33%   1.167 GSH                                                 
    2.840  18%   2.829 Lac                                                 
    1.757  25%   1.750 NAAG                                                
    1.303  63%   1.298 PE                                                  
    1.696  13%   1.690 GPC+PCho                                            
   10.833   6%  10.791 NAA+NAAG                                            
   10.103  10%  10.064 Glu+Gln                                             
    8.030   7%   8.000 Cr+PCr                                              
   10.833   6%  10.791 NAA+NAAG                                            
    8.030   7%   8.000 Cr+PCr                                              
   10.103  10%  10.064 Glu+Gln                                             
   6 lines in following misc. output table
  FWHM = 0.033 ppm    S/N =   5                                            
  Data shift = 0.033 ppm                                                   
  Ph:-139 deg       0.0 deg/ppm                                            
  alphaB,S = 1.8E+00,   1.8E+00                                            
   19 spline knots.   Ns = 5(1)                                            
  ( 4) 2 infls.   ( 2) 2 extrs.                                            
  480 points on ppm-axis = NY
      4.100000     4.091866     4.083733     4.075600     4.067466     4.059333     4.051199     4.043066     4.034933     4.026799
      4.018666     4.010532     4.002399     3.994265     3.986132     3.977998     3.969864     3.961731     3.953597     3.945463
      3.937330     3.929196     3.921062     3.912929     3.904795     3.896662     3.888528     3.880394     3.872261     3.864127
      3.855993     3.847860     3.839726     3.831592     3.823459     3.815325     3.807191     3.799058     3.790924     3.782790
      3.774657     3.766523     3.758389     3.750256     3.742122     3.733989     3.725855     3.717721     3.709588     3.701454
      3.693320     3.685187     3.677053     3.668919     3.660786     3.652652     3.644518     3.636385     3.628251     3.620117
      3.611984     3.603850     3.595716     3.587583     3.579449     3.571316     3.563182     3.555048     3.546915     3.538781
      3.530647     3.522514     3.514380     3.506246     3.498113     3.489979     3.481845     3.473712     3.465578     3.457444
      3.449311     3.441177     3.433043     3.424910     3.416776     3.408643     3.400509     3.392375     3.384242     3.376108
      3.367974     3.359841     3.351707     3.343573     3.335440     3.327306     3.319172     3.311039     3.302905     3.294771
      3.286638     3.278504     3.270370     3.262237     3.254103     3.245970     3.237836     3.229702     3.221569     3.213435
      3.205301     3.197168     3.189034     3.180900     3.172767     3.164633     3.156499     3.148366     3.140232     3.132098
      3.123965     3.115831     3.107697     3.099564     3.091430     3.083297     3.075163     3.067029     3.058896     3.050762
      3.042628     3.034495     3.026361     3.018227     3.010094     3.001960     2.993826     2.985693     2.977559     2.969425
      2.961292     2.953158     2.945024     2.936891     2.928757     2.920624     2.912490     2.904356     2.896223     2.888089
      2.879955     2.871822     2.863688     2.855554     2.847421     2.839287     2.831153     2.823020     2.814886     2.806752
      2.798619     2.790485     2.782351     2.774218     2.766084     2.757951     2.749817     2.741683     2.733550     2.725416
      2.717282     2.709149     2.701015     2.692881     2.684748     2.676614     2.668480     2.660347     2.652213     2.644079
      2.635946     2.627812     2.619678     2.611545     2.603411     2.595278     2.587144     2.579010     2.570877     2.562743
      2.554609     2.546476     2.538342     2.530208     2.522075     2.513941     2.505807     2.497674     2.489540     2.481406
      2.473273     2.465139     2.457006     2.448872     2.440738     2.432605     2.424471     2.416337     2.408204     2.400070
      2.391936     2.383803     2.375669     2.367535     2.359402     2.351268     2.343134     2.335001     2.326867     2.318733
      2.310600     2.302466     2.294333     2.286199     2.278065     2.269932     2.261798     2.253664     2.245531     2.237397
      2.229263     2.221130     2.212996     2.204862     2.196729     2.188595     2.180461     2.172328     2.164194     2.156060
      2.147927     2.139793     2.131660     2.123526     2.115392     2.107259     2.099125     2.090991     2.082858     2.074724
      2.066590     2.058457     2.050323     2.042189     2.034056     2.025922     2.017788     2.009655     2.001521     1.993387
      1.985254     1.977120     1.968987     1.960853     1.952719     1.944586     1.936452     1.928318     1.920185     1.912051
      1.903917     1.895784     1.887650     1.879516     1.871383     1.863249     1.855115     1.846982     1.838848     1.830714
      1.822581     1.814447     1.806314     1.798180     1.790046     1.781913     1.773779     1.765645     1.757512     1.749378
      1.741244     1.733111     1.724977     1.716843     1.708710     1.700576     1.692442     1.684309     1.676175     1.668041
      1.659908     1.651774     1.643641     1.635507     1.627373     1.619240     1.611106     1.602972     1.594839     1.586705
      1.578571     1.570438     1.562304     1.554170     1.546037     1.537903     1.529769     1.521636     1.513502     1.505368
      1.497235     1.489101     1.480968     1.472834     1.464700     1.456567     1.448433     1.440299     1.432166     1.424032
      1.415898     1.407765     1.399631     1.391497     1.383364     1.375230     1.367096     1.358963     1.350829     1.342695
      1.334562     1.326428     1.318295     1.310161     1.302027     1.293894     1.285760     1.277626     1.269493     1.261359
      1.253225     1.245092     1.236958     1.228824     1.220691     1.212557     1.204423     1.196290     1.188156     1.180022
      1.171889     1.163755     1.155622     1.147488     1.139354     1.131221     1.123087     1.114953     1.106820     1.098686
      1.090552     1.082419     1.074285     1.066151     1.058018     1.049884     1.041750     1.033617     1.025483     1.017349
      1.009216     1.001082     0.992949     0.984815     0.976681     0.968548     0.960414     0.952280     0.944147     0.936013
      0.927879     0.919746     0.911612     0.903478     0.895345     0.887211     0.879077     0.870944     0.862810     0.854676
      0.846543     0.838409     0.830276     0.822142     0.814008     0.805875     0.797741     0.789607     0.781474     0.773340
      0.765206     0.757073     0.748939     0.740805     0.732672     0.724538     0.716404     0.708271     0.700137     0.692003
      0.683870     0.675736     0.667603     0.659469     0.651335     0.643202     0.635068     0.626934     0.618801     0.610667
      0.602533     0.594400     0.586266     0.578132     0.569999     0.561865     0.553731     0.545598     0.537464     0.529330
      0.521197     0.513063     0.504930     0.496796     0.488662     0.480529     0.472395     0.464261     0.456128     0.447994
      0.439861     0.431727     0.423593     0.415460     0.407326     0.399192     0.391059     0.382925     0.374792     0.366658
      0.358524     0.350391     0.342257     0.334124     0.325990     0.317856     0.309723     0.301589     0.293455     0.285322
      0.277188     0.269055     0.260921     0.252787     0.244654     0.236520     0.228386     0.220253     0.212119     0.203986
 NY phased data points follow
  -9.61374E+01 -9.40611E+01 -1.01793E+02 -1.16363E+02 -9.56741E+01 -9.32192E+01 -9.86160E+01 -1.00673E+02 -9.20147E+01 -7.63101E+01
  -9.21148E+01 -1.01019E+02 -1.00573E+02 -1.04649E+02 -1.01525E+02 -1.04936E+02 -1.09009E+02 -1.22800E+02 -1.31308E+02 -1.60145E+02
  -1.59088E+02 -1.24165E+02 -1.24683E+02 -8.51801E+01 -7.37042E+01 -6.38051E+01 -3.47737E+01 -4.36829E+01 -3.36589E+01 -3.98504E+01
  -3.39519E+01 -3.15982E+01 -4.21071E+01 -4.94105E+01 -4.62717E+01 -3.11036E+01 -4.84018E+01 -4.58970E+01 -5.77858E+01 -8.48779E+01
  -8.52487E+01 -9.24096E+01 -9.78596E+01 -9.57855E+01 -8.33636E+01 -5.55312E+01 -3.54295E+01 -3.01365E+01 -1.36297E+01 -9.14502E+00
  -1.64742E+01 -1.70704E+01 -2.12629E+01 -3.00609E+01 -5.08544E+01 -6.26817E+01 -5.99308E+01 -6.60830E+01 -7.01582E+01 -6.22381E+01
  -6.88692E+01 -7.57628E+01 -5.44734E+01 -4.10459E+01 -3.76852E+01 -1.31116E+01 -1.37373E+01 -4.14034E+01 -6.36856E+01 -8.01343E+01
  -7.63038E+01 -7.20815E+01 -6.34113E+01 -5.62794E+01 -3.23380E+01 -9.47536E+00 -9.65514E+00  4.28302E+00 -7.88490E+00 -1.09218E+01
  -6.40286E+00 -2.21883E+01 -3.50727E+01 -4.73115E+01 -5.02803E+01 -4.99283E+01 -4.61438E+01 -3.94796E+01 -1.37616E+01 -1.66932E+01
  -9.04121E+00  2.06471E+01  9.27730E+00  1.35897E+01  1.41545E+01  1.11456E+01  1.03751E+01  1.64441E+01  1.97843E+01  1.25360E+01
   1.81818E+01  4.14126E+00 -1.06382E+00 -1.89781E+01 -3.66269E+01 -3.47105E+01 -3.70040E+01 -4.24526E+01 -6.47254E+01 -9.80377E+01
  -1.55189E+02 -1.67912E+02 -1.48386E+02 -1.33541E+02 -1.07596E+02 -1.00048E+02 -8.16021E+01 -7.36801E+01 -7.08361E+01 -6.05500E+01
  -5.30018E+01 -3.85850E+01 -3.41176E+01 -2.47112E+01 -2.10825E+01 -2.03591E+01 -9.13218E+00  1.12798E+01  2.86656E+01  6.40041E+01
   1.02221E+02  5.83449E+01 -7.30723E+00 -6.74349E+01 -1.28266E+02 -1.37271E+02 -1.25412E+02 -1.20361E+02 -1.02379E+02 -8.91846E+01
  -1.06937E+02 -1.00061E+02 -1.13126E+02 -1.16154E+02 -8.51997E+01 -1.10954E+02 -9.18642E+01 -9.09840E+01 -1.06818E+02 -7.36475E+01
  -8.48488E+01 -7.57134E+01 -7.08524E+01 -8.55218E+01 -7.69868E+01 -7.59141E+01 -7.08979E+01 -6.01215E+01 -6.53412E+01 -6.42488E+01
  -5.09193E+01 -5.61842E+01 -6.05098E+01 -5.64145E+01 -5.37568E+01 -6.46614E+01 -5.93856E+01 -6.74695E+01 -7.12933E+01 -5.07570E+01
  -6.15339E+01 -2.70601E+01 -1.53463E+01 -3.81458E+01 -4.21880E+01 -4.30918E+01 -2.27093E+01 -2.07904E+01 -2.11814E+01 -4.21047E+01
  -5.16785E+01 -5.29002E+01 -7.58422E+01 -7.84716E+01 -7.39485E+01 -7.59547E+01 -6.79612E+01 -6.74698E+01 -8.60660E+01 -5.41196E+01
  -4.91705E+01 -6.71453E+01 -5.36235E+01 -5.25121E+01 -4.85461E+01 -4.72088E+01 -4.17035E+01 -5.10467E+01 -3.57146E+01 -4.67409E+01
  -6.41711E+01 -4.11441E+01 -4.25215E+01 -2.65629E+01 -3.71254E+01 -4.33807E+01 -4.44188E+01 -5.95550E+01 -5.91214E+01 -6.38609E+01
  -6.77250E+01 -7.20754E+01 -5.63549E+01 -6.64678E+01 -4.68881E+01 -1.21456E+01 -1.70407E+01  1.23494E+01  1.42704E+01 -1.61051E+01
  -3.31392E+01 -4.41053E+01 -3.71015E+01 -3.83866E+01 -5.08289E+01 -5.04914E+01 -4.84227E+01 -4.17873E+01 -4.49743E+01 -3.82588E+01
  -3.77456E+01 -5.71026E+01 -3.85924E+01 -5.86449E+01 -8.27068E+01 -7.61519E+01 -9.35193E+01 -8.91553E+01 -8.07775E+01 -8.29138E+01
  -9.08363E+01 -8.07999E+01 -6.27554E+01 -6.68534E+01 -5.77261E+01 -4.11322E+01 -4.27113E+01 -5.00666E+01 -5.51965E+01 -5.69355E+01
  -5.16888E+01 -5.90006E+01 -6.79652E+01 -7.13234E+01 -9.32298E+01 -1.43090E+02 -1.30338E+02 -3.42970E+01  4.67348E+01  1.02777E+02
   1.18106E+02  1.22913E+02  1.03201E+02  7.50154E+01  7.63262E+01  5.86423E+01  5.82055E+01  4.11125E+01  3.98859E+01  4.95532E+01
   3.59370E+01  3.80007E+01  2.99452E+01  5.15168E+01  5.14008E+01  3.77162E+01  4.28507E+01  4.66160E+01  5.85644E+01  4.54861E+01
   4.66123E+01  4.60748E+01  4.40417E+01  4.16109E+01  3.17146E+01  3.17169E+01  2.14145E+01  3.20357E+01  3.46913E+01  2.95453E+01
   3.78123E+01  3.10413E+01  2.13250E+01  2.17738E+01  1.53247E+01  1.21914E+01  1.12985E+01 -4.63264E+00  2.10456E+00  3.58878E+00
   4.49857E+00  8.58033E+00 -1.18136E+00  3.44648E-01 -5.97820E+00  1.18230E+00  5.70857E+00  1.21051E+01  2.48981E+01  2.27072E+01
   3.31841E+01  3.64760E+01  3.18857E+01  4.11398E+01  3.85829E+01  3.36204E+01  5.39103E+01  5.26952E+01  5.06868E+01  4.35276E+01
   3.10811E+01  3.12926E+01  6.58929E+00  6.02817E+00 -2.03572E+01 -3.25115E+01 -2.35174E+01 -5.92125E+01 -5.05574E+01 -5.15198E+01
  -6.01804E+01 -6.26011E+01 -6.78124E+01 -3.49516E+01 -3.72591E+01 -4.41235E+01 -2.10141E+01 -1.21845E+01  3.79073E+00  1.72406E+01
   2.64718E+01  2.69137E+01  1.05804E+01  2.60253E+01  2.15489E+01  2.70015E+00  1.45434E+01  5.52739E+00 -7.48449E+00 -1.58755E+01
  -2.04731E+01 -2.24835E+01 -3.49428E+01 -3.42125E+01 -3.77485E+01 -6.02782E+01 -5.72022E+01 -5.18626E+01 -5.69581E+01 -5.42766E+01
  -6.61684E+01 -6.16943E+01 -5.92690E+01 -5.14564E+01 -3.76225E+01 -3.64000E+01 -3.58236E+01 -3.72591E+01 -9.58273E+00 -5.50192E+00
  -9.15381E+00 -1.32837E+01 -1.63857E+01  1.37540E+00  2.34593E+00  1.37344E+01 -2.64115E+00  2.13601E+00  3.00339E+01  2.67126E+01
   3.87694E+01  4.12969E+01  5.29942E+01  6.34923E+01  5.62709E+01  6.83550E+01  7.78659E+01  8.72435E+01  9.36953E+01  8.04790E+01
   7.80420E+01  7.58828E+01  4.68758E+01  2.55942E+01  2.98785E+01  1.75762E+01  9.28938E+00  1.26183E+01 -2.99112E+00 -7.56826E+00
  -1.90659E+01 -2.46830E+01 -3.68718E+01 -4.32108E+01 -3.11533E+01 -3.53548E+01 -3.71926E+01 -6.46734E+01 -5.02767E+01 -4.91774E+01
  -6.66721E+01 -3.80048E+01 -4.55838E+01 -4.02893E+01 -4.03716E+01 -3.95261E+01 -3.02129E+01 -4.15182E+01 -4.15950E+01 -4.24171E+01
  -4.31360E+01 -4.25734E+01 -4.15077E+01 -3.97144E+01 -3.35070E+01 -4.48354E+01 -4.61283E+01 -4.57779E+01 -4.70187E+01 -4.22066E+01
  -4.63093E+01 -4.20085E+01 -4.65705E+01 -3.50624E+01 -4.02684E+01 -4.13987E+01 -4.25764E+01 -4.89467E+01 -3.74108E+01 -4.15786E+01
  -2.86434E+01 -3.43795E+01 -3.51460E+01 -3.95585E+01 -4.00422E+01 -2.96034E+01 -3.12377E+01 -2.28920E+01 -3.87987E+01 -3.86057E+01
  -5.00953E+01 -3.99266E+01 -2.25166E+01 -3.72768E+01 -2.81257E+01 -3.51967E+01 -3.75729E+01 -3.97305E+01 -3.02366E+01 -1.80995E+01
  -2.93438E+01 -2.17925E+01 -2.12158E+01 -3.95852E+01 -3.99764E+01 -2.66765E+01 -3.64736E+01 -4.68272E+01 -3.88028E+01 -3.76663E+01
  -3.92160E+01 -2.96223E+01 -3.70394E+01 -3.57113E+01 -1.69811E+01 -3.24254E+01 -3.65552E+01 -3.08782E+01 -4.34833E+01 -3.39604E+01
 NY points of the fit to the data follow
  -9.33898E+01 -9.89401E+01 -1.04910E+02 -1.08735E+02 -1.02096E+02 -8.57586E+01 -7.39638E+01 -6.99050E+01 -7.46307E+01 -8.24848E+01
  -9.12609E+01 -9.60532E+01 -9.68973E+01 -9.74120E+01 -9.57807E+01 -9.51129E+01 -1.00713E+02 -1.06477E+02 -1.21525E+02 -1.48731E+02
  -1.45158E+02 -1.23062E+02 -1.10382E+02 -8.21361E+01 -6.31176E+01 -4.91943E+01 -4.08097E+01 -3.32970E+01 -2.55456E+01 -2.32549E+01
  -2.24452E+01 -2.24009E+01 -2.45681E+01 -2.71576E+01 -3.06712E+01 -3.32092E+01 -3.78440E+01 -4.67373E+01 -6.07426E+01 -8.28625E+01
  -1.00788E+02 -1.04585E+02 -1.02147E+02 -9.06877E+01 -7.58317E+01 -5.68895E+01 -4.29917E+01 -3.13574E+01 -2.25498E+01 -1.93860E+01
  -1.75201E+01 -2.11136E+01 -2.89671E+01 -3.83152E+01 -4.88385E+01 -5.58153E+01 -5.31960E+01 -5.95340E+01 -7.12518E+01 -6.91930E+01
  -6.83559E+01 -6.62590E+01 -5.41522E+01 -3.87422E+01 -2.30307E+01 -1.45963E+01 -1.22694E+01 -2.31553E+01 -5.03580E+01 -6.70203E+01
  -7.06493E+01 -7.24724E+01 -6.55917E+01 -5.23299E+01 -3.80471E+01 -2.60052E+01 -1.70647E+01 -1.07884E+01 -5.29103E+00 -5.42165E+00
  -9.23141E+00 -1.68447E+01 -3.18418E+01 -4.43827E+01 -5.09456E+01 -5.40286E+01 -4.37808E+01 -3.62503E+01 -2.47192E+01 -1.81072E+01
  -1.21810E+01 -8.31763E+00 -4.92951E+00 -1.48424E+00  2.09130E+00  4.50268E+00  7.44579E+00  1.02571E+01  8.49672E+00  9.52667E+00
   1.35838E+01  5.31895E+00 -4.10807E+00 -1.61359E+01 -2.94887E+01 -3.49181E+01 -3.42501E+01 -3.03124E+01 -5.09636E+01 -1.08980E+02
  -1.43981E+02 -1.59759E+02 -1.51137E+02 -1.30059E+02 -1.08533E+02 -9.05871E+01 -8.13580E+01 -7.39434E+01 -6.72288E+01 -6.10376E+01
  -5.50379E+01 -4.90552E+01 -4.20613E+01 -3.35066E+01 -2.39009E+01 -1.51804E+01 -6.94737E+00  1.32660E+01  3.34265E+01  6.49614E+01
   1.00057E+02  6.77779E+01 -1.21655E+01 -7.58643E+01 -1.25539E+02 -1.36591E+02 -1.34664E+02 -1.19223E+02 -1.09965E+02 -1.06464E+02
  -1.04324E+02 -1.04022E+02 -1.03824E+02 -1.03825E+02 -1.03541E+02 -1.02039E+02 -9.95586E+01 -9.60186E+01 -9.28280E+01 -8.96431E+01
  -8.74691E+01 -8.55862E+01 -8.32557E+01 -8.01405E+01 -7.56620E+01 -7.14760E+01 -6.95678E+01 -6.95889E+01 -6.96242E+01 -6.74446E+01
  -6.26973E+01 -5.86478E+01 -5.94211E+01 -6.24686E+01 -6.51397E+01 -6.64431E+01 -6.77572E+01 -7.03938E+01 -7.05176E+01 -6.74465E+01
  -5.72107E+01 -4.18176E+01 -3.37900E+01 -3.55303E+01 -3.75826E+01 -3.63445E+01 -2.96547E+01 -2.55807E+01 -3.10092E+01 -3.97951E+01
  -5.03420E+01 -6.07688E+01 -6.66127E+01 -7.05817E+01 -7.13116E+01 -7.19012E+01 -7.15837E+01 -7.00642E+01 -6.94205E+01 -6.97510E+01
  -6.68569E+01 -6.70996E+01 -6.70546E+01 -5.73976E+01 -5.17151E+01 -5.03411E+01 -4.53314E+01 -4.29623E+01 -3.83144E+01 -3.79721E+01
  -4.05841E+01 -3.67947E+01 -3.51706E+01 -3.35223E+01 -3.48534E+01 -3.77636E+01 -4.11302E+01 -4.79811E+01 -5.45464E+01 -5.97508E+01
  -6.82583E+01 -7.19096E+01 -6.92137E+01 -6.46381E+01 -4.66960E+01 -2.68586E+01 -1.57906E+01 -2.53251E+00 -3.58270E+00 -7.63725E+00
  -1.43899E+01 -1.90398E+01 -1.96134E+01 -1.95670E+01 -1.81719E+01 -1.86032E+01 -2.18483E+01 -2.71356E+01 -3.48337E+01 -4.37909E+01
  -5.36734E+01 -6.48029E+01 -7.39101E+01 -8.34644E+01 -9.17954E+01 -9.50748E+01 -9.79369E+01 -9.80990E+01 -9.36042E+01 -9.19286E+01
  -8.84365E+01 -8.23983E+01 -7.70246E+01 -6.80856E+01 -6.05251E+01 -5.62739E+01 -5.18640E+01 -5.43383E+01 -5.60886E+01 -6.11980E+01
  -6.50822E+01 -6.46989E+01 -7.89729E+01 -7.87778E+01 -9.79764E+01 -1.49324E+02 -1.27879E+02 -4.53525E+01  2.18178E+01  8.25052E+01
   9.61547E+01  9.73191E+01  7.78674E+01  6.52934E+01  5.97705E+01  5.54962E+01  5.15388E+01  4.79570E+01  4.46462E+01  4.26132E+01
   4.10487E+01  4.00866E+01  3.96665E+01  3.90376E+01  3.83493E+01  3.75991E+01  3.69184E+01  3.63891E+01  3.55296E+01  3.45248E+01
   3.29496E+01  3.13705E+01  2.98598E+01  2.79657E+01  2.62704E+01  2.44919E+01  2.25338E+01  2.05896E+01  1.78828E+01  1.47251E+01
   1.12079E+01  7.00767E+00  2.67983E+00 -9.48458E-01 -3.30349E+00 -3.96435E+00 -3.12424E+00 -1.16882E+00  1.11754E+00  3.80309E+00
   6.76449E+00  9.74922E+00  1.27003E+01  1.53297E+01  1.77636E+01  1.98323E+01  2.22790E+01  2.50935E+01  2.78488E+01  3.06351E+01
   3.30545E+01  3.51155E+01  3.75384E+01  3.96089E+01  4.12895E+01  4.27648E+01  4.40214E+01  4.65644E+01  4.93148E+01  5.17965E+01
   5.40633E+01  4.25199E+01  2.29231E+01  4.00345E+00 -2.00733E+01 -3.45569E+01 -3.78943E+01 -4.00159E+01 -3.81006E+01 -4.14881E+01
  -4.39020E+01 -4.82107E+01 -5.02378E+01 -4.92650E+01 -4.52644E+01 -3.98616E+01 -3.41213E+01 -2.80089E+01 -2.06181E+01 -1.40297E+01
  -3.15848E+00  2.93023E+00 -2.27688E+00 -9.47647E+00 -2.35951E+01 -3.75044E+01 -3.83038E+01 -3.79161E+01 -2.95509E+01 -2.60192E+01
  -2.22973E+01 -2.30182E+01 -2.59699E+01 -3.01389E+01 -3.39028E+01 -3.67232E+01 -3.82877E+01 -3.79476E+01 -3.66254E+01 -3.39926E+01
  -3.06832E+01 -2.69999E+01 -2.29199E+01 -1.90852E+01 -1.53929E+01 -1.19498E+01 -8.96404E+00 -5.88777E+00 -2.80062E+00  8.56785E-02
   3.02575E+00  6.04125E+00  8.86242E+00  1.20731E+01  1.60872E+01  2.02445E+01  2.47885E+01  3.03936E+01  3.63369E+01  4.25549E+01
   4.95758E+01  5.77092E+01  6.64330E+01  7.53959E+01  8.36552E+01  8.92378E+01  9.07193E+01  8.68909E+01  7.83655E+01  6.72673E+01
   5.60765E+01  4.61387E+01  3.80864E+01  3.20499E+01  2.65301E+01  1.99823E+01  1.21417E+01  3.44244E+00 -6.33813E+00 -1.53517E+01
  -2.30296E+01 -2.90850E+01 -3.36068E+01 -3.69396E+01 -3.88132E+01 -4.02045E+01 -4.10992E+01 -4.20024E+01 -4.29009E+01 -4.37501E+01
  -4.43239E+01 -4.44675E+01 -4.44439E+01 -4.43704E+01 -4.41149E+01 -4.38083E+01 -4.37605E+01 -4.40604E+01 -4.36771E+01 -4.32238E+01
  -4.29345E+01 -4.26935E+01 -4.24972E+01 -4.21919E+01 -4.20589E+01 -4.20341E+01 -4.19171E+01 -4.13888E+01 -4.08528E+01 -4.04226E+01
  -4.01135E+01 -4.01067E+01 -4.01608E+01 -4.01866E+01 -3.98857E+01 -3.95718E+01 -3.91130E+01 -3.85308E+01 -3.81392E+01 -3.76765E+01
  -3.73694E+01 -3.69650E+01 -3.70023E+01 -3.70836E+01 -3.71683E+01 -3.69361E+01 -3.65803E+01 -3.62619E+01 -3.57651E+01 -3.55575E+01
  -3.56048E+01 -3.53497E+01 -3.50347E+01 -3.46569E+01 -3.41795E+01 -3.37727E+01 -3.34473E+01 -3.30802E+01 -3.27693E+01 -3.24262E+01
  -3.22003E+01 -3.21954E+01 -3.22135E+01 -3.21130E+01 -3.20027E+01 -3.15062E+01 -3.07631E+01 -2.99615E+01 -2.94125E+01 -2.92290E+01
  -2.92355E+01 -2.94649E+01 -2.91897E+01 -2.89940E+01 -2.87388E+01 -2.83075E+01 -2.78736E+01 -2.78926E+01 -2.77731E+01 -2.75337E+01
 NY background values follow
    -5.762E+01   -5.749E+01   -5.735E+01   -5.722E+01   -5.709E+01   -5.696E+01   -5.683E+01   -5.669E+01   -5.656E+01   -5.643E+01
    -5.630E+01   -5.617E+01   -5.603E+01   -5.590E+01   -5.577E+01   -5.564E+01   -5.551E+01   -5.537E+01   -5.524E+01   -5.511E+01
    -5.498E+01   -5.485E+01   -5.472E+01   -5.458E+01   -5.445E+01   -5.432E+01   -5.419E+01   -5.406E+01   -5.392E+01   -5.379E+01
    -5.366E+01   -5.353E+01   -5.340E+01   -5.327E+01   -5.314E+01   -5.300E+01   -5.287E+01   -5.274E+01   -5.261E+01   -5.248E+01
    -5.235E+01   -5.222E+01   -5.209E+01   -5.195E+01   -5.182E+01   -5.169E+01   -5.156E+01   -5.143E+01   -5.130E+01   -5.117E+01
    -5.104E+01   -5.091E+01   -5.078E+01   -5.065E+01   -5.052E+01   -5.039E+01   -5.026E+01   -5.013E+01   -5.000E+01   -4.987E+01
    -4.974E+01   -4.961E+01   -4.949E+01   -4.936E+01   -4.923E+01   -4.910E+01   -4.897E+01   -4.884E+01   -4.872E+01   -4.859E+01
    -4.846E+01   -4.833E+01   -4.821E+01   -4.808E+01   -4.795E+01   -4.782E+01   -4.770E+01   -4.757E+01   -4.745E+01   -4.732E+01
    -4.719E+01   -4.707E+01   -4.694E+01   -4.682E+01   -4.669E+01   -4.657E+01   -4.644E+01   -4.632E+01   -4.620E+01   -4.607E+01
    -4.595E+01   -4.583E+01   -4.570E+01   -4.558E+01   -4.546E+01   -4.533E+01   -4.521E+01   -4.509E+01   -4.497E+01   -4.485E+01
    -4.473E+01   -4.461E+01   -4.449E+01   -4.437E+01   -4.425E+01   -4.413E+01   -4.401E+01   -4.389E+01   -4.377E+01   -4.365E+01
    -4.353E+01   -4.341E+01   -4.330E+01   -4.318E+01   -4.306E+01   -4.295E+01   -4.283E+01   -4.271E+01   -4.260E+01   -4.248E+01
    -4.237E+01   -4.225E+01   -4.214E+01   -4.202E+01   -4.191E+01   -4.180E+01   -4.168E+01   -4.157E+01   -4.146E+01   -4.134E+01
    -4.123E+01   -4.112E+01   -4.101E+01   -4.090E+01   -4.079E+01   -4.068E+01   -4.057E+01   -4.046E+01   -4.035E+01   -4.024E+01
    -4.013E+01   -4.003E+01   -3.992E+01   -3.981E+01   -3.970E+01   -3.960E+01   -3.949E+01   -3.939E+01   -3.928E+01   -3.918E+01
    -3.907E+01   -3.897E+01   -3.886E+01   -3.876E+01   -3.866E+01   -3.856E+01   -3.845E+01   -3.835E+01   -3.825E+01   -3.815E+01
    -3.805E+01   -3.795E+01   -3.785E+01   -3.775E+01   -3.765E+01   -3.755E+01   -3.746E+01   -3.736E+01   -3.726E+01   -3.717E+01
    -3.707E+01   -3.697E+01   -3.688E+01   -3.678E+01   -3.669E+01   -3.659E+01   -3.650E+01   -3.641E+01   -3.632E+01   -3.622E+01
    -3.613E+01   -3.604E+01   -3.595E+01   -3.586E+01   -3.577E+01   -3.568E+01   -3.559E+01   -3.550E+01   -3.541E+01   -3.533E+01
    -3.524E+01   -3.515E+01   -3.507E+01   -3.498E+01   -3.489E+01   -3.481E+01   -3.472E+01   -3.464E+01   -3.456E+01   -3.447E+01
    -3.439E+01   -3.431E+01   -3.423E+01   -3.414E+01   -3.406E+01   -3.398E+01   -3.390E+01   -3.382E+01   -3.374E+01   -3.367E+01
    -3.359E+01   -3.351E+01   -3.343E+01   -3.336E+01   -3.328E+01   -3.320E+01   -3.313E+01   -3.305E+01   -3.298E+01   -3.291E+01
    -3.283E+01   -3.276E+01   -3.269E+01   -3.261E+01   -3.254E+01   -3.247E+01   -3.240E+01   -3.233E+01   -3.226E+01   -3.219E+01
    -3.212E+01   -3.206E+01   -3.199E+01   -3.192E+01   -3.185E+01   -3.179E+01   -3.172E+01   -3.166E+01   -3.159E+01   -3.153E+01
    -3.147E+01   -3.140E+01   -3.134E+01   -3.128E+01   -3.122E+01   -3.116E+01   -3.110E+01   -3.104E+01   -3.098E+01   -3.092E+01
    -3.086E+01   -3.080E+01   -3.074E+01   -3.069E+01   -3.063E+01   -3.058E+01   -3.052E+01   -3.047E+01   -3.041E+01   -3.036E+01
    -3.031E+01   -3.025E+01   -3.020E+01   -3.015E+01   -3.010E+01   -3.005E+01   -3.000E+01   -2.995E+01   -2.990E+01   -2.985E+01
    -2.980E+01   -2.976E+01   -2.971E+01   -2.966E+01   -2.962E+01   -2.957E+01   -2.953E+01   -2.948E+01   -2.944E+01   -2.940E+01
    -2.935E+01   -2.931E+01   -2.927E+01   -2.923E+01   -2.919E+01   -2.915E+01   -2.911E+01   -2.907E+01   -2.903E+01   -2.899E+01
    -2.895E+01   -2.892E+01   -2.888E+01   -2.884E+01   -2.881E+01   -2.877E+01   -2.874E+01   -2.870E+01   -2.867E+01   -2.863E+01
    -2.860E+01   -2.856E+01   -2.853E+01   -2.850E+01   -2.847E+01   -2.844E+01   -2.840E+01   -2.837E+01   -2.834E+01   -2.831E+01
    -2.828E+01   -2.825E+01   -2.822E+01   -2.820E+01   -2.817E+01   -2.814E+01   -2.811E+01   -2.809E+01   -2.806E+01   -2.803E+01
    -2.801E+01   -2.798E+01   -2.795E+01   -2.793E+01   -2.790E+01   -2.788E+01   -2.786E+01   -2.783E+01   -2.781E+01   -2.779E+01
    -2.776E+01   -2.774E+01   -2.772E+01   -2.769E+01   -2.767E+01   -2.765E+01   -2.763E+01   -2.761E+01   -2.759E+01   -2.757E+01
    -2.755E+01   -2.753E+01   -2.751E+01   -2.749E+01   -2.747E+01   -2.745E+01   -2.743E+01   -2.741E+01   -2.740E+01   -2.738E+01
    -2.736E+01   -2.734E+01   -2.732E+01   -2.731E+01   -2.729E+01   -2.727E+01   -2.725E+01   -2.724E+01   -2.722E+01   -2.721E+01
    -2.719E+01   -2.717E+01   -2.716E+01   -2.714E+01   -2.712E+01   -2.711E+01   -2.709E+01   -2.708E+01   -2.706E+01   -2.705E+01
    -2.703E+01   -2.702E+01   -2.700E+01   -2.699E+01   -2.697E+01   -2.696E+01   -2.694E+01   -2.693E+01   -2.692E+01   -2.690E+01
    -2.689E+01   -2.687E+01   -2.686E+01   -2.685E+01   -2.683E+01   -2.682E+01   -2.681E+01   -2.679E+01   -2.678E+01   -2.677E+01
    -2.675E+01   -2.674E+01   -2.673E+01   -2.671E+01   -2.670E+01   -2.669E+01   -2.667E+01   -2.666E+01   -2.665E+01   -2.663E+01
    -2.662E+01   -2.661E+01   -2.660E+01   -2.658E+01   -2.657E+01   -2.656E+01   -2.655E+01   -2.653E+01   -2.652E+01   -2.651E+01
    -2.650E+01   -2.649E+01   -2.647E+01   -2.646E+01   -2.645E+01   -2.644E+01   -2.643E+01   -2.641E+01   -2.640E+01   -2.639E+01
    -2.638E+01   -2.637E+01   -2.636E+01   -2.634E+01   -2.633E+01   -2.632E+01   -2.631E+01   -2.630E+01   -2.629E+01   -2.628E+01
    -2.626E+01   -2.625E+01   -2.624E+01   -2.623E+01   -2.622E+01   -2.621E+01   -2.620E+01   -2.619E+01   -2.618E+01   -2.616E+01
    -2.615E+01   -2.614E+01   -2.613E+01   -2.612E+01   -2.611E+01   -2.610E+01   -2.609E+01   -2.608E+01   -2.607E+01   -2.606E+01
    -2.605E+01   -2.604E+01   -2.602E+01   -2.601E+01   -2.600E+01   -2.599E+01   -2.598E+01   -2.597E+01   -2.596E+01   -2.595E+01
    -2.594E+01   -2.593E+01   -2.592E+01   -2.591E+01   -2.590E+01   -2.589E+01   -2.588E+01   -2.587E+01   -2.586E+01   -2.585E+01
    -2.584E+01   -2.583E+01   -2.581E+01   -2.580E+01   -2.579E+01   -2.578E+01   -2.577E+01   -2.576E+01   -2.575E+01   -2.574E+01
 Mac      Conc. = 2.72E-04
  -7.72937E+01 -7.73600E+01 -7.71309E+01 -7.71965E+01 -7.76308E+01 -7.88634E+01 -8.04806E+01 -8.23798E+01 -8.39742E+01 -8.47346E+01
  -8.48639E+01 -8.45294E+01 -8.45244E+01 -8.57797E+01 -8.78584E+01 -9.05794E+01 -9.04719E+01 -8.73273E+01 -8.33620E+01 -7.84967E+01
  -7.36912E+01 -7.00056E+01 -6.77580E+01 -6.64971E+01 -6.53342E+01 -6.40910E+01 -6.25529E+01 -6.03317E+01 -5.81719E+01 -5.60947E+01
  -5.45428E+01 -5.32586E+01 -5.28755E+01 -5.33109E+01 -5.38788E+01 -5.38137E+01 -5.21897E+01 -4.95493E+01 -4.71680E+01 -4.62073E+01
  -4.60208E+01 -4.59877E+01 -4.53559E+01 -4.37831E+01 -4.21862E+01 -4.10366E+01 -4.07777E+01 -4.12157E+01 -4.23326E+01 -4.39561E+01
  -4.50338E+01 -4.61874E+01 -4.70436E+01 -4.76356E+01 -4.81640E+01 -4.81003E+01 -4.70548E+01 -4.56531E+01 -4.43115E+01 -4.22658E+01
  -4.05270E+01 -3.94667E+01 -3.90947E+01 -3.95555E+01 -4.05086E+01 -4.14493E+01 -4.23739E+01 -4.31259E+01 -4.37994E+01 -4.28862E+01
  -4.07586E+01 -3.80180E+01 -3.55652E+01 -3.35202E+01 -3.25444E+01 -3.23904E+01 -3.27870E+01 -3.36191E+01 -3.43536E+01 -3.50498E+01
  -3.57739E+01 -3.61259E+01 -3.58959E+01 -3.52983E+01 -3.43574E+01 -3.33062E+01 -3.23383E+01 -3.13508E+01 -3.09051E+01 -2.99607E+01
  -2.94316E+01 -2.87914E+01 -2.82716E+01 -2.82312E+01 -2.92482E+01 -3.07881E+01 -3.31447E+01 -3.56459E+01 -3.77098E+01 -3.90436E+01
  -4.04071E+01 -4.18666E+01 -4.38581E+01 -4.72550E+01 -5.22962E+01 -5.94106E+01 -6.68061E+01 -7.24925E+01 -7.58920E+01 -7.62640E+01
