 
 $NMID
 ID=''
 FMTDAT='(2E13.5)'
 TRAMP=   1.00000E+0
 VOLUME=   1.00000E+0
 $END
   2.12258E+4   1.11889E+4
   3.48224E+4  -7.22338E+3
   9.27286E+1  -3.12165E+4
  -3.46565E+4   8.07594E+3
  -1.19535E+3   3.12274E+4
   2.99279E+4  -4.88726E+3
   1.32702E+3  -2.05702E+4
  -1.99402E+4   5.71275E+3
  -1.29765E+3   1.44556E+4
   9.35765E+3   9.35232E+2
  -2.42266E+2  -4.95747E+3
  -5.70640E+3  -2.28909E+3
  -1.75962E+3   1.37401E+3
   1.47409E+3   1.43272E+3
   9.93136E+2  -2.18882E+3
   1.17745E+3  -2.23342E+3
   1.69286E+3   9.26464E+2
  -1.24928E+2   4.62478E+2
  -1.45177E+3   3.73096E+2
   6.10765E+2   6.30241E+2
   1.31330E+3  -1.29955E+3
   2.86277E+2  -4.55427E+2
   4.13047E+2   2.39331E+3
  -7.88621E+2   5.79550E+1
  -3.77369E+2  -2.34179E+3
   1.72783E+3   3.91418E+2
  -1.64916E+2   2.71825E+3
  -2.63630E+3   5.52105E+2
   3.27242E+2  -2.43805E+3
   2.10554E+3  -6.39410E+2
  -9.34287E+2   1.39315E+3
  -2.14575E+3   2.79089E+2
  -6.05269E+2  -1.38057E+3
   2.85504E+1  -1.23388E+3
   3.99202E+2  -1.38714E+3
   1.47173E+3  -6.94313E+2
   7.00885E+2   1.56075E+3
  -1.14558E+3   1.47310E+3
  -6.68136E+2  -5.16734E+2
   1.01099E+2  -4.69221E+2
  -5.54204E+2   4.39313E+2
  -1.16252E+3  -7.90056E+2
   4.51990E+2  -1.16944E+3
   1.69855E+3  -1.04868E+2
   1.17591E+3   1.11956E+3
   1.18800E+2   1.46313E+3
  -1.19891E+3   1.31624E+3
  -1.27449E+3  -2.13777E+2
  -9.23930E+2  -1.21867E+3
   3.03240E+1  -6.29063E+2
   8.70038E+1  -3.18768E+2
   4.12777E+2  -6.04329E+2
   6.07627E+2  -1.18847E+2
   1.61908E+2   5.04654E+2
   2.91992E+2   5.33642E+2
  -3.89224E+1   5.96729E+2
  -8.96562E+2   6.13340E+2
  -8.33334E+2  -6.91257E+2
   1.15150E+3  -1.31992E+3
   1.57636E+3   1.70557E+2
   4.82961E+2   1.26123E+3
  -1.80681E+1   6.60142E+2
   6.05674E+2   2.63437E+2
  -5.44575E+2   1.07403E+3
  -1.98700E+3   8.00720E+2
  -1.40116E+3  -1.23565E+3
   4.32288E+2  -1.98104E+3
   1.35938E+3  -8.05818E+2
   8.27876E+2   6.07473E+2
   6.89613E+1   3.63096E+2
   1.53997E+2  -4.92664E+2
   3.43179E+2  -2.37266E+2
   6.18748E+2   1.95576E+2
   4.47290E+2   4.90028E+2
   3.29338E+2   5.74971E+2
   1.37966E+1  -7.41366E+1
   2.44264E+2  -1.05382E+2
   8.13826E+1  -1.63652E+2
  -1.73099E+2   3.39712E+2
  -2.91913E+2   3.00149E+2
  -5.06298E+2  -2.32569E+2
  -1.74192E+2  -1.15233E+3
   5.99321E+2  -5.07263E+2
  -1.29084E+1   5.13530E+2
  -4.83488E+2  -3.51519E+2
   3.16055E-1  -9.41673E+2
   7.92200E+2  -3.17063E+2
   4.89637E+2   5.43128E+2
  -4.89033E+1   2.51284E+1
   1.45870E+2  -5.93195E+2
   7.62856E+2  -2.63601E+2
   1.52632E+2   6.13712E+2
  -1.90831E+2   6.63877E+2
  -4.72983E+2   3.86096E+2
  -5.63968E+2  -1.86056E+2
  -2.11396E+2  -7.44782E+2
   2.79280E+1  -4.78021E+2
   4.15383E+2   1.30879E+1
   2.46695E+1  -6.71169E+0
   3.05051E+2  -3.44727E+2
   4.71067E+2  -3.56625E+2
   4.25699E+2   5.44335E+2
   4.84344E+1   8.95036E+2
  -5.15452E+2  -1.70443E+2
  -5.12519E+1  -7.26383E+2
   6.93371E+2  -1.07119E+2
   4.79841E+2   1.10040E+3
  -5.03096E+2   5.58026E+2
  -5.35047E+2  -4.83762E+2
   3.33967E+2  -9.69882E+2
   5.98404E+2  -3.32154E+2
   6.06667E+2   1.40190E+2
   2.08609E+2   4.44592E+2
   2.30261E+2   3.37745E+2
   3.82323E+2   3.80508E+2
   9.19388E+1   4.11691E+2
  -2.29638E+2   2.14029E+2
  -3.62650E+2  -7.69583E+1
  -3.94348E+2  -3.85458E+2
   7.98367E+1  -7.81139E+2
   5.69455E+2  -2.68316E+2
   5.92632E+2   1.17871E+2
   3.47918E+2   9.16692E+1
   1.13023E+2   1.99531E+1
   4.76400E+1   1.36361E+2
   2.00746E+2  -2.86347E+1
  -1.00018E+2  -2.22700E+2
   1.48507E-3  -3.28965E+2
   3.11728E+2  -1.90375E+2
   4.78385E+2  -1.69476E+2
   2.20921E+2   3.12130E+2
  -4.07318E+2   2.37984E+2
  -1.08186E+2  -2.55285E+2
   4.80246E+1  -3.07629E+2
  -1.65218E+2  -1.81432E+2
  -9.41540E+1  -1.51805E+2
   2.40136E+2  -2.49724E+2
   2.25690E+2  -1.95069E+2
   1.88409E+2   2.59258E+2
   1.19527E+2   3.13149E+2
  -5.53927E+2   2.60138E+2
  -4.35206E+2  -4.29840E+2
   1.87911E+2  -5.85567E+2
   3.07467E+2  -1.95490E+2
   1.64905E+2   3.78053E+2
   2.08653E+1   2.22060E+2
  -3.17406E+2   4.59498E+0
  -1.70903E+2   2.49677E+2
   7.82578E+1   2.51435E+2
  -3.94801E+2   2.57717E+2
  -3.50683E+2   4.14239E+1
  -3.01548E+2  -4.51362E+2
   2.37430E+2  -1.69593E+2
   1.34092E+2   3.23307E+2
  -1.48541E+2   3.97477E+2
  -3.57029E+2   1.40180E+1
  -1.64745E+2  -4.08043E+1
   1.34440E+2   2.15753E+2
  -9.00516E-1   2.41455E+2
  -9.54039E+1   1.35329E+2
   2.07695E+1   3.28990E+2
  -4.66455E+1   4.49501E+2
  -1.20105E+2   4.90975E+2
  -1.73784E+2   3.80347E+2
  -6.61117E+1  -6.04069E+1
  -3.08029E+0  -1.53380E+2
   2.86245E+2   7.07326E+1
   2.51943E+1   1.74205E+2
   2.32712E+2   1.44347E+2
  -3.76870E+1   7.69635E+1
  -1.23167E+1   2.70263E+2
   2.10150E+2   1.36229E+2
   2.37043E+2   4.33116E+2
  -9.72032E+1   1.09799E+2
  -1.85926E+2   8.15398E+1
  -3.15457E+1  -5.13589E+1
  -1.31032E+2   2.82175E+2
  -1.31478E+2   3.58391E+2
  -1.95937E+2   2.40889E+2
  -3.30027E+1  -7.15983E+1
   4.82842E+1   8.72602E+1
   2.27536E+2   1.29457E+2
  -9.26685E+1   2.72304E+2
  -3.61212E+1   2.09750E+2
   5.41753E+1   1.31208E+2
  -4.21849E+1   1.78634E+1
  -7.97179E+1  -7.06340E+1
  -6.54660E+1   1.35368E+2
   3.31861E+2  -7.83782E+1
   2.78207E+2  -8.11156E+1
   2.34798E+2   3.14542E+2
   7.03363E+1   2.69050E+2
  -2.07418E+2   2.65841E+2
   8.57435E+1   3.05770E+2
   3.11048E+1  -7.84585E+1
   1.49992E+1   1.40156E+2
   1.49958E+2   2.71109E+2
   1.10938E+2   6.93344E+1
   1.60035E+2   1.40247E+2
   5.48266E+1   2.34189E+2
  -1.39787E+1   1.90015E+2
  -1.17172E+1   9.09218E+1
   1.13761E+2  -1.66323E+2
   7.70573E+1  -3.94564E+1
   2.11577E+2   2.11496E+2
   1.18244E+2  -1.00800E+2
  -2.28042E+2   3.90030E+1
  -8.97398E+1  -5.02704E+0
   3.32895E+1   1.24967E+2
   2.83884E+1   1.78406E+2
  -2.12336E+2  -7.85093E+1
  -5.80007E+1  -7.87389E+1
  -1.63057E+2  -1.69412E-2
   2.20383E+2   1.04201E+2
  -7.12092E+1   1.24369E+2
   5.73683E+0   1.69554E+1
  -1.36189E+2  -2.55893E+1
  -1.81590E+2   3.40488E+1
  -2.31029E+1  -1.24560E+2
   1.66875E+1   1.15027E+2
   5.04400E+1  -1.16820E+2
   1.00736E+2   3.41740E+1
  -1.22574E+1  -3.73381E+1
   2.95378E+1   5.78225E+1
   4.66435E+1   1.27052E+2
  -1.69316E+2   7.99355E+1
  -8.11241E+1   4.20713E+0
   8.03198E+1   4.23048E+1
   8.45725E+1   8.24063E+1
  -4.83473E-1  -5.91491E+1
  -9.52199E+1   9.37846E+1
  -4.21675E+1  -1.52880E+2
  -1.59190E+2  -1.19719E+2
   9.29807E+1  -4.33969E+1
  -2.16511E+0  -8.50110E+0
  -2.32700E+2  -1.59732E+2
  -9.78269E+1   1.52014E+2
   4.72619E+1   1.67132E+2
   5.23248E+0  -8.54162E+1
  -9.43859E+1  -9.61431E+0
  -7.45131E+1  -5.82685E+1
  -4.75755E+1  -3.15276E+0
  -3.26750E+1   5.31328E+1
   1.45044E+2   2.07318E+2
   4.54206E+1   2.25449E+2
   1.11005E+2   8.59531E+1
   1.71659E+2  -5.07606E+1
  -3.22648E+1  -1.48269E+2
   4.15417E+0  -3.83700E+1
   1.26357E+2   2.45002E+1
   1.07339E+2  -2.79731E+1
   1.41207E+2   2.56681E+2
  -4.19564E+1   1.36716E+2
  -1.24397E+2   1.27270E+0
   6.35625E+1   3.63390E+1
   1.82307E+1   3.28203E+1
   4.86448E+1   1.45155E+1
   2.18114E+2   1.41794E+2
  -1.84166E+2  -3.65116E+1
  -8.13141E+0   1.14870E+2
  -1.19585E+2   1.48855E+1
   2.30438E+2   4.25414E+1
   7.23733E+1   4.17115E+1
   1.04147E+2  -7.05238E+1
  -5.38399E+1   6.22931E+1
  -1.67694E+2   1.41714E+2
  -1.52712E+2   1.45700E+2
  -1.15607E+2   1.85670E+2
  -2.96717E+1   7.18777E+1
   3.31434E+1   3.61551E+1
   1.19129E+2  -1.80694E+2
  -1.64514E+0   6.32960E+1
  -2.37992E+1   2.63882E+1
   9.02774E+1   1.34637E+2
  -9.58679E+0   3.63195E+1
  -6.06806E+1   8.70935E+1
   1.78432E+2   4.82156E+1
   1.56295E+2   1.51632E+2
  -3.08428E+1   8.39038E+1
   1.53573E+2   1.65377E+2
   3.74711E+1  -1.05453E+2
  -6.34990E+1   1.55776E+2
  -3.39583E+1  -3.37214E+1
   2.31933E+1  -3.87820E+1
  -1.65962E+1   7.99745E+0
   3.62718E+1  -7.22213E+1
   2.84461E+1   6.32046E+1
   2.21462E+2  -9.37331E+1
   2.24091E+2  -9.48308E+1
  -3.94537E+1   1.90722E+2
  -5.47541E+1  -3.70449E+2
  -1.83365E+1   5.76075E+1
   1.44737E+2   1.21431E+2
   8.96507E-1  -1.29355E+2
  -1.01620E+0  -8.60840E+0
  -1.42075E+2  -1.21452E+2
  -4.18390E+1   3.54411E+1
   1.51764E+2   2.94501E+2
   1.03381E+1   2.75456E+1
  -1.78375E+2  -3.94613E+1
   7.85634E+1  -7.01877E+1
   1.43666E+2  -4.05045E+0
   4.19731E+1  -1.55249E+2
   9.65048E+0   6.54573E+1
   1.64287E+1   6.39852E+0
  -1.27491E+2   3.07794E+1
   5.14014E+1   2.44182E+1
   7.58314E+0   1.05730E+2
  -9.85177E+1   1.49754E+1
  -5.88519E+1  -3.66346E+1
  -5.26085E+1  -1.07331E+2
   1.50756E+1   5.60731E+1
   1.49186E+2  -9.27670E+0
  -1.55161E+2   9.47333E+1
   4.55574E+0  -3.96216E+1
  -3.79921E+1  -6.52463E+1
  -1.25668E+2   8.28976E+1
   4.88221E+1  -7.93061E+1
   5.02106E+1  -1.58026E+2
   2.31864E+1  -3.19942E+1
   2.22316E+1  -4.51506E+1
   1.75155E+1   1.11016E+2
  -2.15615E+2  -2.94968E+2
   1.73985E+2   4.37249E+1
   9.44825E+1  -1.12658E+2
   8.16979E+1   7.02893E+1
  -3.23123E+2  -5.15930E+1
   3.42854E+0   1.55783E+2
  -1.21784E+2   7.09955E+1
  -7.44921E+1  -1.54729E+2
   4.10814E+1   3.03859E+1
   4.02675E+2   1.99933E+2
   6.59400E+0   8.02110E+1
  -3.93696E+0   2.62826E+2
  -2.22524E+2   1.13994E+2
  -1.25165E+2   1.48749E+2
  -2.01795E+2  -1.26298E+2
  -1.48010E+2  -7.76695E+1
   5.76766E+1  -1.15012E+2
   2.14490E+2   2.00616E+2
  -1.15548E+1   7.34570E+1
  -5.09653E+1   2.56349E+2
   3.72739E+1  -5.97613E+1
   1.31095E+1   1.94851E+1
  -1.12553E+2  -2.32133E+2
   2.02163E+2  -1.12957E+2
  -9.13470E+1   7.77339E+1
   3.79698E+1  -4.43367E+1
   4.53226E+1   2.59310E+1
  -1.54505E+1  -4.44796E+1
  -1.30147E+2   1.13458E+1
   8.13049E+1  -3.75574E+1
  -8.85566E+1  -1.50322E+2
  -1.25311E+2  -7.81924E+1
   3.89315E+1  -1.93161E+1
   1.35586E+2  -1.04902E+2
   2.98563E+2  -6.91727E+1
  -7.73261E+1  -1.79571E+2
  -5.08934E+0   1.43912E+1
  -4.32708E+1   6.48137E+1
  -8.20440E+1  -1.32605E+2
   1.78111E+2  -1.84757E+2
   5.91151E+1  -5.99052E+0
   1.46998E+2  -1.06856E+1
  -1.20639E+2   3.55025E+1
   2.73853E+1  -9.44817E+1
   5.22994E+1  -8.08142E+1
