 
 $NMID
 ID=''
 FMTDAT='(2E13.5)'
 TRAMP=   1.00000E+0
 VOLUME=   1.00000E+0
 $END
   1.10089E+4   1.87902E+4
   1.60388E+4  -2.55408E+4
  -2.80750E+4  -1.34478E+4
  -5.05176E+3   3.11853E+4
   2.98660E+4   8.05385E+3
  -1.38868E+3  -2.74890E+4
  -2.44487E+4   2.71114E+2
   6.12313E+3   2.14788E+4
   1.92635E+4  -1.92456E+3
  -1.54266E+3  -9.58767E+3
  -8.94351E+3   5.46453E+3
   6.03169E+2   5.89833E+3
   5.12561E+3  -1.66791E+3
  -1.01177E+3  -1.80192E+3
  -7.37030E+3  -3.33427E+2
  -2.38543E+3  -3.22804E+2
   5.24282E+3   7.25839E+1
   1.95450E+3   4.17203E+2
  -2.45958E+3  -5.21291E+2
  -2.37158E+1  -9.04545E+2
   8.25504E+2   1.40921E+2
   6.87948E+2   1.56701E+2
   1.43653E+3  -1.53839E+3
  -8.25823E+2   4.26760E+2
  -1.64922E+3   1.20212E+3
   1.98779E+3  -1.53621E+3
   2.83874E+3  -1.10281E+3
  -1.15461E+3   1.97774E+3
  -1.85609E+3   2.73112E+2
   8.21979E+2  -1.71036E+3
   1.28631E+3  -1.08216E+2
  -5.89288E+2   8.59760E+2
  -1.29957E+3   1.03691E+2
  -9.97443E+2  -5.06368E+2
  -1.01403E+3  -2.60217E+3
   5.12197E+1  -2.67268E+3
   1.92383E+3   7.61287E+2
   1.16278E+3   1.51952E+3
  -7.07624E+2  -8.23148E+2
  -4.69820E+2  -5.57630E+2
  -2.33156E+2   5.60638E+2
  -1.08220E+3  -5.89276E+2
  -6.43680E+2  -2.07429E+3
   6.87766E+2  -9.46370E+2
   1.38161E+3  -3.32508E+2
   1.56609E+3  -1.32360E+2
   3.93380E+2   1.10783E+3
  -1.64519E+3   1.67659E+3
  -2.02708E+3  -3.20630E+2
  -7.69216E+2  -1.47702E+3
  -6.25093E+2  -9.50128E+2
  -5.48475E+2  -7.59576E+2
   3.73685E+2  -1.03552E+3
   6.38288E+2  -5.65855E+2
   2.96795E+2   5.00335E+2
  -8.47429E+1   4.94817E+2
  -4.76823E+2   5.72119E+2
  -1.03344E+3  -1.10189E+3
  -2.89898E+2  -1.38228E+3
   7.92868E+2  -1.06745E+3
   8.35181E+2  -3.60809E+2
   5.35846E+2   1.03597E+2
   7.32850E+2   1.27840E+3
  -2.83605E+2   1.82006E+3
  -1.67664E+3   9.61044E+2
  -2.11836E+3  -5.08680E+2
  -1.13700E+3  -9.15013E+2
   2.15446E+2  -1.71897E+3
   9.64735E+2  -1.34940E+3
   4.52219E+2   2.14332E+2
  -7.01174E+2   4.58343E+2
  -5.61884E+2  -7.73112E+2
   1.26483E+3  -7.18084E+2
   9.34562E+2   8.03155E+2
  -1.07036E+2   9.69568E+2
  -1.90996E+2  -3.64244E+2
  -2.70532E+1  -6.40017E+2
   1.64659E+2   4.69711E+2
   2.18757E+1   6.37332E+2
  -5.15928E+2   2.05243E+2
  -8.78439E+2  -5.04482E+1
  -4.66144E+2  -2.23805E+2
  -1.21988E+2  -7.79717E+1
  -4.38082E+1  -1.56671E+2
  -8.52470E+2  -2.49949E+2
  -9.22428E+1  -8.77271E+2
   3.94431E+2  -4.85372E+2
   3.97012E+2   2.64322E+1
  -8.56041E+1   2.31766E+2
  -3.96464E+1  -1.06184E+1
   9.92701E+2  -3.22149E+2
   6.50207E+2   2.95372E+2
  -5.43397E+0   1.23147E+3
  -1.04982E+3   9.77482E+2
  -1.21434E+3  -2.18085E+2
  -4.10038E+2  -1.24758E+3
   3.42664E+2  -6.21887E+2
   3.50100E+1   4.03124E+2
  -2.42601E+2  -8.33231E+1
   4.05503E+2  -8.15207E+2
   9.79177E+2  -4.78440E+1
   4.03204E+2   1.06154E+3
  -6.33404E+2   6.40384E+2
  -9.26841E+2  -4.62611E+2
  -1.28795E+2  -9.17412E+2
   8.25369E+2  -2.25466E+2
   3.81383E+2   7.55133E+2
  -8.53645E+2   5.29118E+2
  -1.30081E+3  -4.75948E+2
   3.05550E+1  -1.05153E+3
   8.55771E+2  -6.53666E+2
   1.01581E+3   6.49785E+1
   2.00013E+2   6.96537E+2
   1.13360E+2   5.03826E+2
   1.19215E+2   1.30540E+2
   1.46485E+2   6.29554E+2
  -6.96104E+2   1.00986E+3
  -1.26878E+3   4.93778E+1
  -8.74648E+2  -1.09140E+3
   2.64334E+1  -1.33622E+3
   1.06145E+3  -3.22133E+2
   6.56351E+2  -3.44042E+0
   6.81039E+2   1.94493E+2
   3.35058E+2   5.64771E+2
  -2.68664E+2   6.73259E+2
  -6.00442E+2   9.51055E+1
  -4.39993E+2  -4.39136E+2
   1.15184E+2  -3.86414E+2
   3.75504E+2  -1.51279E+2
   4.20418E+2   3.22203E+2
   2.12419E+2   7.27137E+2
  -5.30565E+2   6.20852E+2
  -4.99984E+2  -2.82000E+2
   3.09671E+2  -3.25287E+2
   2.58320E+1  -6.27419E+1
  -3.20422E+2  -1.60029E+2
  -8.10770E+0  -4.77418E+2
   6.51278E+2  -2.10526E+2
   4.54565E+2   4.54824E+2
  -2.21689E+2   6.93396E+2
  -1.07423E+3   2.06285E+2
  -2.10359E+2  -7.70354E+2
   5.81038E+2  -7.11307E+2
   9.68866E+2   1.96623E+2
   3.88461E+2   9.73154E+2
  -3.47934E+2   5.35579E+2
  -6.41525E+2   2.12881E+2
  -4.66753E+2   1.10985E+1
  -5.55902E+2   2.20566E+2
  -4.40718E+2  -2.23392E+2
  -3.82974E+2  -5.23761E+2
   2.21206E+2  -8.35653E+2
   6.42472E+2  -1.29822E+2
   6.35214E+2   4.52767E+2
  -1.81783E+2   5.26568E+2
  -1.81346E+2   1.31768E+2
   3.35107E+2  -7.68779E+0
   3.65677E+2   3.85887E+2
   1.35060E+2   5.20743E+1
   9.13935E+1   1.41842E+2
   2.01952E+2   2.38587E+2
   1.86717E+2   3.22561E+2
  -5.17659E+2   2.81102E+2
  -6.47870E+2  -6.41782E+1
  -1.22858E+1  -4.34625E+2
   2.78175E+2  -5.80564E+2
   3.43995E+2  -2.99308E+0
   2.78833E+2   5.41387E+2
  -6.42998E+1   3.13597E+2
   7.09089E+1  -1.23811E+2
   2.00917E+2  -1.50035E+2
   1.12033E+2   4.13730E+2
  -1.15453E+2   5.91777E+2
   1.45407E+1   1.63281E+2
  -9.48989E+1  -1.72297E+2
   4.22400E+2   9.54803E+1
   9.22863E+1   4.91027E+2
  -6.70776E+2   8.83775E+1
  -5.51838E+2  -4.97610E+2
   4.11286E+2  -3.82020E+2
   5.45473E+2   2.69897E+2
   2.76901E+2   7.13910E+2
  -1.64329E+2   4.31231E+2
  -5.34183E+2   9.56606E+1
  -3.90640E+2  -7.22231E+0
   7.23764E+1  -1.17924E+1
  -1.06065E+2  -2.79198E+2
  -1.07695E+2  -4.79384E+2
   4.18363E+2  -4.67244E+2
   1.13303E+3  -1.68962E+2
   7.23656E+2   7.08806E+2
   1.68840E+0   1.08893E+3
  -5.47040E+2   4.10723E+2
  -3.47278E+2  -2.79183E+2
  -1.40115E+2  -3.47266E+2
   1.31343E+2  -1.18604E+2
   1.67501E+2   1.25119E+2
   2.48664E+2  -5.58011E+1
  -8.13635E+1   2.70151E+2
  -1.54656E+2   6.09291E+2
  -4.02822E+2   2.51592E+2
  -4.12389E+2  -1.26421E+2
  -1.43962E+2  -5.21840E+2
   3.14164E+2  -5.25328E+2
   5.93217E+2   3.00424E+2
   2.21716E+1   2.96722E+2
  -2.66557E+2   9.18106E+1
  -1.17148E+2  -1.62033E+2
   6.60263E+1   7.95480E+1
  -5.75478E+1   4.52410E+2
  -2.53737E+2  -2.71099E+2
  -4.10036E+1  -3.83675E+2
   2.22812E+2  -7.52640E+1
   4.57329E+2   8.55620E+2
   1.01046E+1   8.98782E+2
  -6.79638E+2   2.60803E+2
  -4.46323E+2  -2.36740E+2
   2.01697E+2  -2.20956E+2
   2.37217E+1  -1.61420E+2
   9.74417E+1   2.35414E+2
   2.13841E+2   6.40829E+1
   2.91170E+2  -7.53934E+1
   3.54631E+2   2.77921E+2
   3.22979E+1   6.68455E+2
  -4.37066E+2   4.13415E+2
  -2.85560E+2  -9.38362E+1
   9.88375E+1  -2.69979E+2
   5.40281E+2   2.19025E+2
   5.87203E+0   4.10571E+2
  -2.12397E+2   3.93662E+2
  -4.04174E+2  -2.29932E+2
  -1.17865E+2  -8.06414E+1
   7.42526E+1   5.77725E+1
  -1.29778E+2   1.55044E+2
  -2.85047E+2   1.58560E+1
   7.34014E+1   8.63387E-1
   2.02456E+2   2.16369E+2
  -9.17381E+1   2.37333E+2
  -2.77663E+1   2.22278E+2
  -4.02557E+2  -4.91710E+1
   2.55894E+2  -2.45729E+2
   2.47206E+2   3.28286E+2
   2.92043E+1   4.76490E+2
  -1.00517E+2   1.44624E+2
  -4.20493E+2  -2.05529E+2
   2.71072E+2  -1.18778E+2
   1.47579E+2   2.57977E+2
  -1.48394E+2   1.70743E+2
  -2.91423E+2  -2.32668E+2
   1.20965E+2  -2.62862E+2
   5.92964E+2   3.68424E+1
   2.28468E+2   7.63050E+2
  -2.15225E+2   6.23600E+2
  -6.23733E+2  -2.68773E+2
   1.60625E+2  -4.72763E+2
   3.60808E+2  -2.09418E+2
   3.74722E+2   2.25267E+2
  -1.06686E+2   3.63723E+2
   9.14723E+1   1.93410E+2
   3.80828E+1   1.46925E+2
   1.03297E+1   3.62440E+2
  -6.34065E+2   2.46740E+2
  -4.92182E+2  -1.70514E+2
   5.31889E+1  -6.00134E+2
   2.90949E+2  -2.19553E+2
   5.42199E+2   3.65690E+2
  -1.11256E+2   5.21061E+2
  -2.89498E+2   2.66006E+2
  -3.05349E+2  -3.75819E+2
  -7.35309E+1  -5.03205E+1
   4.46589E+1  -8.45415E+1
  -1.48920E+2   7.00103E+1
   1.18567E+2  -4.94981E+1
   2.50924E+2   6.89897E+1
   2.82921E+2   4.24263E+2
  -1.55570E+2   2.70031E+2
  -6.11794E+2   9.47033E+1
   8.19616E+1  -3.40587E+2
  -4.56508E+1  -9.40922E+1
   1.36329E+2  -1.31500E+1
  -1.16712E+2   3.08414E+2
  -8.90200E+1   6.82964E+1
  -2.88601E+1  -1.62564E+1
   1.17319E+1   1.60595E+2
  -1.49957E+2   2.63575E+2
  -6.77453E+2   8.99068E+1
  -3.91769E+2  -4.57842E+2
   5.25004E+2  -3.06463E+2
   4.86826E+2   6.00457E+1
   1.29933E+2   2.81012E+2
  -3.63740E+1   3.89769E+2
  -2.10092E+2   5.44715E+1
  -7.98041E+1   3.07509E+1
  -1.18097E+2   6.30693E+1
  -5.34334E+1  -6.52262E+1
   3.48155E+1  -2.66567E+2
   1.22909E+2  -2.75706E+2
   2.55462E+2   1.98359E+2
  -1.64622E+1   2.02833E+2
  -3.75094E+2   2.29388E+2
  -1.94545E+2  -2.72611E+2
   9.00045E+1  -1.13484E+2
   3.63327E+2   2.29137E+2
  -1.83728E+2   4.09054E+2
  -4.60911E+2   8.14794E+1
  -2.65157E+2  -3.00495E+2
  -2.35078E+1  -2.33166E+2
  -1.75652E+2  -3.34013E+1
  -2.33889E+2  -4.59814E+1
  -1.61586E+2  -2.63348E+0
   2.25205E+2  -2.43449E+2
   4.55155E+2  -1.46091E+1
   5.71367E+1   1.66557E+2
  -1.62829E+1   2.39278E+2
  -2.78593E+2  -2.37843E+2
  -1.26364E+2   3.09309E+1
   1.37106E+2  -7.94737E+0
  -1.39132E+2   1.54050E+2
  -2.00783E+2  -1.19692E+2
  -1.16666E+2  -9.35849E+1
   8.07269E+1   8.86770E+1
   6.84672E+1   1.06103E+2
  -2.50314E+2  -1.09195E+2
  -2.49774E+2  -2.47007E+2
   2.08884E+2  -1.71599E+2
   2.05754E+2   1.64602E+2
   1.28890E+1   2.51195E+2
  -4.91813E+2   3.71424E+2
  -1.57327E+2  -1.55737E+2
  -2.77661E+2  -1.06754E+2
  -1.83621E+2  -5.19214E+1
   1.28939E+2  -8.23746E+1
  -5.53895E+1  -9.84115E+1
   1.26242E+2  -2.63023E+2
   2.10866E+2   7.31174E+1
   1.03578E+2   5.13840E+2
  -3.17985E+2   4.82123E+2
  -5.64031E+2   4.91458E+0
  -4.15653E+1  -3.53653E+2
   1.94840E+2  -4.18638E+2
   2.46879E+2   1.26155E+2
  -3.26741E+1   1.96394E+2
  -1.32709E+1  -6.64577E+1
  -7.55415E+1   1.10670E+2
   1.16738E+2   1.08985E+2
  -3.14024E+2  -1.54973E+2
  -1.98546E+2  -9.30399E+1
   8.27973E+1  -3.52952E+2
   3.01528E+2  -1.22823E+2
   7.00343E+1   3.72144E+2
  -1.62245E+2   4.58432E+2
  -3.95426E+2   2.83752E+2
  -5.07541E+2  -1.21152E+2
   5.00948E+1   1.36322E+2
  -2.25355E+2  -1.26294E+2
  -1.69446E+2  -4.04822E+1
  -3.14413E+1  -3.90889E+2
   1.66028E+2  -1.23067E+2
   6.18483E+1   1.84832E+2
   3.28305E+1   2.72069E+2
  -4.14919E+2   1.94984E+2
  -3.15911E+2  -4.06318E+2
  -1.14289E+2  -1.76343E+2
   2.79299E+2  -2.06477E+2
   2.72755E+2   2.00586E+2
  -6.31076E+1   9.46578E+1
   2.38684E+2   8.97510E+1
