 
 $NMID
 ID=''
 FMTDAT='(2E13.5)'
 TRAMP=   1.00000E+0
 VOLUME=   1.00000E+0
 $END
  -5.28283E+3  -1.54005E+4
  -8.40003E+3  -3.40119E+3
  -2.75202E+3   3.68111E+3
   5.17513E+3  -3.13768E+2
   7.93259E+2   2.53694E+3
  -7.01392E+2   3.65912E+3
  -2.00767E+2  -4.13277E+3
  -2.38414E+3  -2.83292E+3
  -6.16445E+2   2.21638E+3
   2.38187E+3   2.09350E+2
  -3.28270E+1   9.77095E+2
  -1.29356E+3   2.25941E+3
  -1.77813E+2  -1.83101E+3
   1.51300E+2  -3.37743E+2
  -8.41405E+2   3.26892E+3
  -2.15612E+3  -8.01573E+2
  -4.07068E+2  -3.58196E+3
   2.07362E+3   2.10731E+2
   2.62424E+2   1.01675E+3
  -1.44556E+3   3.90629E+2
   7.88162E+2   6.56010E+2
   7.13218E+2  -1.56411E+2
  -7.15079E+2  -7.31774E+2
   5.80188E+2   7.05444E+2
  -2.02917E+2   1.34688E+3
  -1.82400E+3  -1.73322E+2
   8.72554E+2  -1.45084E+3
   1.77062E+3  -1.73703E+2
  -9.27292E+2   9.60763E+2
  -9.23038E+2  -2.95171E+2
   8.43577E+2  -1.35262E+3
   1.20393E+3   3.71300E+2
   4.07651E+2   5.85081E+2
  -2.29465E+2   4.03976E+2
  -1.02442E+3   9.58321E+2
  -1.29695E+3  -3.81462E+2
   2.77948E+2  -1.80851E+3
   1.25212E+3  -3.78052E+2
   4.86962E+2   6.31132E+2
  -1.34694E+2  -2.51901E+2
   5.73716E+1   5.90919E+2
   1.06493E+2   1.16186E+3
  -8.51851E+2   6.28407E+0
  -8.16747E+2  -7.65114E+2
  -7.62580E+2  -5.25831E+2
  -3.82518E+2  -9.73490E+2
   1.04466E+3  -1.20945E+3
   1.43754E+3   4.93777E+2
  -1.00087E+2   1.44036E+3
  -6.04849E+2   6.48533E+2
  -5.59882E+2  -3.83879E+2
   3.25286E+1  -1.32819E+2
  -3.91117E+2   1.78529E+2
  -3.33449E+2  -5.79445E+2
   1.64962E+2  -3.47214E+2
   3.95554E+2   8.61736E+1
   4.93358E+2   6.19135E+2
   7.93665E+1   5.72368E+2
  -5.74475E+2   3.96573E+2
  -8.20162E+2  -1.86986E+1
  -4.30428E+2  -3.71495E+2
   7.72651E+1  -3.18288E+2
   3.97539E+2  -8.66346E+2
   6.52743E+2  -5.45564E+2
   5.68384E+2   4.86587E+2
   3.04395E+2   8.51581E+2
  -1.13436E+0   5.10718E+2
  -5.54968E+2   3.96612E+2
  -6.81625E+2  -1.05614E+2
   6.42328E+1  -4.77885E+2
   4.74027E+2   4.62849E+1
  -1.36159E+2   2.69875E+2
  -2.33435E+2   1.18144E+1
   4.08956E+1  -7.52533E+2
   5.37474E+2  -3.72333E+2
   1.18960E+2   9.11160E+1
  -2.39335E+2   2.23534E+1
   2.54645E+1  -2.55777E+2
   2.80597E+2  -2.47978E+2
  -3.07352E+1  -9.51202E+1
   2.27317E+2  -6.48409E+1
   1.85924E+2   1.91354E+2
  -4.28127E+1   1.09257E+2
  -1.75234E+2  -2.71018E+1
   9.06006E+1   5.01596E+1
  -1.04049E+2   1.22065E+2
  -3.63875E+2  -3.62678E+1
  -1.13184E+2  -1.26456E+2
   2.70732E+2  -2.97432E+2
  -9.38660E+1   1.31578E+2
  -1.05445E+2  -7.46433E+1
  -1.40357E+2  -3.39786E+1
   2.00248E+2  -2.17617E+2
   3.37161E+2   8.12206E+1
   2.39415E+2   1.32845E+2
  -7.60437E+0   7.35633E+1
  -4.48612E+2   1.82111E+2
  -1.71346E+1  -7.42529E+1
   7.01836E+1   1.55519E+2
  -2.66281E+2   2.05711E+2
  -2.18073E+2   1.12203E+1
   9.09976E+1  -3.41076E+2
   1.65671E+2  -7.95900E+1
  -2.57622E+1   2.00620E+2
  -1.41044E+2   9.77715E+1
  -3.53286E+2   1.69469E+1
  -7.80567E+1   1.68148E+1
  -1.92579E+1  -1.55075E+2
   3.32887E+2   8.95804E+1
   1.05654E+2   5.14503E+2
  -3.21992E+2   4.61072E+2
  -3.52911E+2   8.23953E+1
  -1.23848E+2  -1.67682E+2
  -5.23327E+1  -1.04830E+2
  -1.98789E+2  -4.62576E+1
  -1.98207E+2  -1.86882E+2
   2.18131E+2  -1.99975E+2
   3.18173E+2   2.48387E+0
   4.93660E+1   2.17706E+2
  -1.25517E+1   1.23940E+2
  -2.41575E+1   1.41655E+2
  -7.65473E+1   1.19500E+2
  -2.42366E+1  -1.52150E+2
   4.34936E+1  -2.39268E+2
   2.63559E+2  -2.45668E+2
   2.50333E+2  -1.64752E+2
   9.09731E+1   6.47384E+0
   1.50388E+2   1.82699E+2
   1.57977E+2   1.83582E+2
  -3.65379E+2   4.38734E+1
  -2.89315E+2  -3.39443E+2
  -1.25395E+1  -1.85606E+2
   2.18361E+2  -1.64276E+2
   2.11426E+1  -1.48411E+2
   1.53335E+2  -8.90445E+1
   9.61325E+1  -5.56420E+1
  -8.25589E+1   4.79535E+1
  -1.12382E+2   6.05290E+1
  -1.26542E+2  -1.40280E+1
  -1.89909E+1  -3.44260E+2
   7.16593E+0  -1.70330E+2
   1.11252E+1  -4.32105E+1
   1.52801E+2   3.05224E+2
   5.37995E+1   4.84219E+1
   5.00945E+1  -3.25715E+0
  -1.06241E+2  -6.34638E+1
   1.38612E+0   1.60947E+2
  -8.76171E+1  -2.81912E+2
  -4.94384E+1   2.36952E+1
  -1.40827E+1  -1.05252E+2
   1.11377E+2  -2.19325E+2
   2.76218E+1   2.16758E+1
  -1.14647E+2   1.41571E+2
  -1.65213E+1  -7.24690E+1
  -9.03332E+1   1.70735E+2
   5.95913E+0  -3.58884E+1
   2.57010E+1   5.44470E+1
  -9.51551E+1   7.78072E+1
   1.97718E+2  -7.79690E+1
  -2.26386E+2  -1.04433E+2
  -8.52290E+1  -9.86546E+1
   2.76540E+1  -8.28203E+1
  -8.31032E+1   1.57557E+2
   1.30978E+1   1.04302E+2
   6.33356E+1  -7.79592E+1
  -1.69057E+2   1.30227E+2
  -2.24398E+1  -2.03841E+1
   1.38863E+1  -6.46903E+1
  -1.10161E+1  -1.75987E+2
  -9.09988E+0  -1.20443E+1
  -2.97530E+1   8.41238E+1
   9.88498E+1   9.03812E+1
   4.28551E+1  -5.43009E+1
   9.93713E+1  -1.51140E+2
   1.96512E+2  -2.28274E+2
   3.31810E+1   1.10178E+2
  -7.69467E+1  -3.73339E+1
   1.57440E+2  -2.23630E+0
   7.25568E+1   1.40779E+2
   2.58136E+2  -1.12804E+2
   1.52136E+2  -1.75845E+2
  -5.90070E+1  -2.07181E+2
   1.77150E+2   4.75042E+1
   1.38579E+2  -3.27559E+1
  -5.81360E+1  -1.09117E+2
  -1.42407E+2  -2.38243E+2
   3.83132E+0  -1.01812E+2
   7.45041E+1  -9.75633E+1
   3.12154E+1  -6.98966E+1
  -8.95893E+1  -3.27130E+1
   2.22600E+2   2.81741E+2
  -7.47998E+1  -6.56612E+1
  -7.68983E+1  -1.01636E+2
  -3.11386E+0   1.04555E+2
   1.38573E+2   5.29544E+1
   1.35355E+2   8.95976E+1
   1.13089E+2   1.22736E+2
   2.44589E+2  -1.34358E+1
   8.90554E+1  -1.39949E+2
   2.12169E+2  -6.75364E+1
  -1.00522E+2  -8.42884E+1
   4.76820E+1  -3.55065E+1
  -1.00185E+2   8.57861E+0
  -1.23853E+2   1.50986E+2
  -3.79670E+1   1.65001E+2
   1.72660E+2  -1.32918E+2
   3.19080E+1   2.92392E+1
  -2.81195E+2  -2.11399E+1
  -1.40008E+1   8.17387E+1
   1.99303E+2  -2.86164E+1
   7.35773E+1  -5.66844E+1
  -9.47949E+1   1.30313E+2
   5.99765E+1  -1.46041E+2
  -1.39836E+1   7.94743E+1
  -1.00234E+2   2.15236E+1
   1.39108E+2  -4.53010E+1
   9.05220E+1   1.28207E+2
   1.78636E+2   5.93035E+1
   6.45863E+1  -7.98487E+1
   9.86233E+1  -3.48327E+1
   8.82528E+1  -5.98875E+1
   6.87930E+1   1.11754E+1
   5.50774E+1  -2.03144E+1
   1.16572E+1  -1.19252E+2
   1.21299E+1   1.06072E+2
   5.33635E+0  -4.18666E+1
  -1.50905E+2  -8.68474E+1
  -1.09145E+2   4.98794E+1
   7.16938E+1  -3.03963E+1
   7.76250E+1   6.59100E+1
  -1.19357E+2  -1.70801E+1
   2.07370E+1  -3.98166E+1
   1.22188E+2   5.99547E+0
   2.65378E+2  -4.84619E+1
  -1.17098E+2  -5.77554E+0
  -1.11195E+2  -4.33458E+1
   3.19902E+1  -1.27141E+2
  -3.89899E+1   2.48654E+2
   3.59589E+1  -5.09965E+1
   2.13223E+2  -1.14932E+2
   2.49038E+2  -7.97758E+1
   2.47234E+1  -1.11635E+2
   1.11681E+2  -7.08326E+1
   1.18313E+2  -7.59775E+1
  -1.14874E+2   1.14478E+2
   2.85585E+1   1.69529E+1
  -1.95232E+2   4.40003E+1
   3.07764E+2  -1.97811E+1
  -9.39362E+1   3.85304E+1
  -1.92315E+2   2.80616E+1
   1.70619E+2  -1.58135E+2
   1.17443E+2  -5.55897E+1
  -3.26211E+1   1.30584E+1
  -8.15071E+1  -4.15458E+1
   8.63599E+1  -1.14210E+2
  -5.39529E+1   1.60460E+2
  -3.83530E+2  -1.40633E+2
   1.19924E+2  -3.82911E+1
  -8.15987E+1  -6.40196E+1
   1.21829E+1  -1.65964E+2
   1.07033E+2  -2.07448E+2
  -4.57303E+1   4.82636E+0
   1.22562E+2   1.81402E+2
   1.00087E+2  -5.09011E+1
  -1.35800E+2  -1.13825E+2
   2.84508E+2   1.53854E+2
  -6.59286E+1  -2.39420E+2
   8.72903E+1  -8.30871E+1
   3.86089E+1   5.74956E+1
   1.37220E+1   8.24850E+1
  -8.14307E+1  -1.11380E+2
   5.54403E+1   1.33321E+2
  -7.93818E+0   1.12244E+2
  -7.46165E+1   2.41991E+2
  -5.30576E-1  -1.16153E+2
   1.45178E+2   1.58943E+2
   1.47623E+2  -3.05443E+1
   1.68403E+2   1.40924E+2
  -8.16891E+1  -2.00520E+2
   6.79991E+1   5.02641E+1
  -7.42588E+1   8.00172E-1
  -1.70906E+1  -4.47201E+1
  -3.24767E+1  -6.55274E+1
  -2.27116E+2   9.24525E+1
  -5.22643E+0   4.97169E+1
   1.98844E+2   9.38006E+1
  -9.83935E+1   2.11738E+1
  -4.92701E+1   3.31456E+2
  -1.40556E+2  -2.50982E+0
   2.08340E+1  -2.76124E+2
  -1.07949E+1   5.11047E+1
  -1.32123E+2   1.05787E+2
  -1.61320E+2   1.34043E+2
   1.50471E+2   3.01460E+1
   2.53212E+2  -4.61131E+1
   2.95322E+2   9.86872E+1
  -8.25255E+1   5.86783E+1
  -2.29457E+2   1.21692E+2
  -1.04722E+2  -1.29070E+2
   6.83144E+1   9.89913E+1
  -1.51107E+2  -1.25366E+2
   1.36416E+2   1.40507E+2
   3.41289E+2   1.53736E+2
   1.64767E+2   1.21861E+2
  -2.41911E+1   2.61590E+1
  -9.46123E+1   1.31484E+2
   5.33228E+0  -5.63419E+1
  -4.41501E+1   2.02345E+2
   8.76203E+1   1.31252E+1
   1.29586E+2   1.46247E+2
  -8.65503E+1   1.26542E+1
  -2.12975E+1   1.79753E+2
   1.26418E+2   1.47619E+2
  -3.63280E-1   1.53106E+2
   1.49193E+2  -3.79795E+1
   9.92565E+1   1.73227E+2
  -2.17792E+2  -4.77278E+1
   1.14631E+2   1.58287E+2
   8.99067E+1  -1.32925E+2
  -3.17578E+1   5.11982E+1
  -8.57905E+1  -5.82478E+1
  -1.19833E+2  -2.76331E+1
   5.31732E+1  -1.34875E+2
   3.45913E+1   1.17716E+2
  -2.57525E+2  -5.40769E+1
   1.27542E+1  -7.75637E+1
   9.24749E+1  -7.59382E+1
   5.61739E+1  -1.60388E+1
  -1.78609E+2   1.91756E+2
  -2.69903E+1   1.22190E+2
  -2.82552E+1   1.03843E+2
  -2.55151E+1   4.56025E+1
   1.15714E+2   1.70581E+2
  -1.73523E+2  -1.15059E+2
  -2.51651E+1   1.91422E+2
  -1.31305E+2   4.37872E+1
   1.60675E+2  -1.13419E+2
  -8.63782E+1  -1.43553E+2
  -4.92434E+1   1.53339E+2
  -1.02827E+1  -4.34872E+1
  -9.76455E+1  -1.35696E+2
  -1.99357E+2  -3.16212E+1
   2.78691E+2  -2.59220E+2
  -3.64056E+1  -4.07043E+1
  -9.58089E+1   2.02837E+1
   2.59366E+1   9.48757E+1
  -7.86558E+1   3.16012E+0
   1.11091E+2  -5.99618E+1
  -5.99915E+1   2.45440E+2
   1.44636E+2  -3.19956E+2
   1.03603E+2   2.49072E+1
   9.08534E+1   8.51748E+1
   9.88615E+1   1.04772E+2
   3.48099E+1   2.89069E+1
  -9.22261E+1  -5.51435E+0
   4.19380E+0   1.23450E+2
  -5.25292E+1   4.33044E+1
   1.65547E+1  -2.98657E+1
  -8.02890E+1   5.62465E+1
   7.80587E+0  -1.06309E+1
   7.39024E-1   1.53214E+2
  -2.34632E+2  -6.87041E+1
   1.86715E+2   2.24233E+2
  -1.87495E+1  -6.02654E+1
   1.09060E+1  -1.84103E+2
  -6.37203E+1  -4.61749E+1
   7.65413E+1   2.48073E+2
