 LCModel (Version 6.3-1N) Copyright: S.W. Provencher.          Ref.: Magn. Reson. Med. 30:672-679 (1993).                
 Slice_N1@10_17  28-Feb-2025 11:36:38
 27 lines in following concentration table = NCONC+1
    Conc.  %SD /Cr+PCr  Metabolite                                         
 1.80E-04  12% 1.4E-04 Mac                                                 
    4.598  46%   3.537 Cr                                                  
    5.802  35%   4.463 PCr                                                 
    8.647  19%   6.652 Ins                                                 
   11.494  12%   8.842 NAA                                                 
    8.793  18%   6.764 Tau                                                 
    0.956 180%   0.736 PCho                                                
    2.285  71%   1.757 GPC                                                 
   10.578  17%   8.137 Glu                                                 
    4.532  32%   3.486 Gln                                                 
    0.000 999%   0.000 Ala                                                 
    4.267  53%   3.283 Asc                                                 
    2.732  60%   2.102 Asp                                                 
    1.596  56%   1.228 GABA                                                
    0.988 113%   0.760 Glc                                                 
    3.154  29%   2.426 GSH                                                 
    0.000 999%   0.000 Lac                                                 
    0.983 105%   0.756 NAAG                                                
    0.203 999%   0.156 PE                                                  
    3.241  18%   2.493 GPC+PCho                                            
   12.477  11%   9.598 NAA+NAAG                                            
   15.110  16%  11.623 Glu+Gln                                             
   10.400  12%   8.000 Cr+PCr                                              
   12.477  11%   9.598 NAA+NAAG                                            
   10.400  12%   8.000 Cr+PCr                                              
   15.110  16%  11.623 Glu+Gln                                             
   6 lines in following misc. output table
  FWHM = 0.024 ppm    S/N =   3                                            
  Data shift = 0.016 ppm                                                   
  Ph:-136 deg       0.0 deg/ppm                                            
  alphaB,S = 1.2E-01,   1.5E+00                                            
   19 spline knots.   Ns = 5(1)                                            
  ( 3) 2 infls.   ( 1) 1 extrs.                                            
  480 points on ppm-axis = NY
      4.100000     4.091866     4.083733     4.075600     4.067466     4.059333     4.051199     4.043066     4.034933     4.026799
      4.018666     4.010532     4.002399     3.994265     3.986132     3.977998     3.969864     3.961731     3.953597     3.945463
      3.937330     3.929196     3.921062     3.912929     3.904795     3.896662     3.888528     3.880394     3.872261     3.864127
      3.855993     3.847860     3.839726     3.831592     3.823459     3.815325     3.807191     3.799058     3.790924     3.782790
      3.774657     3.766523     3.758389     3.750256     3.742122     3.733989     3.725855     3.717721     3.709588     3.701454
      3.693320     3.685187     3.677053     3.668919     3.660786     3.652652     3.644518     3.636385     3.628251     3.620117
      3.611984     3.603850     3.595716     3.587583     3.579449     3.571316     3.563182     3.555048     3.546915     3.538781
      3.530647     3.522514     3.514380     3.506246     3.498113     3.489979     3.481845     3.473712     3.465578     3.457444
      3.449311     3.441177     3.433043     3.424910     3.416776     3.408643     3.400509     3.392375     3.384242     3.376108
      3.367974     3.359841     3.351707     3.343573     3.335440     3.327306     3.319172     3.311039     3.302905     3.294771
      3.286638     3.278504     3.270370     3.262237     3.254103     3.245970     3.237836     3.229702     3.221569     3.213435
      3.205301     3.197168     3.189034     3.180900     3.172767     3.164633     3.156499     3.148366     3.140232     3.132098
      3.123965     3.115831     3.107697     3.099564     3.091430     3.083297     3.075163     3.067029     3.058896     3.050762
      3.042628     3.034495     3.026361     3.018227     3.010094     3.001960     2.993826     2.985693     2.977559     2.969425
      2.961292     2.953158     2.945024     2.936891     2.928757     2.920624     2.912490     2.904356     2.896223     2.888089
      2.879955     2.871822     2.863688     2.855554     2.847421     2.839287     2.831153     2.823020     2.814886     2.806752
      2.798619     2.790485     2.782351     2.774218     2.766084     2.757951     2.749817     2.741683     2.733550     2.725416
      2.717282     2.709149     2.701015     2.692881     2.684748     2.676614     2.668480     2.660347     2.652213     2.644079
      2.635946     2.627812     2.619678     2.611545     2.603411     2.595278     2.587144     2.579010     2.570877     2.562743
      2.554609     2.546476     2.538342     2.530208     2.522075     2.513941     2.505807     2.497674     2.489540     2.481406
      2.473273     2.465139     2.457006     2.448872     2.440738     2.432605     2.424471     2.416337     2.408204     2.400070
      2.391936     2.383803     2.375669     2.367535     2.359402     2.351268     2.343134     2.335001     2.326867     2.318733
      2.310600     2.302466     2.294333     2.286199     2.278065     2.269932     2.261798     2.253664     2.245531     2.237397
      2.229263     2.221130     2.212996     2.204862     2.196729     2.188595     2.180461     2.172328     2.164194     2.156060
      2.147927     2.139793     2.131660     2.123526     2.115392     2.107259     2.099125     2.090991     2.082858     2.074724
      2.066590     2.058457     2.050323     2.042189     2.034056     2.025922     2.017788     2.009655     2.001521     1.993387
      1.985254     1.977120     1.968987     1.960853     1.952719     1.944586     1.936452     1.928318     1.920185     1.912051
      1.903917     1.895784     1.887650     1.879516     1.871383     1.863249     1.855115     1.846982     1.838848     1.830714
      1.822581     1.814447     1.806314     1.798180     1.790046     1.781913     1.773779     1.765645     1.757512     1.749378
      1.741244     1.733111     1.724977     1.716843     1.708710     1.700576     1.692442     1.684309     1.676175     1.668041
      1.659908     1.651774     1.643641     1.635507     1.627373     1.619240     1.611106     1.602972     1.594839     1.586705
      1.578571     1.570438     1.562304     1.554170     1.546037     1.537903     1.529769     1.521636     1.513502     1.505368
      1.497235     1.489101     1.480968     1.472834     1.464700     1.456567     1.448433     1.440299     1.432166     1.424032
      1.415898     1.407765     1.399631     1.391497     1.383364     1.375230     1.367096     1.358963     1.350829     1.342695
      1.334562     1.326428     1.318295     1.310161     1.302027     1.293894     1.285760     1.277626     1.269493     1.261359
      1.253225     1.245092     1.236958     1.228824     1.220691     1.212557     1.204423     1.196290     1.188156     1.180022
      1.171889     1.163755     1.155622     1.147488     1.139354     1.131221     1.123087     1.114953     1.106820     1.098686
      1.090552     1.082419     1.074285     1.066151     1.058018     1.049884     1.041750     1.033617     1.025483     1.017349
      1.009216     1.001082     0.992949     0.984815     0.976681     0.968548     0.960414     0.952280     0.944147     0.936013
      0.927879     0.919746     0.911612     0.903478     0.895345     0.887211     0.879077     0.870944     0.862810     0.854676
      0.846543     0.838409     0.830276     0.822142     0.814008     0.805875     0.797741     0.789607     0.781474     0.773340
      0.765206     0.757073     0.748939     0.740805     0.732672     0.724538     0.716404     0.708271     0.700137     0.692003
      0.683870     0.675736     0.667603     0.659469     0.651335     0.643202     0.635068     0.626934     0.618801     0.610667
      0.602533     0.594400     0.586266     0.578132     0.569999     0.561865     0.553731     0.545598     0.537464     0.529330
      0.521197     0.513063     0.504930     0.496796     0.488662     0.480529     0.472395     0.464261     0.456128     0.447994
      0.439861     0.431727     0.423593     0.415460     0.407326     0.399192     0.391059     0.382925     0.374792     0.366658
      0.358524     0.350391     0.342257     0.334124     0.325990     0.317856     0.309723     0.301589     0.293455     0.285322
      0.277188     0.269055     0.260921     0.252787     0.244654     0.236520     0.228386     0.220253     0.212119     0.203986
 NY phased data points follow
   1.18473E+01  1.73393E+01  1.05665E+01 -3.64624E+00 -7.87130E+00  1.28433E+01  1.27832E+01  4.75312E+00  1.04841E+01  1.11834E+01
   7.83810E-01 -6.92638E+00 -1.26826E+01 -1.90026E+01 -1.81845E+01 -2.48270E+01 -1.33167E+01 -1.81310E+01 -3.21570E+01 -4.70011E+01
  -7.46117E+01 -7.05586E+01 -4.02314E+01 -3.20989E+00 -9.30228E+00  6.00977E+00  3.10188E+01  2.34416E+01  3.87177E+01  5.49335E+01
   5.66852E+01  2.81749E+01  3.91643E+01  4.45615E+01  1.93336E+01  4.34646E+01  3.77711E+01  1.93778E+01  1.43576E+01 -1.76589E+01
  -5.26900E+01 -6.40998E+01 -5.29026E+01 -3.77188E+01 -1.73504E+01  7.27151E+00  2.28254E+01  4.87852E+01  6.15437E+01  5.52632E+01
   6.38151E+01  5.13743E+01  4.41428E+01  4.68129E+01  4.78205E+01  3.71821E+01  7.58556E+00  1.61069E+01  1.10601E+01 -9.32604E+00
   4.11259E+00  2.89503E+01  2.71895E+01  1.96849E+01  4.66074E+01  6.58872E+01  6.62899E+01  5.29518E+01  2.28918E+01 -6.60901E+00
  -1.85744E+01 -6.31818E+00  1.51856E+01  1.84295E+01  4.72935E+01  6.58956E+01  5.56212E+01  8.05622E+01  7.06191E+01  8.99661E+01
   8.41557E+01  4.44107E+01  6.54556E+01  4.57801E+01  2.82078E+01  1.25478E+01  2.78632E+01  2.49425E+01  1.83377E+01  7.53074E+01
   6.48914E+01  7.67128E+01  9.63045E+01  9.43391E+01  9.30676E+01  9.04129E+01  1.22420E+02  1.16941E+02  1.15778E+02  1.15904E+02
   1.06152E+02  1.07458E+02  9.31747E+01  7.48747E+01  5.50538E+01  4.48018E+01  2.71095E+01  9.80078E+00  1.54195E+01 -1.51910E+01
  -1.06765E+02 -1.57650E+02 -1.24828E+02 -7.72237E+01 -5.64410E+01 -3.24385E+01 -1.94133E+01 -2.25395E+01 -5.65271E+00  4.64421E-01
   1.58497E+01  1.70131E+01  1.59394E+01  3.89815E+01  2.87595E+01  4.07989E+01  6.42631E+01  6.48666E+01  8.83033E+01  1.30103E+02
   1.64020E+02  1.76572E+02  1.19151E+02 -3.20928E-01 -6.67529E+01 -5.43369E+01 -3.34443E+01 -3.38915E+01 -2.98817E+01 -3.40032E+01
  -4.15630E+01 -3.66471E+01 -3.46367E+01 -3.74073E+01 -4.43751E+01 -4.41902E+01 -5.82898E+01 -5.04048E+01 -3.65652E+01 -2.94874E+01
  -2.37065E+01 -4.09792E+01 -1.46660E+01 -2.37812E+01 -3.31232E+01 -1.68723E+01 -2.66851E+01 -3.27729E+00 -1.90210E+01 -1.66105E+01
  -5.89536E+00 -1.44265E+01  5.53811E+00 -1.16136E+01 -2.33245E+01 -1.99184E+01 -1.09651E+01 -7.23329E+00 -1.13525E+01 -1.95620E+01
  -1.26526E+01  1.25899E+01  6.83288E+00  3.64643E+01  3.26001E+01  2.76438E+00  2.48184E+01  1.74561E+01  2.59597E+01  2.56462E+01
  -3.14191E+00  3.81306E+00 -1.72412E+00 -2.51427E+01 -2.97327E+01 -1.63895E+01 -1.61183E+01 -1.68154E+01 -6.81932E+00 -2.68637E+01
  -2.50876E+01 -1.87976E+00 -6.29059E+00 -5.01531E+00 -5.77428E+00 -1.77235E+00 -2.34172E+00 -1.34470E+01 -5.92277E+00 -6.76322E+00
  -1.31374E+01 -2.45006E+00  1.31254E+01  3.02890E+01  3.33400E+01  1.61304E+01  7.42028E+00 -9.21525E+00 -2.69602E+01 -3.18116E+01
  -4.64455E+01 -4.89397E+01 -3.94935E+01 -3.49335E+01 -1.06680E+01  2.69612E+01  3.73292E+01  4.73350E+01  5.16065E+01  4.05252E+01
   3.03260E+01 -1.76366E+00 -1.36443E+01 -5.46566E+00 -1.04303E+01 -7.23573E+00  1.47518E+00  3.44833E+00  9.47206E+00  1.29780E+01
   1.12365E+01  4.18565E+00 -2.89012E-02  1.18021E+01  5.48739E-01 -2.73265E+01 -3.65837E+01 -3.25095E+01 -5.81474E+01 -6.32854E+01
  -4.91887E+01 -5.02370E+01 -2.12878E+01 -1.14159E+01  1.65265E+01  1.42928E+01  8.13924E+00  1.89896E+01 -1.56260E+01  2.73413E+00
  -1.35588E+01 -3.08395E+01 -3.83193E+01 -5.38652E+01 -4.41184E+01 -8.15134E+01 -1.02993E+02 -8.87227E+01  4.02668E+01  1.65336E+02
   1.60304E+02  1.57773E+02  1.27359E+02  1.03995E+02  1.17180E+02  9.85561E+01  9.61910E+01  9.33860E+01  7.37889E+01  8.31724E+01
   7.05031E+01  6.56451E+01  7.49039E+01  7.22873E+01  8.27413E+01  7.61450E+01  7.31156E+01  7.36325E+01  7.82122E+01  7.69097E+01
   7.25339E+01  8.16474E+01  8.45085E+01  8.19954E+01  6.43593E+01  6.29711E+01  7.75367E+01  6.69974E+01  5.08381E+01  6.77735E+01
   6.41911E+01  4.03041E+01  4.52999E+01  4.95765E+01  4.04139E+01  2.65859E+01  2.43644E+01  1.89469E+01  1.68905E+01  1.34489E+00
  -7.71534E+00 -6.73624E+00 -2.69120E+01 -2.33085E+01 -2.46969E+01 -2.48449E+01 -3.10576E+01 -2.42344E+01 -1.52897E+01 -3.96343E+01
  -3.10570E+01 -2.30812E+01 -3.20072E+01 -5.03236E+01 -5.22199E+01 -5.39441E+01 -7.27283E+01 -7.50703E+01 -8.22900E+01 -6.36362E+01
  -4.96522E+01 -5.76473E+01 -6.49126E+01 -6.48585E+01 -4.17089E+01 -3.00414E+01 -3.17384E+01 -2.07468E+01 -5.66117E+00  1.24468E-01
   2.63352E+01  4.64697E+01  4.45004E+01  3.31067E+01  1.93541E+01  5.44315E+01  7.19264E+01  6.44054E+01  8.98123E+01  1.14730E+02
   1.22246E+02  1.17281E+02  1.15162E+02  9.32802E+01  7.95108E+01  7.46482E+01  6.08800E+01  5.81520E+01  5.17700E+01  7.96806E+01
   8.44303E+01  7.25550E+01  6.66398E+01  5.54722E+01  7.20140E+01  5.72284E+01  6.08192E+01  5.22206E+01  3.50555E+01  4.09643E+01
   3.05525E+01  3.53502E+01  2.41222E+01  3.29312E+01  3.82514E+01  4.53959E+01  4.53406E+01  4.33150E+01  6.12256E+01  5.42196E+01
   7.09035E+01  6.36891E+01  7.33399E+01  7.45158E+01  7.08685E+01  9.18376E+01  9.06873E+01  1.13377E+02  9.83307E+01  1.11505E+02
   1.23395E+02  1.22544E+02  1.48193E+02  1.46672E+02  1.61919E+02  1.73111E+02  1.79029E+02  1.73352E+02  1.69186E+02  1.64945E+02
   1.73044E+02  1.63986E+02  1.41090E+02  1.39123E+02  1.14551E+02  1.04159E+02  9.74424E+01  1.11995E+02  1.01602E+02  8.34526E+01
   7.96579E+01  5.42321E+01  4.36771E+01  3.23885E+01  2.64661E+01  1.90680E+01  3.80080E+01  1.61495E+01  9.74481E+00  2.37637E+01
   6.61973E+00  2.51373E+01  8.78969E+00  1.31203E+01  1.73595E+01  2.00723E+01  2.02287E+01  1.47087E+01  2.96498E+01  1.11410E+01
   1.77293E+01  2.32612E+01  2.10660E+01  1.52889E+01  1.12715E+01  6.50160E+00  1.65140E+01  3.16745E+01  2.55850E+01  3.04216E+01
   2.55502E+01  3.62887E+01  1.08016E+01  4.19518E+00  2.19278E+01  1.55858E+01  2.49336E+01  1.10442E+01 -3.10574E+00  1.95105E+00
   5.92214E+00 -9.29602E+00  1.06491E+01  2.35264E+01  1.85336E+01  1.63127E+01  1.40348E+01  2.18843E+01  1.14225E+00  1.43555E+01
   8.82163E+00  7.82439E+00  2.35024E+01  1.30520E+01 -1.81045E+00  5.75122E+00  2.91878E+01 -3.51494E-01  1.21920E+01  2.66000E+01
   2.35974E+01  2.26043E+01  1.78247E+01  2.52459E+01  1.31418E+01  2.46453E+01  4.75409E+00  4.87085E+00  1.33278E+01  7.27895E+00
   2.43974E+01  1.65286E+01  1.44897E+01  1.42163E+01  2.84976E+01  3.19139E+01  1.91278E+01  1.92429E+01  2.42241E+01  2.22503E+01
 NY points of the fit to the data follow
  -5.22488E+00 -1.17022E+01 -1.84751E+01 -2.49910E+01 -2.76918E+01 -1.82330E+01  2.70343E+00  1.74867E+01  1.39369E+01  3.48084E+00
  -2.90038E+00 -5.62184E+00 -7.04849E+00 -6.79149E+00 -5.23200E+00 -4.81161E+00 -8.86660E+00 -1.84729E+01 -2.96229E+01 -4.91673E+01
  -6.81329E+01 -6.38712E+01 -3.52380E+01 -9.04536E+00  8.80925E+00  3.96105E+01  5.65094E+01  5.44762E+01  5.81104E+01  6.11543E+01
   5.96700E+01  5.65271E+01  5.37721E+01  5.17661E+01  4.89952E+01  4.53470E+01  3.85883E+01  2.54192E+01  7.29166E+00 -1.74790E+01
  -4.50584E+01 -6.02543E+01 -4.75439E+01 -2.05720E+01 -5.09942E+00  7.96254E+00  2.59661E+01  4.17878E+01  5.06282E+01  5.49636E+01
   5.61968E+01  5.31168E+01  4.62279E+01  3.56453E+01  2.41858E+01  1.33664E+01  9.89439E+00  1.34250E+01  9.77085E+00 -2.75461E+00
  -3.23452E+00  1.50157E+01  2.39590E+01  2.76454E+01  4.89780E+01  6.36109E+01  6.16440E+01  5.69523E+01  4.19461E+01  1.55840E+01
  -1.04694E+00  7.48215E+00  2.09460E+01  2.24714E+01  3.26963E+01  5.33227E+01  6.53831E+01  6.98932E+01  7.36413E+01  7.65927E+01
   7.38034E+01  6.38656E+01  4.64307E+01  2.51175E+01  6.44687E+00 -1.92931E+00  5.62089E+00  1.95535E+01  3.72362E+01  5.19446E+01
   5.92733E+01  6.56391E+01  7.11820E+01  7.60823E+01  8.12962E+01  8.62150E+01  9.11686E+01  9.80307E+01  1.02479E+02  1.01512E+02
   1.01011E+02  1.03634E+02  9.59365E+01  7.61814E+01  6.08779E+01  5.18131E+01  3.45417E+01  3.19211E+01  3.47388E+01 -1.25576E+01
  -1.03155E+02 -1.55463E+02 -1.18314E+02 -6.80690E+01 -5.06486E+01 -3.75024E+01 -2.42203E+01 -1.32815E+01 -3.65587E+00  5.32207E+00
   1.41817E+01  2.31706E+01  3.19861E+01  4.05369E+01  4.80585E+01  5.33714E+01  5.72669E+01  6.95598E+01  9.19796E+01  1.13958E+02
   1.43346E+02  1.59773E+02  1.12883E+02 -2.49202E+00 -8.21758E+01 -7.24147E+01 -5.18077E+01 -5.05965E+01 -4.64163E+01 -4.01415E+01
  -3.65867E+01 -3.59719E+01 -3.72154E+01 -3.76105E+01 -3.68012E+01 -3.58295E+01 -3.54389E+01 -3.33720E+01 -3.09670E+01 -2.98510E+01
  -2.90867E+01 -2.74853E+01 -2.48770E+01 -2.24049E+01 -1.98155E+01 -1.70139E+01 -1.48399E+01 -1.45786E+01 -1.54877E+01 -1.51892E+01
  -1.19714E+01 -7.81415E+00 -6.54867E+00 -9.91657E+00 -1.49721E+01 -1.71207E+01 -1.68097E+01 -1.60516E+01 -1.43774E+01 -1.10133E+01
  -5.73093E+00  4.05153E+00  1.70113E+01  2.32833E+01  1.69542E+01  9.38386E+00  1.51869E+01  2.75332E+01  2.96407E+01  1.60720E+01
  -3.53062E+00 -1.30854E+01 -1.52652E+01 -1.80528E+01 -1.96103E+01 -2.00485E+01 -2.09164E+01 -2.13921E+01 -2.13763E+01 -2.17617E+01
  -2.06183E+01 -1.70714E+01 -1.28455E+01 -8.28647E+00  1.05108E+00  1.17904E+01  1.16946E+01  7.64883E+00  1.16038E+01  1.50804E+01
   1.19349E+01  8.29256E+00  1.08408E+01  1.94945E+01  2.25450E+01  1.70618E+01  1.03410E+01  4.58039E+00 -4.27773E+00 -1.45976E+01
  -2.23513E+01 -2.89460E+01 -2.94197E+01 -2.30043E+01 -9.60912E+00  1.07316E+01  3.41196E+01  5.44127E+01  5.81416E+01  5.83462E+01
   5.18549E+01  3.81749E+01  3.37458E+01  3.16009E+01  2.84554E+01  2.45194E+01  1.72666E+01  9.32314E+00  2.03996E-01 -9.96547E+00
  -1.87683E+01 -2.74091E+01 -3.53206E+01 -4.20132E+01 -4.82758E+01 -5.40165E+01 -5.82767E+01 -6.19623E+01 -6.31928E+01 -6.12553E+01
  -5.46076E+01 -4.71343E+01 -3.77449E+01 -2.53800E+01 -1.80763E+01 -1.06268E+01 -6.18714E+00 -5.22818E+00 -5.55266E+00 -9.64480E+00
  -1.26492E+01 -1.28978E+01 -2.46755E+01 -4.31637E+01 -5.62726E+01 -8.32697E+01 -1.16581E+02 -9.35068E+01  2.33672E+01  1.27843E+02
   1.30479E+02  1.05218E+02  9.98130E+01  9.52030E+01  8.87901E+01  8.29516E+01  7.73823E+01  7.22661E+01  6.72799E+01  6.30191E+01
   5.94407E+01  5.73382E+01  5.61729E+01  5.55517E+01  5.65278E+01  5.69169E+01  5.74441E+01  5.72245E+01  5.57610E+01  5.44493E+01
   5.28687E+01  5.10443E+01  4.89508E+01  4.68206E+01  4.47558E+01  4.24625E+01  3.98669E+01  3.70314E+01  3.40628E+01  3.13164E+01
   2.87017E+01  2.66209E+01  2.55283E+01  2.54204E+01  2.61507E+01  2.73466E+01  2.85861E+01  2.98559E+01  3.13951E+01  3.30468E+01
   3.44981E+01  3.58188E+01  3.71307E+01  3.84244E+01  3.98602E+01  4.15396E+01  4.33063E+01  4.47496E+01  4.58801E+01  4.69292E+01
   4.80363E+01  4.90233E+01  4.95237E+01  4.96875E+01  4.96533E+01  4.90329E+01  4.78598E+01  4.66039E+01  4.52537E+01  4.34675E+01
   4.12659E+01  3.88500E+01  3.58997E+01  3.21260E+01  2.71479E+01  2.14782E+01  1.63009E+01  1.19865E+01  8.65975E+00  6.62634E+00
   6.33460E+00  7.69008E+00  1.03828E+01  1.36173E+01  1.65369E+01  1.89599E+01  2.08658E+01  2.26944E+01  2.49940E+01  2.79599E+01
   3.12372E+01  3.42574E+01  3.68888E+01  3.85686E+01  3.94647E+01  4.02698E+01  4.07207E+01  4.04529E+01  3.94009E+01  3.78204E+01
   3.56948E+01  3.33481E+01  3.17174E+01  3.12409E+01  3.15944E+01  3.26608E+01  3.44732E+01  3.67368E+01  3.93018E+01  4.21275E+01
   4.49788E+01  4.77908E+01  5.03309E+01  5.27182E+01  5.51136E+01  5.74626E+01  5.99613E+01  6.23973E+01  6.47246E+01  6.71866E+01
   6.97968E+01  7.27665E+01  7.60766E+01  7.96187E+01  8.32685E+01  8.74871E+01  9.22501E+01  9.69488E+01  1.01752E+02  1.06996E+02
   1.12330E+02  1.16900E+02  1.20052E+02  1.21249E+02  1.19823E+02  1.15731E+02  1.09423E+02  1.02525E+02  9.64380E+01  9.13200E+01
   8.68272E+01  8.27145E+01  7.87287E+01  7.39131E+01  6.81973E+01  6.23302E+01  5.67981E+01  5.16624E+01  4.75332E+01  4.45476E+01
   4.22216E+01  4.02490E+01  3.88717E+01  3.79445E+01  3.70798E+01  3.62004E+01  3.53428E+01  3.46447E+01  3.41626E+01  3.39518E+01
   3.37309E+01  3.33323E+01  3.29974E+01  3.29368E+01  3.27367E+01  3.22105E+01  3.18827E+01  3.19532E+01  3.18934E+01  3.13905E+01
   3.10213E+01  3.09020E+01  3.06737E+01  3.02686E+01  2.99355E+01  2.98484E+01  2.98403E+01  2.96593E+01  2.92401E+01  2.87941E+01
   2.83550E+01  2.80360E+01  2.78052E+01  2.77062E+01  2.75525E+01  2.73148E+01  2.70925E+01  2.67670E+01  2.64865E+01  2.62000E+01
   2.58351E+01  2.53316E+01  2.48905E+01  2.46013E+01  2.44013E+01  2.42149E+01  2.38993E+01  2.35976E+01  2.32400E+01  2.28110E+01
   2.26233E+01  2.25080E+01  2.22953E+01  2.20322E+01  2.17917E+01  2.14688E+01  2.12221E+01  2.09952E+01  2.06572E+01  2.01706E+01
   1.97175E+01  1.94432E+01  1.91703E+01  1.89722E+01  1.89587E+01  1.89719E+01  1.88241E+01  1.83555E+01  1.77494E+01  1.72293E+01
   1.69511E+01  1.67971E+01  1.65279E+01  1.62439E+01  1.60145E+01  1.56661E+01  1.52310E+01  1.50057E+01  1.51124E+01  1.52639E+01
 NY background values follow
     2.174E+01    2.181E+01    2.188E+01    2.194E+01    2.201E+01    2.208E+01    2.215E+01    2.222E+01    2.228E+01    2.236E+01
     2.243E+01    2.250E+01    2.257E+01    2.265E+01    2.272E+01    2.280E+01    2.288E+01    2.296E+01    2.304E+01    2.313E+01
     2.321E+01    2.330E+01    2.339E+01    2.348E+01    2.358E+01    2.367E+01    2.377E+01    2.387E+01    2.398E+01    2.408E+01
     2.419E+01    2.431E+01    2.442E+01    2.454E+01    2.466E+01    2.478E+01    2.491E+01    2.504E+01    2.516E+01    2.529E+01
     2.543E+01    2.556E+01    2.570E+01    2.583E+01    2.597E+01    2.611E+01    2.624E+01    2.638E+01    2.652E+01    2.666E+01
     2.680E+01    2.694E+01    2.708E+01    2.722E+01    2.736E+01    2.750E+01    2.763E+01    2.777E+01    2.790E+01    2.804E+01
     2.817E+01    2.830E+01    2.843E+01    2.856E+01    2.868E+01    2.881E+01    2.893E+01    2.905E+01    2.917E+01    2.928E+01
     2.939E+01    2.950E+01    2.961E+01    2.971E+01    2.981E+01    2.991E+01    3.000E+01    3.010E+01    3.018E+01    3.027E+01
     3.035E+01    3.042E+01    3.050E+01    3.057E+01    3.063E+01    3.069E+01    3.075E+01    3.080E+01    3.084E+01    3.089E+01
     3.092E+01    3.096E+01    3.098E+01    3.101E+01    3.102E+01    3.104E+01    3.105E+01    3.105E+01    3.105E+01    3.105E+01
     3.104E+01    3.102E+01    3.101E+01    3.099E+01    3.096E+01    3.093E+01    3.090E+01    3.086E+01    3.082E+01    3.077E+01
     3.072E+01    3.067E+01    3.061E+01    3.055E+01    3.049E+01    3.042E+01    3.035E+01    3.028E+01    3.020E+01    3.012E+01
     3.004E+01    2.995E+01    2.986E+01    2.977E+01    2.967E+01    2.957E+01    2.947E+01    2.937E+01    2.926E+01    2.915E+01
     2.904E+01    2.892E+01    2.881E+01    2.868E+01    2.856E+01    2.844E+01    2.831E+01    2.818E+01    2.804E+01    2.791E+01
     2.777E+01    2.763E+01    2.749E+01    2.735E+01    2.720E+01    2.705E+01    2.690E+01    2.675E+01    2.660E+01    2.644E+01
     2.628E+01    2.612E+01    2.596E+01    2.580E+01    2.563E+01    2.547E+01    2.530E+01    2.513E+01    2.496E+01    2.479E+01
     2.461E+01    2.444E+01    2.426E+01    2.409E+01    2.391E+01    2.373E+01    2.355E+01    2.337E+01    2.319E+01    2.301E+01
     2.282E+01    2.264E+01    2.246E+01    2.227E+01    2.209E+01    2.190E+01    2.172E+01    2.153E+01    2.135E+01    2.116E+01
     2.098E+01    2.079E+01    2.060E+01    2.042E+01    2.023E+01    2.005E+01    1.986E+01    1.968E+01    1.950E+01    1.931E+01
     1.913E+01    1.895E+01    1.877E+01    1.859E+01    1.841E+01    1.823E+01    1.806E+01    1.788E+01    1.771E+01    1.754E+01
     1.736E+01    1.720E+01    1.703E+01    1.686E+01    1.670E+01    1.653E+01    1.637E+01    1.621E+01    1.606E+01    1.590E+01
     1.575E+01    1.560E+01    1.545E+01    1.530E+01    1.516E+01    1.501E+01    1.487E+01    1.473E+01    1.459E+01    1.445E+01
     1.431E+01    1.417E+01    1.403E+01    1.389E+01    1.375E+01    1.361E+01    1.347E+01    1.333E+01    1.318E+01    1.304E+01
     1.289E+01    1.275E+01    1.260E+01    1.245E+01    1.229E+01    1.214E+01    1.198E+01    1.182E+01    1.165E+01    1.148E+01
     1.131E+01    1.114E+01    1.096E+01    1.078E+01    1.060E+01    1.041E+01    1.022E+01    1.003E+01    9.828E+00    9.627E+00
     9.423E+00    9.216E+00    9.005E+00    8.792E+00    8.575E+00    8.356E+00    8.133E+00    7.907E+00    7.678E+00    7.445E+00
     7.210E+00    6.972E+00    6.731E+00    6.487E+00    6.240E+00    5.990E+00    5.737E+00    5.481E+00    5.223E+00    4.961E+00
     4.697E+00    4.431E+00    4.163E+00    3.894E+00    3.626E+00    3.359E+00    3.094E+00    2.832E+00    2.574E+00    2.320E+00
     2.072E+00    1.830E+00    1.596E+00    1.370E+00    1.153E+00    9.461E-01    7.498E-01    5.652E-01    3.932E-01    2.346E-01
     9.029E-02   -3.882E-02   -1.519E-01   -2.480E-01   -3.263E-01   -3.860E-01   -4.260E-01   -4.457E-01   -4.440E-01   -4.202E-01
    -3.734E-01   -3.034E-01   -2.105E-01   -9.506E-02    4.266E-02    2.023E-01    3.836E-01    5.862E-01    8.098E-01    1.054E+00
     1.319E+00    1.604E+00    1.908E+00    2.232E+00    2.575E+00    2.937E+00    3.318E+00    3.716E+00    4.133E+00    4.567E+00
     5.018E+00    5.487E+00    5.972E+00    6.473E+00    6.990E+00    7.523E+00    8.072E+00    8.635E+00    9.214E+00    9.806E+00
     1.041E+01    1.103E+01    1.167E+01    1.231E+01    1.297E+01    1.363E+01    1.430E+01    1.499E+01    1.567E+01    1.637E+01
     1.707E+01    1.777E+01    1.848E+01    1.919E+01    1.990E+01    2.061E+01    2.132E+01    2.204E+01    2.274E+01    2.345E+01
     2.415E+01    2.485E+01    2.554E+01    2.622E+01    2.690E+01    2.756E+01    2.822E+01    2.887E+01    2.950E+01    3.013E+01
     3.074E+01    3.134E+01    3.192E+01    3.249E+01    3.304E+01    3.358E+01    3.411E+01    3.462E+01    3.511E+01    3.559E+01
     3.605E+01    3.650E+01    3.693E+01    3.734E+01    3.774E+01    3.812E+01    3.848E+01    3.882E+01    3.914E+01    3.945E+01
     3.974E+01    4.000E+01    4.025E+01    4.048E+01    4.069E+01    4.088E+01    4.105E+01    4.120E+01    4.132E+01    4.143E+01
     4.152E+01    4.158E+01    4.162E+01    4.164E+01    4.165E+01    4.163E+01    4.160E+01    4.155E+01    4.147E+01    4.139E+01
     4.128E+01    4.116E+01    4.103E+01    4.088E+01    4.071E+01    4.053E+01    4.034E+01    4.013E+01    3.991E+01    3.968E+01
     3.944E+01    3.918E+01    3.892E+01    3.864E+01    3.835E+01    3.806E+01    3.776E+01    3.745E+01    3.713E+01    3.680E+01
     3.647E+01    3.613E+01    3.578E+01    3.543E+01    3.507E+01    3.471E+01    3.434E+01    3.397E+01    3.359E+01    3.321E+01
     3.283E+01    3.244E+01    3.205E+01    3.165E+01    3.125E+01    3.085E+01    3.044E+01    3.004E+01    2.963E+01    2.922E+01
     2.881E+01    2.840E+01    2.798E+01    2.757E+01    2.715E+01    2.674E+01    2.633E+01    2.591E+01    2.550E+01    2.509E+01
     2.468E+01    2.427E+01    2.386E+01    2.345E+01    2.304E+01    2.264E+01    2.224E+01    2.183E+01    2.143E+01    2.103E+01
     2.063E+01    2.023E+01    1.983E+01    1.943E+01    1.903E+01    1.863E+01    1.824E+01    1.784E+01    1.744E+01    1.705E+01
     1.665E+01    1.626E+01    1.586E+01    1.547E+01    1.507E+01    1.468E+01    1.428E+01    1.389E+01    1.349E+01    1.310E+01
 Mac      Conc. = 1.80E-04
   8.37126E+00  8.02107E+00  7.41054E+00  6.50118E+00  5.36589E+00  4.31676E+00  3.62314E+00  3.34811E+00  3.33085E+00  3.20885E+00
   2.85499E+00  2.28037E+00  1.35451E+00  6.34765E-01  1.57202E+00  4.54018E+00  7.88944E+00  1.00564E+01  1.19388E+01  1.40833E+01
   1.53374E+01  1.59442E+01  1.67256E+01  1.78370E+01  1.90526E+01  2.03875E+01  2.17618E+01  2.27310E+01  2.33521E+01  2.38948E+01
   2.42932E+01  2.43163E+01  2.42887E+01  2.47521E+01  2.60325E+01  2.78318E+01  2.91105E+01  2.93607E+01  2.91496E+01  2.94052E+01
   3.03132E+01  3.13663E+01  3.21952E+01  3.23823E+01  3.21304E+01  3.16978E+01  3.10220E+01  3.02999E+01  2.97291E+01  2.93898E+01
   2.91246E+01  2.90537E+01  2.91954E+01  2.95314E+01  3.03933E+01  3.15087E+01  3.23650E+01  3.31364E+01  3.40619E+01  3.46623E+01
   3.45027E+01  3.40527E+01  3.35644E+01  3.32107E+01  3.32223E+01  3.32723E+01  3.33311E+01  3.40488E+01  3.57389E+01  3.76196E+01
   3.88063E+01  3.93168E+01  3.95837E+01  3.94534E+01  3.90969E+01  3.86393E+01  3.82410E+01  3.81657E+01  3.80812E+01  3.80485E+01
   3.83726E+01  3.90285E+01  3.96357E+01  4.01200E+01  4.06492E+01  4.11681E+01  4.15196E+01  4.18186E+01  4.21238E+01  4.22098E+01
   4.21181E+01  4.17177E+01  4.07537E+01  3.92932E+01  3.77357E+01  3.61935E+01  3.48414E+01  3.37601E+01  3.25541E+01  3.07766E+01
   2.84402E+01  2.56932E+01  2.21578E+01  1.79762E+01  1.40069E+01  1.15648E+01  1.11417E+01  1.19192E+01  1.32771E+01  1.49065E+01
