 
 $NMID
 ID=''
 FMTDAT='(2E13.5)'
 TRAMP=   1.00000E+0
 VOLUME=   1.00000E+0
 $END
   1.56755E+5   7.55823E+5
  -3.58726E+5   1.98469E+6
  -1.89001E+5   1.96492E+6
  -3.14445E+5   1.88494E+6
  -3.59775E+5   1.95701E+6
  -3.40022E+5   1.86736E+6
  -4.54719E+5   1.80009E+6
  -4.97594E+5   1.87535E+6
  -4.52009E+5   1.83240E+6
  -5.23819E+5   1.75171E+6
  -5.86772E+5   1.76437E+6
  -5.83448E+5   1.74344E+6
  -6.18721E+5   1.70139E+6
  -6.45941E+5   1.68906E+6
  -6.59529E+5   1.64703E+6
  -6.98287E+5   1.61778E+6
  -7.23065E+5   1.61524E+6
  -7.44536E+5   1.56923E+6
  -7.90033E+5   1.52919E+6
  -8.13447E+5   1.51671E+6
  -8.34997E+5   1.47525E+6
  -8.72911E+5   1.43882E+6
  -8.90988E+5   1.42023E+6
  -9.08518E+5   1.38275E+6
  -9.41572E+5   1.34442E+6
  -9.51785E+5   1.32389E+6
  -9.64069E+5   1.29285E+6
  -9.86813E+5   1.26542E+6
  -9.98739E+5   1.23718E+6
  -1.00872E+6   1.20321E+6
  -1.03183E+6   1.17493E+6
  -1.04492E+6   1.14707E+6
  -1.06049E+6   1.10896E+6
  -1.07902E+6   1.07746E+6
  -1.08866E+6   1.04727E+6
  -1.10199E+6   1.01387E+6
  -1.12187E+6   9.83878E+5
  -1.13402E+6   9.50906E+5
  -1.14229E+6   9.15537E+5
  -1.15336E+6   8.88422E+5
  -1.16004E+6   8.59083E+5
  -1.16604E+6   8.26076E+5
  -1.17039E+6   7.99697E+5
  -1.17576E+6   7.74502E+5
  -1.18052E+6   7.44167E+5
  -1.18613E+6   7.16763E+5
  -1.19171E+6   6.87885E+5
  -1.19926E+6   6.54770E+5
  -1.20204E+6   6.22118E+5
  -1.20338E+6   5.91659E+5
  -1.20849E+6   5.61337E+5
  -1.21366E+6   5.31251E+5
  -1.21513E+6   5.00724E+5
  -1.21719E+6   4.71323E+5
  -1.21915E+6   4.41862E+5
  -1.22016E+6   4.12531E+5
  -1.21843E+6   3.83281E+5
  -1.21556E+6   3.55814E+5
  -1.21251E+6   3.30574E+5
  -1.21151E+6   3.04113E+5
  -1.20927E+6   2.77220E+5
  -1.20581E+6   2.50560E+5
  -1.20331E+6   2.24415E+5
  -1.20011E+6   1.96276E+5
  -1.19369E+6   1.68180E+5
  -1.18636E+6   1.42749E+5
  -1.18037E+6   1.17304E+5
  -1.17399E+6   9.15822E+4
  -1.16766E+6   6.72109E+4
  -1.16121E+6   4.26044E+4
  -1.15355E+6   1.76081E+4
  -1.14373E+6  -5.74902E+3
  -1.13527E+6  -2.67499E+4
  -1.12790E+6  -4.86673E+4
  -1.11828E+6  -7.17504E+4
  -1.10707E+6  -9.39334E+4
  -1.09681E+6  -1.15002E+5
  -1.08748E+6  -1.36380E+5
  -1.07581E+6  -1.58503E+5
  -1.06278E+6  -1.80180E+5
  -1.05010E+6  -2.01138E+5
  -1.03781E+6  -2.20996E+5
  -1.02472E+6  -2.40191E+5
  -1.01074E+6  -2.59865E+5
  -9.96845E+5  -2.78957E+5
  -9.82758E+5  -2.96157E+5
  -9.68750E+5  -3.12491E+5
  -9.54427E+5  -3.28821E+5
  -9.39987E+5  -3.44502E+5
  -9.25270E+5  -3.58872E+5
  -9.10472E+5  -3.72430E+5
  -8.95616E+5  -3.86713E+5
  -8.80826E+5  -4.01533E+5
  -8.64287E+5  -4.15187E+5
  -8.47006E+5  -4.27517E+5
  -8.30313E+5  -4.39169E+5
  -8.14738E+5  -4.51051E+5
  -7.99015E+5  -4.62916E+5
  -7.81694E+5  -4.73848E+5
  -7.64685E+5  -4.83944E+5
  -7.48802E+5  -4.93806E+5
  -7.32139E+5  -5.03837E+5
  -7.14500E+5  -5.12793E+5
  -6.96819E+5  -5.20636E+5
  -6.80305E+5  -5.27322E+5
  -6.64643E+5  -5.33974E+5
  -6.48297E+5  -5.40919E+5
  -6.30552E+5  -5.47573E+5
  -6.12648E+5  -5.53030E+5
  -5.95783E+5  -5.57435E+5
  -5.79711E+5  -5.62004E+5
  -5.62908E+5  -5.67657E+5
  -5.45281E+5  -5.73000E+5
  -5.27661E+5  -5.77254E+5
  -5.10210E+5  -5.80977E+5
  -4.92913E+5  -5.84956E+5
  -4.75327E+5  -5.88822E+5
  -4.57671E+5  -5.91116E+5
  -4.40361E+5  -5.92011E+5
  -4.24066E+5  -5.93129E+5
  -4.08335E+5  -5.95149E+5
  -3.92315E+5  -5.96779E+5
  -3.75922E+5  -5.97612E+5
  -3.59482E+5  -5.98337E+5
  -3.42911E+5  -5.98735E+5
  -3.26107E+5  -5.98728E+5
  -3.10340E+5  -5.97549E+5
  -2.94314E+5  -5.96645E+5
  -2.78643E+5  -5.95758E+5
  -2.62600E+5  -5.95090E+5
  -2.46132E+5  -5.94080E+5
  -2.29381E+5  -5.92723E+5
  -2.13602E+5  -5.89692E+5
  -1.98656E+5  -5.87153E+5
  -1.83335E+5  -5.85001E+5
  -1.68257E+5  -5.81749E+5
  -1.53476E+5  -5.78252E+5
  -1.39459E+5  -5.74589E+5
  -1.24851E+5  -5.71202E+5
  -1.10335E+5  -5.67083E+5
  -9.63223E+4  -5.62414E+5
  -8.26575E+4  -5.57040E+5
  -6.99466E+4  -5.51667E+5
  -5.73640E+4  -5.47076E+5
  -4.44087E+4  -5.42083E+5
  -3.16514E+4  -5.36460E+5
  -1.90463E+4  -5.29818E+5
  -7.35125E+3  -5.23273E+5
   4.57552E+3  -5.16941E+5
   1.55474E+4  -5.10307E+5
   2.63153E+4  -5.03531E+5
   3.63569E+4  -4.96421E+5
   4.61811E+4  -4.89674E+5
   5.62077E+4  -4.82869E+5
   6.61411E+4  -4.75544E+5
   7.55819E+4  -4.67824E+5
   8.41957E+4  -4.59902E+5
   9.22954E+4  -4.52488E+5
   1.00805E+5  -4.44622E+5
   1.09185E+5  -4.36425E+5
   1.16846E+5  -4.28707E+5
   1.24477E+5  -4.20580E+5
   1.32049E+5  -4.12232E+5
   1.39569E+5  -4.03851E+5
   1.46073E+5  -3.95043E+5
   1.52143E+5  -3.86737E+5
   1.58010E+5  -3.78751E+5
   1.64312E+5  -3.70593E+5
   1.70073E+5  -3.61966E+5
   1.75383E+5  -3.53632E+5
   1.80313E+5  -3.45472E+5
   1.85112E+5  -3.37230E+5
   1.90058E+5  -3.28486E+5
   1.94145E+5  -3.20240E+5
   1.98795E+5  -3.11845E+5
   2.02784E+5  -3.03347E+5
   2.06787E+5  -2.95311E+5
   2.11161E+5  -2.86607E+5
   2.14306E+5  -2.77614E+5
   2.17550E+5  -2.69052E+5
   2.20865E+5  -2.61104E+5
   2.24065E+5  -2.52877E+5
   2.26929E+5  -2.44399E+5
   2.29728E+5  -2.35882E+5
   2.31784E+5  -2.27595E+5
   2.34337E+5  -2.19615E+5
   2.36070E+5  -2.11560E+5
   2.37668E+5  -2.03274E+5
   2.38880E+5  -1.95447E+5
   2.40202E+5  -1.88151E+5
   2.42279E+5  -1.80335E+5
   2.43372E+5  -1.72523E+5
   2.44586E+5  -1.64449E+5
   2.45174E+5  -1.56332E+5
   2.45768E+5  -1.48663E+5
   2.46537E+5  -1.40862E+5
   2.46786E+5  -1.33292E+5
   2.47056E+5  -1.25847E+5
   2.47118E+5  -1.18136E+5
   2.47243E+5  -1.10473E+5
   2.46921E+5  -1.03070E+5
   2.46559E+5  -9.53530E+4
   2.45478E+5  -8.81037E+4
   2.44715E+5  -8.12558E+4
   2.43983E+5  -7.46986E+4
   2.43011E+5  -6.75590E+4
   2.41895E+5  -6.06248E+4
   2.40317E+5  -5.38083E+4
   2.38700E+5  -4.73671E+4
   2.37214E+5  -4.09117E+4
   2.35441E+5  -3.44710E+4
   2.33439E+5  -2.81944E+4
   2.31494E+5  -2.22201E+4
   2.29566E+5  -1.62165E+4
   2.27575E+5  -1.00717E+4
   2.25100E+5  -4.27184E+3
   2.22440E+5   1.29910E+3
   2.19408E+5   6.58810E+3
   2.16758E+5   1.15688E+4
   2.14106E+5   1.67089E+4
   2.11369E+5   2.18200E+4
   2.07991E+5   2.65332E+4
   2.05238E+5   3.13293E+4
   2.02178E+5   3.57145E+4
   1.99181E+5   4.01594E+4
   1.95657E+5   4.47444E+4
   1.92159E+5   4.86290E+4
   1.88800E+5   5.23804E+4
   1.85821E+5   5.62876E+4
   1.82382E+5   6.05838E+4
   1.78757E+5   6.39108E+4
   1.75307E+5   6.73349E+4
   1.71558E+5   7.03510E+4
   1.67972E+5   7.35964E+4
   1.64515E+5   7.67637E+4
   1.60903E+5   7.94002E+4
   1.57679E+5   8.20826E+4
   1.54013E+5   8.47286E+4
   1.50441E+5   8.72519E+4
   1.46742E+5   8.96585E+4
   1.43185E+5   9.18838E+4
   1.39674E+5   9.39838E+4
   1.36135E+5   9.61092E+4
   1.32634E+5   9.79507E+4
   1.28724E+5   9.99259E+4
   1.25447E+5   1.01816E+5
   1.21717E+5   1.03549E+5
   1.18596E+5   1.05263E+5
   1.14791E+5   1.06902E+5
   1.11408E+5   1.08039E+5
   1.08014E+5   1.09279E+5
   1.04709E+5   1.10475E+5
   1.01328E+5   1.11615E+5
   9.78342E+4   1.12653E+5
   9.40417E+4   1.13428E+5
   9.11495E+4   1.14407E+5
   8.76793E+4   1.15168E+5
   8.43764E+4   1.16153E+5
   8.11020E+4   1.16905E+5
   7.79329E+4   1.17408E+5
   7.44084E+4   1.18028E+5
   7.11279E+4   1.18498E+5
   6.77877E+4   1.19060E+5
   6.45681E+4   1.19045E+5
   6.15183E+4   1.19325E+5
   5.84248E+4   1.19596E+5
   5.52429E+4   1.19721E+5
   5.19660E+4   1.19569E+5
   4.92232E+4   1.19525E+5
   4.61799E+4   1.18810E+5
   4.33235E+4   1.18888E+5
   4.06513E+4   1.18601E+5
   3.76484E+4   1.18310E+5
   3.48344E+4   1.17765E+5
   3.18666E+4   1.17325E+5
   2.91894E+4   1.17075E+5
   2.63623E+4   1.16517E+5
   2.35890E+4   1.15804E+5
   2.09581E+4   1.14797E+5
   1.83553E+4   1.13956E+5
   1.61300E+4   1.13299E+5
   1.35569E+4   1.12460E+5
   1.10983E+4   1.11729E+5
   8.68468E+3   1.10318E+5
   6.44310E+3   1.09452E+5
   3.95266E+3   1.08618E+5
   1.72563E+3   1.07316E+5
  -7.06435E+2   1.06064E+5
  -2.73406E+3   1.05064E+5
  -4.75470E+3   1.03835E+5
  -6.68728E+3   1.02645E+5
  -8.78222E+3   1.01492E+5
  -1.08045E+4   9.99523E+4
  -1.27187E+4   9.86100E+4
  -1.44089E+4   9.71718E+4
  -1.66915E+4   9.58069E+4
  -1.81010E+4   9.44680E+4
  -1.98258E+4   9.31701E+4
  -2.16110E+4   9.18255E+4
  -2.33617E+4   9.02241E+4
  -2.51287E+4   8.87616E+4
  -2.67214E+4   8.71405E+4
  -2.79038E+4   8.57275E+4
  -2.92478E+4   8.43544E+4
  -3.10180E+4   8.28153E+4
  -3.22477E+4   8.11809E+4
  -3.36475E+4   7.97229E+4
  -3.46776E+4   7.82407E+4
  -3.61288E+4   7.65504E+4
  -3.70808E+4   7.48165E+4
  -3.82764E+4   7.33638E+4
  -3.95406E+4   7.17376E+4
  -4.04545E+4   7.00341E+4
  -4.14912E+4   6.86799E+4
  -4.23328E+4   6.69799E+4
  -4.32112E+4   6.52998E+4
  -4.40675E+4   6.36542E+4
  -4.51126E+4   6.24232E+4
  -4.56160E+4   6.08066E+4
  -4.63457E+4   5.93709E+4
  -4.72108E+4   5.76307E+4
  -4.77206E+4   5.59780E+4
  -4.82876E+4   5.42098E+4
  -4.89420E+4   5.29794E+4
  -4.94815E+4   5.12011E+4
  -4.98434E+4   4.96822E+4
  -5.00033E+4   4.80905E+4
  -5.06135E+4   4.66177E+4
  -5.10390E+4   4.52251E+4
  -5.13873E+4   4.37101E+4
  -5.14552E+4   4.20244E+4
  -5.16900E+4   4.05596E+4
  -5.19327E+4   3.92010E+4
  -5.19910E+4   3.75658E+4
  -5.21466E+4   3.63507E+4
  -5.23302E+4   3.48987E+4
  -5.25626E+4   3.34545E+4
  -5.25439E+4   3.18911E+4
  -5.24658E+4   3.03968E+4
  -5.23109E+4   2.88638E+4
  -5.23327E+4   2.78205E+4
  -5.24676E+4   2.64786E+4
  -5.20644E+4   2.50401E+4
  -5.20632E+4   2.37894E+4
  -5.18874E+4   2.23847E+4
  -5.14211E+4   2.12221E+4
  -5.13479E+4   1.99326E+4
  -5.11606E+4   1.86194E+4
  -5.10194E+4   1.74277E+4
  -5.06220E+4   1.64158E+4
  -5.03544E+4   1.53947E+4
  -5.00561E+4   1.41084E+4
  -4.97488E+4   1.29915E+4
  -4.93049E+4   1.18851E+4
  -4.88611E+4   1.07288E+4
  -4.83317E+4   9.67089E+3
  -4.80464E+4   8.65622E+3
  -4.76662E+4   7.64855E+3
  -4.71594E+4   6.72902E+3
  -4.66840E+4   5.72461E+3
  -4.62438E+4   4.83200E+3
  -4.56629E+4   3.78932E+3
  -4.49407E+4   2.94257E+3
  -4.47188E+4   1.99091E+3
  -4.40933E+4   1.02455E+3
  -4.36639E+4   4.44627E+2
  -4.30811E+4  -3.91459E+2
