 
 $NMID
 ID=''
 FMTDAT='(2E13.5)'
 TRAMP=   1.00000E+0
 VOLUME=   1.00000E+0
 $END
  -3.73856E+5   6.29990E+5
  -1.51623E+6   1.27085E+6
  -1.30894E+6   1.38082E+6
  -1.31905E+6   1.19124E+6
  -1.43644E+6   1.24021E+6
  -1.33207E+6   1.29916E+6
  -1.30239E+6   1.21153E+6
  -1.38314E+6   1.21639E+6
  -1.34622E+6   1.23406E+6
  -1.33856E+6   1.16267E+6
  -1.38472E+6   1.14887E+6
  -1.36486E+6   1.14693E+6
  -1.36456E+6   1.09608E+6
  -1.39806E+6   1.07815E+6
  -1.38584E+6   1.05989E+6
  -1.38563E+6   1.01714E+6
  -1.40839E+6   1.00741E+6
  -1.40040E+6   9.94212E+5
  -1.39860E+6   9.63478E+5
  -1.40442E+6   9.63123E+5
  -1.39464E+6   9.50409E+5
  -1.39609E+6   9.22019E+5
  -1.40335E+6   9.12167E+5
  -1.39721E+6   8.96738E+5
  -1.39943E+6   8.67606E+5
  -1.39907E+6   8.56409E+5
  -1.39849E+6   8.35583E+5
  -1.40630E+6   8.05539E+5
  -1.40802E+6   7.83269E+5
  -1.40005E+6   7.64536E+5
  -1.40412E+6   7.44212E+5
  -1.40268E+6   7.31911E+5
  -1.39576E+6   7.13906E+5
  -1.39457E+6   6.97769E+5
  -1.38631E+6   6.90603E+5
  -1.37692E+6   6.83339E+5
  -1.37799E+6   6.72612E+5
  -1.37475E+6   6.60839E+5
  -1.36449E+6   6.44826E+5
  -1.36286E+6   6.30211E+5
  -1.35904E+6   6.15118E+5
  -1.35081E+6   5.95565E+5
  -1.34632E+6   5.79389E+5
  -1.34374E+6   5.65199E+5
  -1.33816E+6   5.45152E+5
  -1.33467E+6   5.26578E+5
  -1.33141E+6   5.12325E+5
  -1.32560E+6   4.94327E+5
  -1.31760E+6   4.77570E+5
  -1.31030E+6   4.65948E+5
  -1.30395E+6   4.54196E+5
  -1.29905E+6   4.40303E+5
  -1.29307E+6   4.27927E+5
  -1.28629E+6   4.14911E+5
  -1.28047E+6   4.00271E+5
  -1.27478E+6   3.85147E+5
  -1.26778E+6   3.67958E+5
  -1.25974E+6   3.52112E+5
  -1.25259E+6   3.38251E+5
  -1.24673E+6   3.24540E+5
  -1.24087E+6   3.08194E+5
  -1.23393E+6   2.93005E+5
  -1.22807E+6   2.78810E+5
  -1.22132E+6   2.63823E+5
  -1.21233E+6   2.49442E+5
  -1.20329E+6   2.37020E+5
  -1.19492E+6   2.25118E+5
  -1.18752E+6   2.12882E+5
  -1.18167E+6   1.99959E+5
  -1.17567E+6   1.86049E+5
  -1.16738E+6   1.71793E+5
  -1.15940E+6   1.58692E+5
  -1.15300E+6   1.46521E+5
  -1.14667E+6   1.33112E+5
  -1.13851E+6   1.19241E+5
  -1.13036E+6   1.07153E+5
  -1.12281E+6   9.55948E+4
  -1.11564E+6   8.34090E+4
  -1.10768E+6   7.12392E+4
  -1.09925E+6   5.96293E+4
  -1.09085E+6   4.81606E+4
  -1.08261E+6   3.72010E+4
  -1.07488E+6   2.60961E+4
  -1.06668E+6   1.31840E+4
  -1.05813E+6   3.62871E+2
  -1.04956E+6  -1.06752E+4
  -1.04116E+6  -2.24032E+4
  -1.03335E+6  -3.42751E+4
  -1.02449E+6  -4.61601E+4
  -1.01536E+6  -5.62248E+4
  -1.00682E+6  -6.54700E+4
  -9.98891E+5  -7.48685E+4
  -9.90473E+5  -8.49859E+4
  -9.81176E+5  -9.39377E+4
  -9.71809E+5  -1.01148E+5
  -9.63187E+5  -1.08623E+5
  -9.56058E+5  -1.16064E+5
  -9.48151E+5  -1.23953E+5
  -9.38940E+5  -1.31600E+5
  -9.30444E+5  -1.38899E+5
  -9.23461E+5  -1.46466E+5
  -9.14968E+5  -1.55475E+5
  -9.04941E+5  -1.63870E+5
  -8.95098E+5  -1.70805E+5
  -8.86697E+5  -1.76753E+5
  -8.79054E+5  -1.83411E+5
  -8.71029E+5  -1.90452E+5
  -8.61647E+5  -1.97481E+5
  -8.52025E+5  -2.03344E+5
  -8.43308E+5  -2.08203E+5
  -8.35981E+5  -2.12836E+5
  -8.28374E+5  -2.19361E+5
  -8.19799E+5  -2.26478E+5
  -8.10792E+5  -2.32406E+5
  -8.01815E+5  -2.38486E+5
  -7.93544E+5  -2.44730E+5
  -7.84737E+5  -2.51155E+5
  -7.74759E+5  -2.56533E+5
  -7.65354E+5  -2.60479E+5
  -7.57266E+5  -2.64371E+5
  -7.49937E+5  -2.69432E+5
  -7.41900E+5  -2.74839E+5
  -7.33625E+5  -2.79375E+5
  -7.25194E+5  -2.84219E+5
  -7.16782E+5  -2.89272E+5
  -7.07408E+5  -2.93404E+5
  -6.98748E+5  -2.97181E+5
  -6.90496E+5  -3.01775E+5
  -6.82181E+5  -3.06630E+5
  -6.73960E+5  -3.11549E+5
  -6.64697E+5  -3.17143E+5
  -6.55076E+5  -3.22503E+5
  -6.45993E+5  -3.26677E+5
  -6.37575E+5  -3.30582E+5
  -6.28812E+5  -3.35313E+5
  -6.19986E+5  -3.39461E+5
  -6.11288E+5  -3.42964E+5
  -6.03551E+5  -3.46468E+5
  -5.95501E+5  -3.50169E+5
  -5.86586E+5  -3.54623E+5
  -5.77281E+5  -3.57995E+5
  -5.68693E+5  -3.60194E+5
  -5.60804E+5  -3.62781E+5
  -5.53090E+5  -3.66232E+5
  -5.44680E+5  -3.70301E+5
  -5.35663E+5  -3.73240E+5
  -5.26675E+5  -3.75500E+5
  -5.18096E+5  -3.78050E+5
  -5.09505E+5  -3.80599E+5
  -5.01460E+5  -3.82967E+5
  -4.93453E+5  -3.84690E+5
  -4.85270E+5  -3.86357E+5
  -4.78073E+5  -3.88040E+5
  -4.70840E+5  -3.89889E+5
  -4.62194E+5  -3.91937E+5
  -4.54480E+5  -3.92750E+5
  -4.47296E+5  -3.93312E+5
  -4.39724E+5  -3.94455E+5
  -4.32464E+5  -3.95557E+5
  -4.24922E+5  -3.96310E+5
  -4.17440E+5  -3.96784E+5
  -4.10035E+5  -3.97231E+5
  -4.02368E+5  -3.97823E+5
  -3.94942E+5  -3.97632E+5
  -3.87701E+5  -3.97672E+5
  -3.81107E+5  -3.97372E+5
  -3.74299E+5  -3.97764E+5
  -3.67550E+5  -3.98241E+5
  -3.60215E+5  -3.98112E+5
  -3.53456E+5  -3.97410E+5
  -3.46808E+5  -3.97093E+5
  -3.40514E+5  -3.96719E+5
  -3.33813E+5  -3.96122E+5
  -3.27053E+5  -3.95619E+5
  -3.20274E+5  -3.94941E+5
  -3.13878E+5  -3.94666E+5
  -3.07287E+5  -3.94501E+5
  -3.00320E+5  -3.93832E+5
  -2.93483E+5  -3.92957E+5
  -2.87087E+5  -3.91735E+5
  -2.81347E+5  -3.91325E+5
  -2.74288E+5  -3.91107E+5
  -2.67829E+5  -3.90201E+5
  -2.60989E+5  -3.89254E+5
  -2.55053E+5  -3.88171E+5
  -2.49062E+5  -3.86946E+5
  -2.42843E+5  -3.85553E+5
  -2.36802E+5  -3.84241E+5
  -2.31363E+5  -3.82665E+5
  -2.26105E+5  -3.82077E+5
  -2.20063E+5  -3.81605E+5
  -2.13100E+5  -3.80930E+5
  -2.06626E+5  -3.79165E+5
  -2.00640E+5  -3.77736E+5
  -1.94884E+5  -3.76341E+5
  -1.89015E+5  -3.75065E+5
  -1.83226E+5  -3.74045E+5
  -1.77294E+5  -3.72635E+5
  -1.71247E+5  -3.71321E+5
  -1.65321E+5  -3.70151E+5
  -1.59069E+5  -3.68685E+5
  -1.53142E+5  -3.66726E+5
  -1.48165E+5  -3.64637E+5
  -1.42745E+5  -3.63197E+5
  -1.37286E+5  -3.62036E+5
  -1.31623E+5  -3.60226E+5
  -1.25757E+5  -3.58112E+5
  -1.20413E+5  -3.56398E+5
  -1.15453E+5  -3.54496E+5
  -1.10041E+5  -3.52521E+5
  -1.04487E+5  -3.50329E+5
  -9.94681E+4  -3.48035E+5
  -9.47506E+4  -3.46266E+5
  -8.99539E+4  -3.44741E+5
  -8.41760E+4  -3.42459E+5
  -7.91623E+4  -3.39715E+5
  -7.47517E+4  -3.36650E+5
  -7.06277E+4  -3.34234E+5
  -6.63038E+4  -3.32056E+5
  -6.17683E+4  -3.29843E+5
  -5.79777E+4  -3.27320E+5
  -5.38018E+4  -3.24430E+5
  -4.96613E+4  -3.22131E+5
  -4.51556E+4  -3.19696E+5
  -4.11368E+4  -3.16464E+5
  -3.78134E+4  -3.13427E+5
  -3.42609E+4  -3.10988E+5
  -3.10160E+4  -3.08741E+5
  -2.69862E+4  -3.06127E+5
  -2.29533E+4  -3.03404E+5
  -1.96510E+4  -2.99898E+5
  -1.65143E+4  -2.97178E+5
  -1.36419E+4  -2.94552E+5
  -1.08055E+4  -2.91673E+5
  -7.52088E+3  -2.88819E+5
  -5.12813E+3  -2.86099E+5
  -2.38677E+3  -2.83395E+5
   3.15961E+2  -2.80487E+5
   3.22771E+3  -2.77753E+5
   5.61784E+3  -2.74668E+5
   8.02282E+3  -2.71874E+5
   9.95665E+3  -2.69222E+5
   1.28402E+4  -2.66346E+5
   1.53546E+4  -2.63370E+5
   1.74026E+4  -2.60254E+5
   1.93804E+4  -2.57557E+5
   2.14485E+4  -2.54741E+5
   2.37704E+4  -2.52007E+5
   2.57437E+4  -2.48830E+5
   2.75725E+4  -2.46153E+5
   2.90925E+4  -2.43724E+5
   3.14654E+4  -2.41337E+5
   3.33563E+4  -2.38454E+5
   3.51080E+4  -2.35197E+5
   3.64957E+4  -2.32429E+5
   3.82906E+4  -2.30211E+5
   4.02294E+4  -2.27359E+5
   4.18667E+4  -2.24739E+5
   4.37371E+4  -2.21958E+5
   4.54300E+4  -2.19104E+5
   4.72850E+4  -2.16495E+5
   4.89840E+4  -2.13335E+5
   5.06514E+4  -2.10508E+5
   5.19526E+4  -2.07733E+5
   5.32242E+4  -2.05276E+5
   5.47566E+4  -2.03134E+5
   5.64076E+4  -2.00357E+5
   5.78576E+4  -1.97304E+5
   5.91544E+4  -1.94461E+5
   6.01140E+4  -1.92050E+5
   6.13642E+4  -1.89389E+5
   6.26628E+4  -1.86838E+5
   6.40547E+4  -1.84193E+5
   6.50581E+4  -1.81660E+5
   6.62703E+4  -1.79254E+5
   6.77435E+4  -1.76572E+5
   6.86468E+4  -1.73714E+5
   6.95233E+4  -1.71108E+5
   7.04718E+4  -1.68857E+5
   7.14385E+4  -1.66512E+5
   7.26251E+4  -1.63729E+5
   7.36146E+4  -1.61332E+5
   7.41492E+4  -1.59017E+5
   7.53609E+4  -1.56467E+5
   7.56008E+4  -1.54214E+5
   7.66109E+4  -1.51247E+5
   7.70811E+4  -1.48698E+5
   7.70741E+4  -1.46788E+5
   7.77770E+4  -1.44654E+5
   7.86063E+4  -1.42500E+5
   7.93594E+4  -1.39788E+5
   7.96742E+4  -1.37156E+5
   8.00364E+4  -1.35184E+5
   8.02246E+4  -1.33095E+5
   8.08857E+4  -1.30662E+5
   8.10649E+4  -1.28319E+5
   8.12455E+4  -1.26506E+5
   8.14595E+4  -1.24365E+5
   8.19520E+4  -1.22142E+5
   8.22752E+4  -1.19744E+5
   8.19718E+4  -1.17675E+5
   8.21988E+4  -1.15800E+5
   8.25340E+4  -1.14132E+5
   8.28670E+4  -1.11836E+5
   8.28728E+4  -1.09605E+5
   8.25153E+4  -1.07565E+5
   8.26705E+4  -1.05453E+5
   8.27202E+4  -1.03765E+5
   8.26585E+4  -1.01696E+5
   8.25867E+4  -9.96071E+4
   8.24460E+4  -9.78921E+4
   8.23219E+4  -9.61611E+4
   8.24542E+4  -9.43787E+4
   8.23603E+4  -9.23587E+4
   8.22314E+4  -9.03699E+4
   8.18779E+4  -8.87151E+4
   8.17262E+4  -8.68560E+4
   8.18670E+4  -8.52629E+4
   8.12611E+4  -8.35584E+4
   8.10939E+4  -8.16103E+4
   8.08126E+4  -8.02057E+4
   8.08209E+4  -7.83564E+4
   8.03627E+4  -7.66993E+4
   8.01737E+4  -7.49142E+4
   7.97010E+4  -7.34622E+4
   7.94712E+4  -7.20008E+4
   7.96267E+4  -7.05138E+4
   7.90132E+4  -6.85767E+4
   7.86048E+4  -6.67513E+4
   7.82553E+4  -6.55990E+4
   7.78857E+4  -6.39849E+4
   7.76785E+4  -6.24530E+4
   7.71771E+4  -6.12092E+4
   7.67987E+4  -5.97849E+4
   7.65637E+4  -5.85146E+4
   7.63046E+4  -5.69899E+4
   7.60222E+4  -5.51997E+4
   7.53860E+4  -5.37486E+4
   7.46702E+4  -5.25798E+4
   7.41101E+4  -5.12584E+4
   7.41096E+4  -5.02360E+4
   7.37478E+4  -4.85606E+4
   7.32788E+4  -4.71037E+4
   7.26556E+4  -4.59749E+4
   7.21514E+4  -4.45380E+4
   7.16158E+4  -4.35609E+4
   7.09303E+4  -4.21011E+4
   7.04908E+4  -4.09113E+4
   7.00608E+4  -4.00566E+4
   6.97075E+4  -3.88149E+4
   6.94905E+4  -3.74013E+4
   6.87671E+4  -3.62750E+4
   6.80244E+4  -3.52460E+4
   6.74292E+4  -3.42092E+4
   6.70645E+4  -3.28987E+4
   6.67351E+4  -3.20541E+4
   6.59411E+4  -3.09817E+4
   6.56011E+4  -2.99203E+4
   6.49575E+4  -2.91458E+4
   6.47409E+4  -2.79782E+4
   6.42971E+4  -2.64790E+4
   6.29834E+4  -2.57606E+4
   6.26960E+4  -2.50675E+4
   6.19753E+4  -2.43274E+4
   6.17061E+4  -2.32411E+4
   6.10880E+4  -2.22662E+4
   6.05751E+4  -2.15282E+4
