 
 $NMID
 ID=''
 FMTDAT='(2E13.5)'
 TRAMP=   1.00000E+0
 VOLUME=   1.00000E+0
 $END
   6.62791E+5   4.42116E+5
   1.24482E+6   1.68424E+6
   1.34329E+6   1.49648E+6
   1.17203E+6   1.50929E+6
   1.23744E+6   1.59668E+6
   1.28239E+6   1.48422E+6
   1.20735E+6   1.47351E+6
   1.23202E+6   1.53783E+6
   1.23132E+6   1.48860E+6
   1.15468E+6   1.49978E+6
   1.15776E+6   1.53956E+6
   1.14235E+6   1.50243E+6
   1.08117E+6   1.51362E+6
   1.07094E+6   1.54602E+6
   1.03902E+6   1.52347E+6
   9.84297E+5   1.53222E+6
   9.81188E+5   1.55498E+6
   9.63389E+5   1.53497E+6
   9.26038E+5   1.53500E+6
   9.31027E+5   1.53797E+6
   9.12940E+5   1.52039E+6
   8.78394E+5   1.52432E+6
   8.71037E+5   1.52877E+6
   8.50811E+5   1.51578E+6
   8.15052E+5   1.51944E+6
   8.03360E+5   1.51808E+6
   7.75887E+5   1.51282E+6
   7.37321E+5   1.52263E+6
   7.11938E+5   1.52245E+6
   6.87966E+5   1.51107E+6
   6.62633E+5   1.51517E+6
   6.47539E+5   1.51200E+6
   6.25401E+5   1.50084E+6
   6.06320E+5   1.49811E+6
   5.96675E+5   1.48955E+6
   5.86014E+5   1.47799E+6
   5.73292E+5   1.47725E+6
   5.59883E+5   1.47179E+6
   5.39379E+5   1.46064E+6
   5.20387E+5   1.45824E+6
   5.01437E+5   1.45321E+6
   4.78084E+5   1.44433E+6
   4.58271E+5   1.43788E+6
   4.40176E+5   1.43298E+6
   4.16469E+5   1.42640E+6
   3.94704E+5   1.42248E+6
   3.76431E+5   1.41675E+6
   3.55870E+5   1.40901E+6
   3.37769E+5   1.39892E+6
   3.23886E+5   1.38924E+6
   3.09411E+5   1.38135E+6
   2.93627E+5   1.37401E+6
   2.78953E+5   1.36524E+6
   2.63993E+5   1.35660E+6
   2.47318E+5   1.34825E+6
   2.29615E+5   1.34005E+6
   2.10713E+5   1.33074E+6
   1.93003E+5   1.32014E+6
   1.76704E+5   1.30941E+6
   1.60509E+5   1.30064E+6
   1.43555E+5   1.29215E+6
   1.27008E+5   1.28256E+6
   1.11632E+5   1.27295E+6
   9.54620E+4   1.26242E+6
   8.01179E+4   1.25050E+6
   6.68660E+4   1.23794E+6
   5.38031E+4   1.22638E+6
   4.05952E+4   1.21517E+6
   2.70291E+4   1.20541E+6
   1.21777E+4   1.19518E+6
  -3.49651E+3   1.18374E+6
  -1.74847E+4   1.17112E+6
  -3.00443E+4   1.16017E+6
  -4.46975E+4   1.14977E+6
  -5.86640E+4   1.13818E+6
  -7.17162E+4   1.12526E+6
  -8.37827E+4   1.11408E+6
  -9.59633E+4   1.10311E+6
  -1.08341E+5   1.09077E+6
  -1.20263E+5   1.07837E+6
  -1.31570E+5   1.06630E+6
  -1.42339E+5   1.05334E+6
  -1.53410E+5   1.04176E+6
  -1.65125E+5   1.02992E+6
  -1.77289E+5   1.01734E+6
  -1.88658E+5   1.00478E+6
  -1.99248E+5   9.93034E+5
  -2.10114E+5   9.81103E+5
  -2.20583E+5   9.68826E+5
  -2.30012E+5   9.56365E+5
  -2.37913E+5   9.44238E+5
  -2.45686E+5   9.32755E+5
  -2.53939E+5   9.21282E+5
  -2.61067E+5   9.09248E+5
  -2.67118E+5   8.96398E+5
  -2.72150E+5   8.84548E+5
  -2.77257E+5   8.73640E+5
  -2.83418E+5   8.62599E+5
  -2.89121E+5   8.51141E+5
  -2.93544E+5   8.39183E+5
  -2.98619E+5   8.28102E+5
  -3.04578E+5   8.16960E+5
  -3.10109E+5   8.04192E+5
  -3.14359E+5   7.91319E+5
  -3.17977E+5   7.79639E+5
  -3.21156E+5   7.69340E+5
  -3.24746E+5   7.58630E+5
  -3.29055E+5   7.46762E+5
  -3.31909E+5   7.34283E+5
  -3.32971E+5   7.22719E+5
  -3.34448E+5   7.12285E+5
  -3.37538E+5   7.01551E+5
  -3.40737E+5   6.90032E+5
  -3.42953E+5   6.78789E+5
  -3.44854E+5   6.67272E+5
  -3.47846E+5   6.56110E+5
  -3.50013E+5   6.44562E+5
  -3.51710E+5   6.32141E+5
  -3.52412E+5   6.20092E+5
  -3.52455E+5   6.09701E+5
  -3.53600E+5   5.99464E+5
  -3.54782E+5   5.89070E+5
  -3.55934E+5   5.78040E+5
  -3.56889E+5   5.67548E+5
  -3.57991E+5   5.56672E+5
  -3.58366E+5   5.45409E+5
  -3.58687E+5   5.34485E+5
  -3.59101E+5   5.23611E+5
  -3.60036E+5   5.13293E+5
  -3.61207E+5   5.03093E+5
  -3.62499E+5   4.92427E+5
  -3.63948E+5   4.80535E+5
  -3.64408E+5   4.69612E+5
  -3.64630E+5   4.59038E+5
  -3.65118E+5   4.48904E+5
  -3.65693E+5   4.38557E+5
  -3.65507E+5   4.28576E+5
  -3.65294E+5   4.19320E+5
  -3.65492E+5   4.10070E+5
  -3.65675E+5   4.00295E+5
  -3.65429E+5   3.90142E+5
  -3.64612E+5   3.80569E+5
  -3.63576E+5   3.71778E+5
  -3.62885E+5   3.63403E+5
  -3.63064E+5   3.54479E+5
  -3.62726E+5   3.45537E+5
  -3.61812E+5   3.36599E+5
  -3.61022E+5   3.27504E+5
  -3.60073E+5   3.19065E+5
  -3.58673E+5   3.10856E+5
  -3.57237E+5   3.02533E+5
  -3.55737E+5   2.94997E+5
  -3.54344E+5   2.88141E+5
  -3.53166E+5   2.80912E+5
  -3.51376E+5   2.73485E+5
  -3.49736E+5   2.66458E+5
  -3.47469E+5   2.59732E+5
  -3.45594E+5   2.53764E+5
  -3.43725E+5   2.47023E+5
  -3.41629E+5   2.40553E+5
  -3.39391E+5   2.34401E+5
  -3.37158E+5   2.28320E+5
  -3.35010E+5   2.21968E+5
  -3.32578E+5   2.15991E+5
  -3.29772E+5   2.10207E+5
  -3.27231E+5   2.04718E+5
  -3.24707E+5   1.99813E+5
  -3.22478E+5   1.94620E+5
  -3.20046E+5   1.89208E+5
  -3.17378E+5   1.84305E+5
  -3.14254E+5   1.79311E+5
  -3.11763E+5   1.74904E+5
  -3.09437E+5   1.70303E+5
  -3.06451E+5   1.65597E+5
  -3.03346E+5   1.60733E+5
  -3.00731E+5   1.56323E+5
  -2.98229E+5   1.51886E+5
  -2.95688E+5   1.47059E+5
  -2.92621E+5   1.42753E+5
  -2.89290E+5   1.38336E+5
  -2.86599E+5   1.34600E+5
  -2.84275E+5   1.30752E+5
  -2.81448E+5   1.26271E+5
  -2.78429E+5   1.21994E+5
  -2.75450E+5   1.18279E+5
  -2.72358E+5   1.14173E+5
  -2.69308E+5   1.10894E+5
  -2.66053E+5   1.07252E+5
  -2.63248E+5   1.03769E+5
  -2.60056E+5   1.00571E+5
  -2.57597E+5   9.70819E+4
  -2.55284E+5   9.32025E+4
  -2.52449E+5   8.92679E+4
  -2.48999E+5   8.56611E+4
  -2.46285E+5   8.21624E+4
  -2.43392E+5   7.86428E+4
  -2.40675E+5   7.52182E+4
  -2.37827E+5   7.18969E+4
  -2.35210E+5   6.86748E+4
  -2.32589E+5   6.50174E+4
  -2.30184E+5   6.16086E+4
  -2.27112E+5   5.83341E+4
  -2.23925E+5   5.54517E+4
  -2.21341E+5   5.19330E+4
  -2.18666E+5   4.92008E+4
  -2.16110E+5   4.61153E+4
  -2.13487E+5   4.30815E+4
  -2.11013E+5   3.99166E+4
  -2.08257E+5   3.69077E+4
  -2.05693E+5   3.41151E+4
  -2.03271E+5   3.13306E+4
  -2.00616E+5   2.86420E+4
  -1.97851E+5   2.61624E+4
  -1.95585E+5   2.36529E+4
  -1.93489E+5   2.07193E+4
  -1.90931E+5   1.80935E+4
  -1.88212E+5   1.56146E+4
  -1.85540E+5   1.34727E+4
  -1.83408E+5   1.13786E+4
  -1.80662E+5   9.05873E+3
  -1.78525E+5   6.98640E+3
  -1.76097E+5   4.88309E+3
  -1.73699E+5   3.12958E+3
  -1.71607E+5   9.42836E+2
  -1.69263E+5  -9.04522E+2
  -1.66984E+5  -2.97766E+3
  -1.64275E+5  -4.41088E+3
  -1.62513E+5  -5.61060E+3
  -1.60288E+5  -7.62223E+3
  -1.58397E+5  -9.37508E+3
  -1.55861E+5  -1.09421E+4
  -1.53517E+5  -1.21750E+4
  -1.51432E+5  -1.35094E+4
  -1.49448E+5  -1.47996E+4
  -1.47257E+5  -1.59217E+4
  -1.45249E+5  -1.70224E+4
  -1.43208E+5  -1.78849E+4
  -1.41179E+5  -1.91526E+4
  -1.39270E+5  -2.02948E+4
  -1.37213E+5  -2.10488E+4
  -1.35105E+5  -2.16206E+4
  -1.32990E+5  -2.24116E+4
  -1.31085E+5  -2.33143E+4
  -1.29205E+5  -2.46837E+4
  -1.26893E+5  -2.51008E+4
  -1.25049E+5  -2.57303E+4
  -1.23251E+5  -2.65907E+4
  -1.21191E+5  -2.72639E+4
  -1.19204E+5  -2.79395E+4
  -1.17118E+5  -2.83130E+4
  -1.15363E+5  -2.88858E+4
  -1.13816E+5  -2.96425E+4
  -1.11822E+5  -3.01739E+4
  -1.09927E+5  -3.09989E+4
  -1.07782E+5  -3.13854E+4
  -1.06090E+5  -3.15633E+4
  -1.04336E+5  -3.20024E+4
  -1.02589E+5  -3.26022E+4
  -1.00522E+5  -3.31998E+4
  -9.89398E+4  -3.37461E+4
  -9.73745E+4  -3.44207E+4
  -9.52811E+4  -3.50152E+4
  -9.32395E+4  -3.53729E+4
  -9.12691E+4  -3.56851E+4
  -8.98366E+4  -3.58415E+4
  -8.81589E+4  -3.63679E+4
  -8.65298E+4  -3.67295E+4
  -8.45992E+4  -3.73271E+4
  -8.28386E+4  -3.73067E+4
  -8.10716E+4  -3.76098E+4
  -7.97848E+4  -3.80028E+4
  -7.80523E+4  -3.85611E+4
  -7.64016E+4  -3.85474E+4
  -7.49322E+4  -3.89769E+4
  -7.34185E+4  -3.93278E+4
  -7.16353E+4  -3.95562E+4
  -7.00937E+4  -3.98875E+4
  -6.84737E+4  -4.00897E+4
  -6.70485E+4  -4.01972E+4
  -6.55764E+4  -4.05916E+4
  -6.41156E+4  -4.05214E+4
  -6.30328E+4  -4.08902E+4
  -6.13497E+4  -4.11922E+4
  -6.00933E+4  -4.10533E+4
  -5.86857E+4  -4.13882E+4
  -5.74835E+4  -4.14551E+4
  -5.58373E+4  -4.10950E+4
  -5.44362E+4  -4.10679E+4
  -5.33927E+4  -4.08848E+4
  -5.24019E+4  -4.11470E+4
  -5.11920E+4  -4.11649E+4
  -4.96020E+4  -4.11702E+4
  -4.87685E+4  -4.08960E+4
  -4.75261E+4  -4.10377E+4
  -4.64862E+4  -4.08829E+4
  -4.51607E+4  -4.07366E+4
  -4.41517E+4  -4.05707E+4
  -4.30242E+4  -4.03928E+4
  -4.19638E+4  -4.03099E+4
  -4.07892E+4  -4.04639E+4
  -3.96858E+4  -4.03129E+4
  -3.86492E+4  -3.97324E+4
  -3.76245E+4  -3.97272E+4
  -3.66208E+4  -3.95081E+4
  -3.57351E+4  -3.94807E+4
  -3.45507E+4  -3.90967E+4
  -3.33854E+4  -3.87769E+4
  -3.29665E+4  -3.86096E+4
  -3.18673E+4  -3.84606E+4
  -3.08625E+4  -3.79047E+4
  -2.99008E+4  -3.77726E+4
  -2.91828E+4  -3.75693E+4
  -2.84275E+4  -3.75319E+4
  -2.75735E+4  -3.71292E+4
  -2.62823E+4  -3.68982E+4
  -2.56885E+4  -3.64270E+4
  -2.50192E+4  -3.61598E+4
  -2.41758E+4  -3.58088E+4
  -2.32153E+4  -3.56267E+4
  -2.24140E+4  -3.52964E+4
  -2.17880E+4  -3.51445E+4
  -2.08891E+4  -3.46723E+4
  -2.02939E+4  -3.46445E+4
  -1.94970E+4  -3.42948E+4
  -1.88694E+4  -3.37802E+4
  -1.82505E+4  -3.35330E+4
  -1.74554E+4  -3.33668E+4
  -1.66797E+4  -3.30320E+4
  -1.57936E+4  -3.28315E+4
  -1.52634E+4  -3.23350E+4
  -1.47640E+4  -3.19550E+4
  -1.43745E+4  -3.17467E+4
  -1.37101E+4  -3.14318E+4
  -1.30685E+4  -3.10971E+4
  -1.24251E+4  -3.06130E+4
  -1.19231E+4  -3.03539E+4
  -1.12162E+4  -3.02093E+4
  -1.05774E+4  -3.00811E+4
  -9.99272E+3  -2.96088E+4
  -9.27566E+3  -2.93014E+4
  -9.05924E+3  -2.89521E+4
  -8.50541E+3  -2.86598E+4
  -7.90584E+3  -2.82816E+4
  -7.48674E+3  -2.79965E+4
  -7.01589E+3  -2.78513E+4
  -6.63595E+3  -2.76195E+4
  -6.07452E+3  -2.71713E+4
  -5.70973E+3  -2.68329E+4
  -5.12763E+3  -2.64618E+4
  -5.16822E+3  -2.61931E+4
  -4.36923E+3  -2.60874E+4
  -3.97034E+3  -2.56777E+4
  -3.30707E+3  -2.53386E+4
  -3.03872E+3  -2.48803E+4
  -3.03226E+3  -2.49383E+4
  -2.49652E+3  -2.45820E+4
  -2.18159E+3  -2.42771E+4
  -1.80835E+3  -2.39444E+4
  -1.59598E+3  -2.36710E+4
  -1.25569E+3  -2.32946E+4
  -8.16415E+2  -2.30874E+4
  -5.46439E+2  -2.26584E+4
  -4.53426E+2  -2.23618E+4
  -3.43166E+2  -2.20881E+4
  -9.45201E+1  -2.17788E+4
   1.05790E+2  -2.16312E+4
   3.64677E+2  -2.13479E+4
