 
 $NMID
 ID=''
 FMTDAT='(2E13.5)'
 TRAMP=   1.00000E+0
 VOLUME=   1.00000E+0
 $END
   6.73352E+5   1.87781E+5
   1.52985E+6   1.01560E+6
   1.59303E+6   7.47238E+5
   1.40224E+6   7.85685E+5
   1.45640E+6   9.20968E+5
   1.50658E+6   8.53636E+5
   1.44333E+6   8.11190E+5
   1.43996E+6   8.37201E+5
   1.43256E+6   8.17087E+5
   1.41111E+6   8.34310E+5
   1.43858E+6   8.31921E+5
   1.42030E+6   7.81238E+5
   1.37922E+6   7.89614E+5
   1.39549E+6   8.02899E+5
   1.39424E+6   7.69838E+5
   1.37076E+6   7.58315E+5
   1.37783E+6   7.63496E+5
   1.36502E+6   7.52386E+5
   1.34215E+6   7.58431E+5
   1.34502E+6   7.57985E+5
   1.33088E+6   7.47851E+5
   1.31341E+6   7.52045E+5
   1.31557E+6   7.47301E+5
   1.30327E+6   7.35267E+5
   1.28406E+6   7.39084E+5
   1.28690E+6   7.28761E+5
   1.28248E+6   7.13335E+5
   1.27278E+6   7.09160E+5
   1.26553E+6   6.99936E+5
   1.25670E+6   6.85321E+5
   1.25038E+6   6.87138E+5
   1.24596E+6   6.81771E+5
   1.23217E+6   6.73314E+5
   1.22092E+6   6.71711E+5
   1.21451E+6   6.67872E+5
   1.20528E+6   6.61886E+5
   1.19792E+6   6.61436E+5
   1.18898E+6   6.58387E+5
   1.17565E+6   6.52248E+5
   1.16911E+6   6.47776E+5
   1.16388E+6   6.40042E+5
   1.15300E+6   6.31944E+5
   1.14405E+6   6.23777E+5
   1.13961E+6   6.15848E+5
   1.13189E+6   6.08368E+5
   1.12485E+6   6.03293E+5
   1.11592E+6   5.99289E+5
   1.10425E+6   5.97306E+5
   1.09271E+6   5.93614E+5
   1.08278E+6   5.88891E+5
   1.07190E+6   5.86840E+5
   1.06157E+6   5.86013E+5
   1.05234E+6   5.82933E+5
   1.04193E+6   5.80161E+5
   1.03115E+6   5.77286E+5
   1.02089E+6   5.74692E+5
   1.01080E+6   5.72113E+5
   1.00040E+6   5.67209E+5
   9.89890E+5   5.61141E+5
   9.81196E+5   5.57541E+5
   9.72031E+5   5.55566E+5
   9.62350E+5   5.52356E+5
   9.51597E+5   5.48894E+5
   9.40227E+5   5.47494E+5
   9.27802E+5   5.46207E+5
   9.15661E+5   5.42998E+5
   9.04539E+5   5.38794E+5
   8.93160E+5   5.36157E+5
   8.83209E+5   5.35015E+5
   8.72785E+5   5.34582E+5
   8.61066E+5   5.32006E+5
   8.49754E+5   5.28390E+5
   8.40326E+5   5.25495E+5
   8.30757E+5   5.24252E+5
   8.19357E+5   5.22675E+5
   8.07584E+5   5.19665E+5
   7.97033E+5   5.17404E+5
   7.86331E+5   5.16510E+5
   7.74677E+5   5.15259E+5
   7.62749E+5   5.13524E+5
   7.50836E+5   5.11535E+5
   7.39552E+5   5.09678E+5
   7.28461E+5   5.08567E+5
   7.17230E+5   5.07124E+5
   7.05721E+5   5.05403E+5
   6.94674E+5   5.03000E+5
   6.84346E+5   5.00176E+5
   6.74393E+5   4.98685E+5
   6.63894E+5   4.96175E+5
   6.53869E+5   4.92521E+5
   6.43998E+5   4.89251E+5
   6.34608E+5   4.86855E+5
   6.24218E+5   4.84854E+5
   6.13188E+5   4.82639E+5
   6.01804E+5   4.78923E+5
   5.91849E+5   4.75878E+5
   5.82412E+5   4.73147E+5
   5.72364E+5   4.70859E+5
   5.61526E+5   4.67791E+5
   5.51977E+5   4.64608E+5
   5.43526E+5   4.61905E+5
   5.33501E+5   4.59535E+5
   5.22920E+5   4.56163E+5
   5.13265E+5   4.52206E+5
   5.04869E+5   4.48112E+5
   4.96856E+5   4.44561E+5
   4.88140E+5   4.40714E+5
   4.78490E+5   4.37858E+5
   4.68847E+5   4.33550E+5
   4.60169E+5   4.28285E+5
   4.52385E+5   4.24339E+5
   4.43698E+5   4.21614E+5
   4.34328E+5   4.18405E+5
   4.25006E+5   4.14536E+5
   4.16192E+5   4.10739E+5
   4.07601E+5   4.07755E+5
   3.98308E+5   4.04485E+5
   3.88989E+5   4.00119E+5
   3.80643E+5   3.95457E+5
   3.73229E+5   3.90981E+5
   3.65377E+5   3.87307E+5
   3.57416E+5   3.83557E+5
   3.49398E+5   3.79741E+5
   3.41470E+5   3.76112E+5
   3.33357E+5   3.72311E+5
   3.24712E+5   3.67823E+5
   3.16776E+5   3.63551E+5
   3.09064E+5   3.59410E+5
   3.01171E+5   3.55613E+5
   2.93461E+5   3.52300E+5
   2.85463E+5   3.48989E+5
   2.77002E+5   3.45447E+5
   2.68850E+5   3.41310E+5
   2.61788E+5   3.37395E+5
   2.54333E+5   3.33859E+5
   2.46237E+5   3.29582E+5
   2.39052E+5   3.25196E+5
   2.32155E+5   3.21942E+5
   2.24967E+5   3.18410E+5
   2.17668E+5   3.14714E+5
   2.10024E+5   3.10445E+5
   2.03147E+5   3.06006E+5
   1.96967E+5   3.01541E+5
   1.90557E+5   2.98155E+5
   1.83885E+5   2.94480E+5
   1.77336E+5   2.90621E+5
   1.70610E+5   2.86357E+5
   1.64428E+5   2.82363E+5
   1.58734E+5   2.78276E+5
   1.52834E+5   2.74155E+5
   1.47319E+5   2.69570E+5
   1.41909E+5   2.65692E+5
   1.37293E+5   2.61570E+5
   1.32142E+5   2.58081E+5
   1.26672E+5   2.53945E+5
   1.21884E+5   2.49690E+5
   1.17189E+5   2.45604E+5
   1.12435E+5   2.42047E+5
   1.07953E+5   2.38097E+5
   1.03408E+5   2.33796E+5
   9.91303E+4   2.29994E+5
   9.49986E+4   2.26293E+5
   9.06414E+4   2.22323E+5
   8.66619E+4   2.18073E+5
   8.31032E+4   2.14147E+5
   7.95112E+4   2.10215E+5
   7.61040E+4   2.06662E+5
   7.27670E+4   2.03247E+5
   6.93231E+4   1.99576E+5
   6.65740E+4   1.95714E+5
   6.33729E+4   1.91812E+5
   6.05144E+4   1.88272E+5
   5.77610E+4   1.84929E+5
   5.48419E+4   1.81315E+5
   5.22872E+4   1.77465E+5
   4.99365E+4   1.74052E+5
   4.73696E+4   1.70846E+5
   4.49517E+4   1.67302E+5
   4.25017E+4   1.63339E+5
   4.04878E+4   1.59947E+5
   3.84085E+4   1.56530E+5
   3.58994E+4   1.53463E+5
   3.39977E+4   1.49862E+5
   3.19458E+4   1.46678E+5
   3.01840E+4   1.43077E+5
   2.84053E+4   1.40209E+5
   2.68315E+4   1.36605E+5
   2.51536E+4   1.33309E+5
   2.35923E+4   1.30062E+5
   2.22283E+4   1.26962E+5
   2.07708E+4   1.24173E+5
   1.91259E+4   1.21281E+5
   1.74320E+4   1.17949E+5
   1.62613E+4   1.14888E+5
   1.50466E+4   1.11857E+5
   1.38729E+4   1.09083E+5
   1.23721E+4   1.06174E+5
   1.08909E+4   1.03466E+5
   9.81976E+3   1.00559E+5
   8.61209E+3   9.78684E+4
   7.31734E+3   9.51361E+4
   6.32450E+3   9.24210E+4
   5.13787E+3   8.92571E+4
   4.67602E+3   8.70044E+4
   3.63883E+3   8.46111E+4
   2.62376E+3   8.18873E+4
   1.64110E+3   7.96015E+4
   9.10320E+2   7.66800E+4
   2.56712E+2   7.43696E+4
  -7.68781E+2   7.22474E+4
  -1.81282E+3   6.97116E+4
  -2.25716E+3   6.74752E+4
  -2.83262E+3   6.53273E+4
  -3.56448E+3   6.30373E+4
  -4.16543E+3   6.10384E+4
  -4.84490E+3   5.87730E+4
  -5.32576E+3   5.66255E+4
  -5.60183E+3   5.45518E+4
  -6.05938E+3   5.26136E+4
  -6.35811E+3   5.08447E+4
  -6.95960E+3   4.89558E+4
  -7.30508E+3   4.72316E+4
  -7.52264E+3   4.52658E+4
  -7.86643E+3   4.37662E+4
  -8.08169E+3   4.17003E+4
  -8.46883E+3   4.02459E+4
  -8.57367E+3   3.82573E+4
  -8.50160E+3   3.72596E+4
  -9.11868E+3   3.58048E+4
  -9.22334E+3   3.39380E+4
  -9.17023E+3   3.24911E+4
  -9.14211E+3   3.13412E+4
  -9.23970E+3   2.99875E+4
  -9.43152E+3   2.86315E+4
  -9.46403E+3   2.74352E+4
  -9.31928E+3   2.62674E+4
  -9.44409E+3   2.50554E+4
  -9.31076E+3   2.37575E+4
  -9.43487E+3   2.28057E+4
  -9.30007E+3   2.16242E+4
  -9.39627E+3   2.03734E+4
  -9.38624E+3   1.95862E+4
  -8.89052E+3   1.85802E+4
  -8.66760E+3   1.75865E+4
  -8.70287E+3   1.66391E+4
  -8.41739E+3   1.57019E+4
  -8.19553E+3   1.48817E+4
  -8.03524E+3   1.39240E+4
  -8.16253E+3   1.32674E+4
  -7.66195E+3   1.21553E+4
  -7.66423E+3   1.14649E+4
  -7.14130E+3   1.07825E+4
  -7.15531E+3   1.02475E+4
  -7.06944E+3   9.27642E+3
  -6.46671E+3   8.70072E+3
  -6.40684E+3   7.97115E+3
  -6.00281E+3   7.37153E+3
  -5.87918E+3   6.58641E+3
  -5.35410E+3   6.03817E+3
  -5.05709E+3   5.34277E+3
  -4.55538E+3   4.93160E+3
  -4.49917E+3   4.26773E+3
  -4.29759E+3   3.68271E+3
  -3.77851E+3   3.22448E+3
  -3.24439E+3   2.81809E+3
  -3.05178E+3   2.31205E+3
  -2.67968E+3   1.88298E+3
  -2.29933E+3   1.30336E+3
  -1.98660E+3   9.10794E+2
  -1.68128E+3   3.87964E+2
  -1.17133E+3   1.87000E+2
  -1.09243E+3  -4.21944E+2
  -4.35989E+2  -7.68737E+2
  -5.12148E+2  -1.27032E+3
   5.86599E+1  -1.68102E+3
   1.82167E+2  -2.12107E+3
   4.93836E+2  -2.33138E+3
   1.01159E+3  -2.71980E+3
   1.04599E+3  -3.13522E+3
   1.27957E+3  -3.19392E+3
   1.85333E+3  -3.47248E+3
   2.02365E+3  -3.97079E+3
   2.25636E+3  -4.26571E+3
   2.70058E+3  -4.46259E+3
   2.81357E+3  -4.75027E+3
   3.08290E+3  -5.08237E+3
   3.46265E+3  -5.10468E+3
   3.54329E+3  -5.35049E+3
   3.69533E+3  -5.59573E+3
   4.05945E+3  -5.72502E+3
   4.30648E+3  -5.69846E+3
   4.68524E+3  -5.96059E+3
   4.73583E+3  -5.96242E+3
   5.17263E+3  -6.01456E+3
   5.20521E+3  -6.15675E+3
   5.51274E+3  -6.38773E+3
   5.75912E+3  -6.23582E+3
   6.11991E+3  -6.50829E+3
   6.19315E+3  -6.66033E+3
   6.33931E+3  -6.51906E+3
   6.34508E+3  -6.70575E+3
   6.81470E+3  -6.80772E+3
   7.03276E+3  -6.39849E+3
   7.18214E+3  -6.59917E+3
   7.33033E+3  -6.41838E+3
   7.22094E+3  -6.70119E+3
   7.70300E+3  -6.36192E+3
   8.03057E+3  -6.46105E+3
   8.29603E+3  -6.41616E+3
   8.32689E+3  -6.42849E+3
   8.52320E+3  -6.37898E+3
   8.47165E+3  -6.17358E+3
   8.85534E+3  -5.98671E+3
   8.99851E+3  -5.80011E+3
   9.04554E+3  -5.82094E+3
   9.31346E+3  -5.63539E+3
   9.60638E+3  -5.68936E+3
   9.70903E+3  -5.30009E+3
   9.89178E+3  -5.34821E+3
   1.02302E+4  -5.21574E+3
   1.02470E+4  -4.97440E+3
   1.02652E+4  -4.74976E+3
   1.05167E+4  -4.86632E+3
   1.06267E+4  -4.75463E+3
   1.07162E+4  -4.53382E+3
   1.08027E+4  -4.24330E+3
   1.09827E+4  -4.17325E+3
   1.12998E+4  -4.02121E+3
   1.12138E+4  -3.81340E+3
   1.15708E+4  -3.80349E+3
   1.15028E+4  -3.59328E+3
   1.15315E+4  -3.51595E+3
   1.20214E+4  -3.21199E+3
   1.20307E+4  -3.10247E+3
   1.21798E+4  -2.95718E+3
   1.21067E+4  -3.01157E+3
   1.21655E+4  -2.41804E+3
   1.23539E+4  -2.31463E+3
   1.25461E+4  -2.39958E+3
   1.26490E+4  -2.18221E+3
   1.26947E+4  -1.94320E+3
   1.28251E+4  -1.93275E+3
   1.26878E+4  -1.67945E+3
   1.28613E+4  -1.81289E+3
   1.26843E+4  -1.20483E+3
   1.29367E+4  -1.31733E+3
   1.28166E+4  -1.14390E+3
   1.28371E+4  -8.93723E+2
   1.29655E+4  -8.88914E+2
   1.28645E+4  -6.45546E+2
   1.29227E+4  -5.37491E+2
   1.29364E+4  -4.98813E+2
   1.31289E+4  -2.79653E+2
   1.29246E+4  -1.78655E+2
   1.29468E+4  -3.02030E+2
   1.29287E+4   1.57641E+2
   1.30308E+4  -2.97026E+1
   1.28120E+4  -3.11634E+1
   1.29618E+4   5.62716E+2
   1.30769E+4   4.27536E+2
   1.28937E+4   7.31278E+2
   1.28464E+4   8.24244E+2
   1.26364E+4   1.03072E+3
   1.28699E+4   1.18848E+3
   1.27434E+4   1.07774E+3
   1.25204E+4   1.24803E+3
   1.25377E+4   1.25762E+3
