 
 $NMID
 ID=''
 FMTDAT='(2E13.5)'
 TRAMP=   1.00000E+0
 VOLUME=   1.00000E+0
 $END
   5.97623E+5   4.16121E+5
   1.09485E+6   1.64237E+6
   1.25906E+6   1.46337E+6
   1.15960E+6   1.38909E+6
   1.24410E+6   1.42227E+6
   1.34852E+6   1.29201E+6
   1.33452E+6   1.21088E+6
   1.37740E+6   1.21363E+6
   1.41437E+6   1.14557E+6
   1.38356E+6   1.11110E+6
   1.40468E+6   1.09827E+6
   1.42751E+6   1.03023E+6
   1.41170E+6   9.98586E+5
   1.42186E+6   9.93515E+5
   1.41963E+6   9.45737E+5
   1.40320E+6   9.16055E+5
   1.42231E+6   8.97384E+5
   1.43072E+6   8.40417E+5
   1.42397E+6   7.90475E+5
   1.44615E+6   7.47367E+5
   1.44896E+6   6.95028E+5
   1.43574E+6   6.54841E+5
   1.44473E+6   6.18715E+5
   1.44334E+6   5.73398E+5
   1.42459E+6   5.42935E+5
   1.42246E+6   5.06715E+5
   1.41714E+6   4.74773E+5
   1.39920E+6   4.60563E+5
   1.38657E+6   4.38031E+5
   1.37604E+6   3.99446E+5
   1.36607E+6   3.72807E+5
   1.35760E+6   3.40651E+5
   1.34315E+6   2.99283E+5
   1.33228E+6   2.64855E+5
   1.32273E+6   2.28862E+5
   1.30729E+6   1.84380E+5
   1.29372E+6   1.44973E+5
   1.28360E+6   1.12122E+5
   1.26286E+6   8.34490E+4
   1.24267E+6   5.71697E+4
   1.22676E+6   3.19386E+4
   1.20677E+6   1.03783E+4
   1.18528E+6  -7.93612E+3
   1.16640E+6  -2.96206E+4
   1.14743E+6  -4.85095E+4
   1.12878E+6  -6.30046E+4
   1.10853E+6  -8.09869E+4
   1.08656E+6  -1.01860E+5
   1.06596E+6  -1.22430E+5
   1.04617E+6  -1.42316E+5
   1.02272E+6  -1.63160E+5
   1.00165E+6  -1.83636E+5
   9.81717E+5  -2.01866E+5
   9.59504E+5  -2.16539E+5
   9.36037E+5  -2.31527E+5
   9.15039E+5  -2.45947E+5
   8.94217E+5  -2.55387E+5
   8.70770E+5  -2.63624E+5
   8.47899E+5  -2.74579E+5
   8.28474E+5  -2.84956E+5
   8.07898E+5  -2.92033E+5
   7.85053E+5  -2.99583E+5
   7.63440E+5  -3.08863E+5
   7.43224E+5  -3.16416E+5
   7.21367E+5  -3.22741E+5
   6.98568E+5  -3.29444E+5
   6.77062E+5  -3.36418E+5
   6.56194E+5  -3.41634E+5
   6.34917E+5  -3.46008E+5
   6.14491E+5  -3.49846E+5
   5.95532E+5  -3.53302E+5
   5.76509E+5  -3.54492E+5
   5.56271E+5  -3.55848E+5
   5.37097E+5  -3.57753E+5
   5.18871E+5  -3.58473E+5
   5.00107E+5  -3.58585E+5
   4.80600E+5  -3.59019E+5
   4.62292E+5  -3.59746E+5
   4.45288E+5  -3.59892E+5
   4.27462E+5  -3.58792E+5
   4.09299E+5  -3.58028E+5
   3.92348E+5  -3.56735E+5
   3.76553E+5  -3.54481E+5
   3.60504E+5  -3.51456E+5
   3.45023E+5  -3.48352E+5
   3.30626E+5  -3.44854E+5
   3.16194E+5  -3.40745E+5
   3.01786E+5  -3.36981E+5
   2.88149E+5  -3.32982E+5
   2.75197E+5  -3.29006E+5
   2.61142E+5  -3.24507E+5
   2.47246E+5  -3.21000E+5
   2.34245E+5  -3.17463E+5
   2.21397E+5  -3.13462E+5
   2.08557E+5  -3.09375E+5
   1.95819E+5  -3.05827E+5
   1.83644E+5  -3.01183E+5
   1.71878E+5  -2.96975E+5
   1.60215E+5  -2.92229E+5
   1.49552E+5  -2.87431E+5
   1.38936E+5  -2.82447E+5
   1.28959E+5  -2.77251E+5
   1.19521E+5  -2.72319E+5
   1.10456E+5  -2.66647E+5
   1.01295E+5  -2.61246E+5
   9.21777E+4  -2.56234E+5
   8.34933E+4  -2.51126E+5
   7.52243E+4  -2.46052E+5
   6.73354E+4  -2.40645E+5
   5.92582E+4  -2.35196E+5
   5.17258E+4  -2.30163E+5
   4.46441E+4  -2.25611E+5
   3.77921E+4  -2.20419E+5
   3.09119E+4  -2.14955E+5
   2.48511E+4  -2.09836E+5
   1.89512E+4  -2.04724E+5
   1.30399E+4  -1.99819E+5
   7.79573E+3  -1.94948E+5
   2.61933E+3  -1.89809E+5
  -2.60410E+3  -1.84292E+5
  -8.10624E+3  -1.79648E+5
  -1.28245E+4  -1.75293E+5
  -1.73456E+4  -1.70794E+5
  -2.15902E+4  -1.65972E+5
  -2.62744E+4  -1.61902E+5
  -2.98517E+4  -1.57480E+5
  -3.32630E+4  -1.52728E+5
  -3.68649E+4  -1.48405E+5
  -4.02037E+4  -1.44413E+5
  -4.34664E+4  -1.40765E+5
  -4.59712E+4  -1.36760E+5
  -4.87635E+4  -1.33185E+5
  -5.12595E+4  -1.29929E+5
  -5.33879E+4  -1.26176E+5
  -5.63064E+4  -1.22507E+5
  -5.87087E+4  -1.19224E+5
  -6.10314E+4  -1.16109E+5
  -6.31886E+4  -1.12926E+5
  -6.53579E+4  -1.09909E+5
  -6.76339E+4  -1.07207E+5
  -6.93483E+4  -1.04613E+5
  -7.08773E+4  -1.01768E+5
  -7.25620E+4  -9.90885E+4
  -7.45065E+4  -9.63033E+4
  -7.60379E+4  -9.40446E+4
  -7.76797E+4  -9.12487E+4
  -7.88764E+4  -8.89689E+4
  -8.03253E+4  -8.68346E+4
  -8.13318E+4  -8.45802E+4
  -8.28120E+4  -8.25144E+4
  -8.37651E+4  -8.06895E+4
  -8.45062E+4  -7.84898E+4
  -8.56081E+4  -7.63836E+4
  -8.68302E+4  -7.37703E+4
  -8.78911E+4  -7.21720E+4
  -8.88417E+4  -7.04086E+4
  -8.94099E+4  -6.86519E+4
  -9.05557E+4  -6.66273E+4
  -9.16314E+4  -6.51290E+4
  -9.21508E+4  -6.33977E+4
  -9.27375E+4  -6.17216E+4
  -9.32533E+4  -6.01717E+4
  -9.37916E+4  -5.84796E+4
  -9.41617E+4  -5.70447E+4
  -9.44433E+4  -5.55172E+4
  -9.47285E+4  -5.37273E+4
  -9.50467E+4  -5.24238E+4
  -9.54669E+4  -5.08583E+4
  -9.56461E+4  -4.95150E+4
  -9.59387E+4  -4.85253E+4
  -9.56392E+4  -4.71289E+4
  -9.55898E+4  -4.56470E+4
  -9.59460E+4  -4.42921E+4
  -9.57245E+4  -4.37171E+4
  -9.55592E+4  -4.26946E+4
  -9.52522E+4  -4.12744E+4
  -9.51438E+4  -3.99892E+4
  -9.49045E+4  -3.93266E+4
  -9.44177E+4  -3.85366E+4
  -9.38584E+4  -3.75658E+4
  -9.35522E+4  -3.70322E+4
  -9.31967E+4  -3.63056E+4
  -9.26179E+4  -3.59348E+4
  -9.22097E+4  -3.52175E+4
  -9.14003E+4  -3.47562E+4
  -9.07082E+4  -3.40450E+4
  -9.02285E+4  -3.35623E+4
  -8.96001E+4  -3.33246E+4
  -8.88216E+4  -3.28393E+4
  -8.82517E+4  -3.25084E+4
  -8.80036E+4  -3.23762E+4
  -8.71031E+4  -3.20503E+4
  -8.66368E+4  -3.20228E+4
  -8.60075E+4  -3.23256E+4
  -8.50759E+4  -3.23980E+4
  -8.44780E+4  -3.26781E+4
  -8.37240E+4  -3.26087E+4
  -8.31335E+4  -3.27895E+4
  -8.25460E+4  -3.31507E+4
  -8.18123E+4  -3.35032E+4
  -8.13159E+4  -3.38886E+4
  -8.06724E+4  -3.41264E+4
  -7.98614E+4  -3.48067E+4
  -7.92233E+4  -3.49174E+4
  -7.85879E+4  -3.51741E+4
  -7.85072E+4  -3.56879E+4
  -7.76586E+4  -3.64026E+4
  -7.71004E+4  -3.66424E+4
  -7.67739E+4  -3.71614E+4
  -7.63677E+4  -3.77353E+4
  -7.59836E+4  -3.83665E+4
  -7.51984E+4  -3.87661E+4
  -7.50822E+4  -3.93362E+4
  -7.47528E+4  -3.96531E+4
  -7.44747E+4  -4.03104E+4
  -7.39596E+4  -4.08622E+4
  -7.36284E+4  -4.11182E+4
  -7.35379E+4  -4.15308E+4
  -7.32810E+4  -4.17865E+4
  -7.32084E+4  -4.21835E+4
  -7.27156E+4  -4.26010E+4
  -7.28167E+4  -4.28149E+4
  -7.23793E+4  -4.31954E+4
  -7.24542E+4  -4.33900E+4
  -7.23000E+4  -4.37509E+4
  -7.20033E+4  -4.38402E+4
  -7.18453E+4  -4.40079E+4
  -7.15040E+4  -4.39347E+4
  -7.15332E+4  -4.43053E+4
  -7.14569E+4  -4.44184E+4
  -7.13413E+4  -4.43304E+4
  -7.10084E+4  -4.45700E+4
  -7.09016E+4  -4.43723E+4
  -7.06952E+4  -4.44418E+4
  -7.06860E+4  -4.46046E+4
  -7.05568E+4  -4.41959E+4
  -7.03242E+4  -4.40860E+4
  -7.02767E+4  -4.37986E+4
  -7.01767E+4  -4.35908E+4
  -6.98383E+4  -4.33986E+4
  -6.95881E+4  -4.29708E+4
  -6.94163E+4  -4.27639E+4
  -6.93635E+4  -4.24844E+4
  -6.93409E+4  -4.21805E+4
  -6.90395E+4  -4.17836E+4
  -6.87117E+4  -4.14715E+4
  -6.86460E+4  -4.08780E+4
  -6.80858E+4  -4.07743E+4
  -6.76623E+4  -4.01004E+4
  -6.74907E+4  -3.95445E+4
  -6.69563E+4  -3.91678E+4
  -6.65253E+4  -3.87596E+4
  -6.63162E+4  -3.82235E+4
  -6.58114E+4  -3.77336E+4
  -6.50945E+4  -3.74618E+4
  -6.49172E+4  -3.68321E+4
  -6.45137E+4  -3.64096E+4
  -6.38163E+4  -3.59470E+4
  -6.34479E+4  -3.53216E+4
  -6.27895E+4  -3.50122E+4
  -6.22377E+4  -3.46085E+4
  -6.15477E+4  -3.42361E+4
  -6.08784E+4  -3.38962E+4
  -6.03057E+4  -3.30742E+4
  -5.95784E+4  -3.25199E+4
  -5.90137E+4  -3.21949E+4
  -5.83852E+4  -3.15941E+4
  -5.76918E+4  -3.12086E+4
  -5.69154E+4  -3.06592E+4
  -5.60910E+4  -2.98689E+4
  -5.54656E+4  -2.94004E+4
  -5.43705E+4  -2.90049E+4
  -5.39015E+4  -2.85071E+4
  -5.30341E+4  -2.79228E+4
  -5.21664E+4  -2.77408E+4
  -5.14542E+4  -2.70305E+4
  -5.04315E+4  -2.66357E+4
  -4.96876E+4  -2.61571E+4
  -4.88415E+4  -2.54206E+4
  -4.79163E+4  -2.49867E+4
  -4.73590E+4  -2.48351E+4
  -4.62636E+4  -2.43372E+4
  -4.53807E+4  -2.37259E+4
  -4.46048E+4  -2.31208E+4
  -4.37636E+4  -2.28982E+4
  -4.28466E+4  -2.25842E+4
  -4.19080E+4  -2.20680E+4
  -4.10834E+4  -2.12724E+4
  -4.04991E+4  -2.06828E+4
  -3.95359E+4  -2.04111E+4
  -3.86264E+4  -1.99178E+4
  -3.76109E+4  -1.96318E+4
  -3.66059E+4  -1.87371E+4
  -3.59804E+4  -1.85754E+4
  -3.51199E+4  -1.78495E+4
  -3.41791E+4  -1.74386E+4
  -3.32596E+4  -1.70620E+4
  -3.25408E+4  -1.66053E+4
  -3.15435E+4  -1.63726E+4
  -3.06241E+4  -1.60032E+4
  -2.97590E+4  -1.55062E+4
  -2.87252E+4  -1.49854E+4
  -2.79916E+4  -1.47708E+4
  -2.70682E+4  -1.42673E+4
  -2.63336E+4  -1.39556E+4
  -2.57005E+4  -1.36697E+4
  -2.46667E+4  -1.31612E+4
  -2.38483E+4  -1.28355E+4
  -2.27211E+4  -1.25233E+4
  -2.20041E+4  -1.21023E+4
  -2.11413E+4  -1.17949E+4
  -2.06294E+4  -1.15698E+4
  -1.96691E+4  -1.10863E+4
  -1.88007E+4  -1.08994E+4
  -1.78404E+4  -1.05077E+4
  -1.70509E+4  -1.01160E+4
  -1.62843E+4  -1.00307E+4
  -1.55814E+4  -9.72582E+3
  -1.49706E+4  -9.50132E+3
  -1.41871E+4  -9.05823E+3
  -1.35265E+4  -8.75745E+3
  -1.25995E+4  -8.68446E+3
  -1.18609E+4  -8.12856E+3
  -1.09301E+4  -8.35948E+3
  -1.04296E+4  -7.79650E+3
  -9.69179E+3  -7.51338E+3
  -9.22808E+3  -7.47371E+3
  -8.37355E+3  -7.45768E+3
  -7.64094E+3  -7.34944E+3
  -7.00686E+3  -6.79980E+3
  -6.57726E+3  -6.81290E+3
  -5.86600E+3  -6.45893E+3
  -5.13234E+3  -6.23439E+3
  -4.60576E+3  -6.10267E+3
  -3.84089E+3  -5.84708E+3
  -3.50687E+3  -5.66766E+3
  -2.58543E+3  -5.68927E+3
  -2.07546E+3  -5.38076E+3
  -1.61849E+3  -5.20068E+3
  -1.40428E+3  -5.17991E+3
  -6.05272E+2  -5.19096E+3
  -1.53743E+2  -4.95542E+3
   4.23421E+2  -4.71882E+3
   8.10058E+2  -4.63277E+3
   1.36175E+3  -4.44327E+3
   1.77873E+3  -4.27483E+3
   2.19789E+3  -4.19987E+3
   2.65329E+3  -4.06808E+3
   2.97095E+3  -3.96602E+3
   3.36122E+3  -3.84684E+3
   4.04661E+3  -3.92069E+3
   4.23249E+3  -3.77775E+3
   4.71860E+3  -3.54310E+3
   5.09561E+3  -3.67655E+3
   5.42617E+3  -3.38669E+3
   5.68362E+3  -3.41036E+3
   6.27742E+3  -3.16083E+3
   6.33306E+3  -3.38594E+3
   6.32669E+3  -3.36548E+3
   6.85991E+3  -3.35391E+3
   7.41634E+3  -3.20087E+3
   7.57318E+3  -3.15316E+3
   7.70843E+3  -3.10305E+3
   7.89221E+3  -3.00071E+3
   8.09387E+3  -2.91436E+3
   8.22598E+3  -2.99016E+3
   8.52517E+3  -2.93829E+3
