 
 $NMID
 ID=''
 FMTDAT='(2E13.5)'
 TRAMP=   1.00000E+0
 VOLUME=   1.00000E+0
 $END
   1.84008E+4   2.64259E+3
   1.07533E+4   5.82005E+3
  -4.15778E+3   6.14606E+3
  -6.25289E+3   1.48209E+4
  -5.70182E+3   7.50738E+3
  -1.05196E+4  -4.16569E+3
  -8.40967E+3  -2.53125E+3
  -3.96143E+3  -1.89583E+3
  -3.90087E+3  -6.35162E+3
  -1.62143E+3  -6.36124E+3
   2.84855E+3  -6.51372E+3
   4.20641E+3  -6.72867E+3
   5.49623E+3  -2.00504E+3
   6.68475E+3   2.01645E+3
   4.92610E+3   8.43196E+2
   4.56050E+3   3.11368E+3
   3.40984E+3   7.68131E+3
  -1.41456E+3   7.00019E+3
  -4.94279E+3   3.49003E+3
  -3.94242E+3   2.51351E+3
  -4.30480E+3   1.00553E+3
  -4.74071E+3  -1.90852E+3
  -2.69089E+3  -2.54528E+3
  -1.58862E+3  -3.37139E+3
  -1.10085E+3  -5.60061E+3
   2.67316E+3  -4.07964E+3
   4.26174E+3  -6.36310E+2
   1.69534E+3  -6.75322E+1
   2.62601E+3  -6.52277E+2
   4.69021E+3   1.53203E+3
   1.79002E+3   3.41847E+3
  -9.70890E+2   3.52788E+3
  -1.47944E+3   2.75854E+3
  -2.23957E+3   1.36798E+3
  -1.85096E+3   2.26894E+2
  -8.29188E+2  -4.89864E+2
  -2.16549E+3  -7.52501E+2
  -2.62363E+3  -1.27614E+3
  -6.45322E+2  -2.22650E+3
   2.94118E+2  -2.62762E+3
   4.92916E+2  -1.61157E+3
   1.69919E+3  -1.55365E+3
   2.34948E+3  -7.60998E+2
   1.93417E+3   1.03057E+3
   1.74115E+3   1.56988E+3
   7.34902E+2   1.93393E+3
  -8.37396E+2   2.80835E+3
  -1.75530E+3   1.57717E+3
  -1.87547E+3  -1.65991E+2
  -1.33735E+3  -1.58186E+2
  -9.01917E+2  -3.80641E+2
  -1.01905E+3  -1.14952E+3
  -6.22984E+2  -1.15581E+3
   3.49916E+2  -6.98275E+2
   2.70070E+2  -7.39581E+2
   4.91689E+2  -6.78321E+2
   1.19110E+3  -7.15800E+2
   8.85144E+2  -3.55440E+2
   1.10889E+3   5.27281E+2
   1.08079E+3   1.33364E+3
   3.75045E+2   9.70291E+2
  -2.50082E+2   1.51867E+3
  -5.78337E+2   1.16834E+3
  -1.23980E+3   3.81852E+2
  -1.62898E+3  -5.07337E+2
  -5.41262E+2  -7.94222E+2
  -8.06355E+1  -8.13595E+2
   4.95089E+1  -8.14463E+2
   3.99915E+2  -4.67151E+2
   4.04277E+2  -4.55849E+2
   3.41765E+2  -5.08320E+2
   8.68925E+2  -3.77707E+2
   1.04204E+3  -3.34239E+1
   2.24502E+2   8.42794E+2
   1.41233E+2   7.04563E+2
   1.73369E+2   1.14501E+2
  -6.48612E+1   5.42065E+2
  -2.17331E+2   4.83239E+2
  -4.64655E+2  -5.97354E+1
  -7.19911E+2  -1.62641E+2
  -4.61989E+2  -3.35868E+2
  -3.60608E+2  -6.20703E+2
  -1.12421E+1  -3.55070E+2
  -6.89697E+0  -3.98718E+2
   3.29137E+1  -5.40206E+2
   5.36449E+2  -2.77508E+2
   4.93705E+2   1.64384E+2
   1.87731E+2   1.29185E+2
   1.00143E+2   1.95687E+2
   2.05848E+2   3.61104E+2
   2.23416E+2   3.51544E+2
  -7.27380E+1   3.40357E+2
  -5.62004E+2   2.92946E+2
  -3.56610E+2  -1.97476E+2
  -3.92147E+2  -2.19554E+2
   7.24079E+1  -8.16181E+0
  -3.49224E+2  -2.30710E+2
  -4.43002E+1  -3.66223E+2
   2.79054E+2  -2.32182E+2
   3.24072E+1  -1.61638E+2
   2.74504E+2   9.34368E+0
   2.93591E+2  -1.02185E+2
   6.10747E+1   2.08173E+2
   1.39497E+2   5.80068E+1
   2.76952E+2   5.39196E+1
   3.13201E+2   2.34145E+2
  -6.73692E+1   6.26936E+2
  -3.28265E+2   2.36568E+2
  -2.98939E+2  -1.03111E+2
   2.46242E+2  -1.10073E+1
  -2.21469E+2   4.55695E+2
  -2.45875E+2  -6.82633E+1
  -4.36664E+2  -3.00410E+2
   1.06754E+2  -1.00027E+2
   1.62339E+2   3.24791E+0
   8.90997E+1  -1.01100E+2
   3.01010E+1  -1.86389E+2
   3.99255E+2  -3.46443E+2
   1.20562E+2   1.86332E+2
   1.27019E+2   1.35780E+2
   3.03578E+2   2.88662E+2
   1.44758E+1   2.51147E+2
  -2.93822E+2   3.96147E+2
  -3.23262E+2   2.89255E+1
  -2.01441E+2   1.28787E+2
  -3.88932E+1  -2.21511E+2
   1.52643E+2  -1.58383E+2
  -9.89442E+1  -1.04759E+2
   3.40585E+1  -6.82719E+1
   1.29245E+2  -5.94400E+1
  -1.05540E+2  -1.42407E+2
  -3.72911E+1  -3.10642E+2
   3.94980E+2  -2.43664E+2
   1.70618E+2  -1.03426E+2
  -1.12109E+2   2.30898E+2
   5.81396E+1   2.29742E+1
   2.87385E+2   1.57352E+2
   2.30307E+1   1.22402E+2
  -1.66610E+2   1.72128E+2
  -2.05942E+2   2.94037E+1
  -3.56890E+0  -2.83882E+2
  -7.87415E+1  -1.80715E+1
   1.57086E+2  -1.43700E+2
   6.26832E+1   1.71603E+0
   4.47952E+1  -2.79097E+2
   1.94316E+1  -1.01558E+2
  -1.53988E+2   2.89245E+1
   2.74088E+2  -1.80053E+2
  -1.68810E+0   7.83869E+1
  -1.28834E+2  -1.95516E+2
  -6.27040E+1  -1.54937E+2
   1.41503E+2  -9.11085E+1
   4.51753E+1   1.01732E+2
  -1.01736E+2   2.10884E+2
  -2.36865E+2  -1.03007E+1
  -2.96714E+2  -7.25307E+1
   6.40879E+1   1.29407E+2
   6.63021E+0   2.14052E+2
  -2.28355E+2   5.97950E+1
  -1.28144E+2  -2.47672E+2
   1.95963E+2  -2.27905E+2
   1.48885E+2  -1.10951E+2
   2.76902E+2  -7.69638E+0
   2.17579E+2  -1.05024E+2
   1.84164E+2  -5.49057E+1
   1.26890E+2   9.40604E+0
   3.86708E+1   1.78165E+2
  -1.69628E+1   9.54376E+1
   3.33833E+1   1.17308E+2
  -1.01294E+2   1.68161E+2
  -8.97154E+1  -1.47991E+2
   2.91878E+1  -2.43028E+2
  -1.93594E+2   1.93779E+1
  -2.09333E+2  -9.06016E+0
  -3.84847E+1  -3.31192E+2
   1.54025E+2   1.42519E+2
  -2.18944E+2   3.19001E+2
   2.18814E+2  -1.28534E+2
   1.05372E+2  -2.40571E+2
   2.44465E+2  -7.09508E+1
   2.55955E+2   2.98274E+2
  -2.26293E+1   3.52458E+2
  -3.49916E+2  -2.02805E+2
   5.08701E+1  -5.61487E+1
  -2.48769E+2  -1.35380E+2
  -3.75341E+1  -5.12431E+1
   4.75508E+1  -1.41872E+2
   4.56426E+1  -4.37200E+2
   1.62669E+2  -1.40724E+2
   1.17611E+2   1.43280E+2
  -4.87421E+1   2.85926E+1
  -2.53531E+2   5.31043E+1
  -6.77760E+0  -1.63129E+2
   1.27295E+1   1.40001E+2
  -7.87008E+1  -1.61114E+2
  -7.01730E+1  -4.79877E+1
  -1.96139E+2  -5.07828E+1
  -2.15967E+1  -1.07964E+2
   1.30595E+2   2.39195E+2
  -5.18683E+0   7.76750E+1
  -2.61561E+2  -4.88409E+1
   2.39275E+1  -3.10042E+1
   3.04871E+1   2.65413E+1
   5.91607E+1  -1.17592E+2
  -3.76254E+1   3.00783E+1
  -9.59809E+1   2.43153E+2
   2.09036E+2  -4.40234E+1
   4.88797E+1  -9.95013E+1
   7.51065E+1   1.57383E+2
  -1.26772E+2  -2.82793E+1
   5.46107E+1  -1.15775E+2
   2.62417E+1   7.50443E+0
  -1.86126E+2   1.09322E+2
  -1.66024E+2   3.55692E+2
  -1.19123E+2   1.18790E+2
  -1.98632E+2  -2.28007E+2
  -1.42819E+1  -9.08830E+1
   2.24543E+2  -5.24540E+1
   1.08934E+2   2.10897E+2
   1.79651E+2   7.34826E+1
  -1.13112E+2  -9.03231E+0
   4.27617E+1   3.51255E+2
  -8.66779E+1   1.58857E+2
  -6.52631E+1   9.41627E+1
  -4.93494E+1   1.28298E+0
  -5.04083E+1  -3.81471E+1
  -1.01553E+2  -2.10495E+2
  -3.57813E+1   3.23193E+2
  -1.75991E+2  -1.23612E+1
  -1.36430E+2   9.68563E+1
   1.06130E+2  -1.25777E+2
  -1.87637E+1   1.34788E+2
  -4.02703E+1  -1.45586E+1
  -1.08905E+2   1.04783E+1
   1.00472E+2   9.98391E+1
   8.36391E+1  -6.87772E+1
   7.83414E+1   9.74838E+1
   6.13768E+1   1.45065E+2
  -1.13871E+2  -1.92632E+1
   5.43507E+1  -3.99739E+1
  -3.00913E+0  -1.28514E+1
   4.51507E+1   9.50737E+1
  -3.20700E+2   2.61428E+1
   2.77328E+1   6.11613E+0
   3.01410E+1  -3.11132E+1
   3.12455E+2  -2.18650E+1
   3.00605E+1   1.62230E+2
   1.76899E+1  -2.01469E+2
   3.08021E+2  -2.54922E+2
   5.45020E+1  -1.18581E+2
   1.94200E+1   2.16654E+2
   7.51971E+1   1.36220E+2
  -2.04425E+2  -5.77166E+0
  -1.29106E+2  -1.70737E+1
   3.69400E+2   8.75741E+1
  -1.81171E+1   1.92960E+2
   4.24918E+1   4.36432E+1
   1.94680E+1   3.34888E+1
   3.61813E+1  -7.03426E+1
   1.56697E+2   1.15765E+2
  -1.58670E+2   4.04850E+1
  -2.65712E+2  -1.45796E+2
   4.49564E+1  -8.74962E+1
   2.07810E+2  -7.88335E+1
   2.40822E+2  -5.28312E+1
   1.17903E+2   2.14775E+2
  -1.59638E+2  -1.61714E+0
   1.09403E+2   6.47924E+1
   1.08420E+2  -9.10925E+1
   5.44020E+1  -5.72971E+1
  -5.99639E+1   5.14122E+1
  -1.52797E+1   8.25996E+1
  -9.02775E+1  -1.52387E+2
   2.36320E+2   1.33845E+0
   4.10523E+1   2.02148E+2
  -2.66483E+2   2.16242E+2
  -9.88502E+1  -9.25301E+1
   2.30855E+2   1.06330E+2
   1.02137E+2  -4.43140E+0
  -1.58177E+1   6.72643E+1
  -1.00051E+2  -1.02918E+2
  -5.97723E+1  -5.67420E+1
  -1.15058E+1  -5.97274E+1
  -1.93813E+2   2.19051E+2
  -3.56830E+1   1.28881E+2
  -3.45830E+1  -1.05671E+1
  -6.57871E+1  -1.06495E+2
  -1.02575E+2  -8.14096E+1
  -6.33534E+0   2.56895E+2
  -2.38550E+2   8.89017E+1
   1.04439E+2   1.59848E+2
  -1.17502E+2  -1.19763E+1
   1.99296E+2   1.70817E+2
   1.18058E+2  -1.45101E+2
   1.21622E+2   1.46657E+2
  -1.06907E+2  -7.95500E+1
  -6.55178E+1  -1.01150E+2
  -2.00808E+0  -4.73355E+1
  -2.12341E+2   6.77618E+1
   5.94528E+1   1.84998E+1
  -5.36212E+1  -2.56441E+2
   5.32610E+1   1.80762E+2
  -5.78376E+1   1.43112E+2
  -1.25494E+2   1.24380E+2
   5.95207E+1  -1.69190E+2
  -1.43341E+2   7.56894E+0
   1.04665E+2  -2.34134E+2
  -4.27788E+1   7.96777E+1
  -4.89525E+1  -3.37534E+0
  -1.51151E+1  -2.79636E+2
   1.33728E+2  -1.12928E+1
  -6.10409E+1   1.52056E+1
  -5.65139E+1   6.55391E+1
  -1.71108E+2  -2.69356E+1
  -8.91507E+1   5.23544E+1
  -6.88236E+1  -1.23282E+2
  -1.81561E+1   1.47135E+2
   5.89769E+0  -4.62905E+1
  -1.46264E+1   2.86015E+2
   1.07448E+2  -1.73264E+2
   9.10641E+1   3.21443E+1
   1.56055E+2   2.44608E+1
   2.77252E+1  -1.99797E+2
   1.46961E+2  -5.35536E+1
   1.21268E+2   4.20552E+1
   1.31583E+2  -3.82845E+1
   3.51148E+1   2.69977E+2
  -2.09575E+2  -7.55780E+1
  -7.48317E+1   1.69920E+2
  -3.38157E+1  -3.25900E+1
   1.66286E+2   1.08965E+2
  -1.01341E+2   1.43584E+2
  -6.31950E+1  -6.26510E+1
   1.84959E+2   1.17317E+2
  -1.05974E+2   9.05048E+1
  -1.77432E+2   6.67351E+1
   1.43602E+1   7.25391E+1
   1.59081E+2  -1.12973E+2
   1.71270E+2   1.91100E+1
   1.85205E+2   1.74117E+2
   8.45840E+0   1.59776E+2
   8.12768E+1   5.59751E+1
  -4.90910E+1  -9.29795E+1
  -2.78563E+1  -3.62244E+1
  -5.57459E+1  -1.35265E+2
  -1.09873E+1  -1.82407E+2
  -3.95521E+1   1.88109E+2
   1.52980E+2  -2.32593E+2
   1.02140E+2   1.31216E+2
  -5.39661E+1  -5.56742E+0
  -2.16397E+2   1.14525E+2
  -1.67903E+2  -3.55619E+1
  -3.69282E+1   3.11436E+1
   2.15530E+2   3.26826E+1
   1.28705E+1  -6.54070E+0
   2.18268E+2  -1.06388E+2
   2.07578E+1  -4.35773E+2
   4.66847E+1   3.22711E+1
   4.76108E+1   9.13626E+1
  -7.22908E+1  -1.71455E+2
  -1.49648E+2  -5.63789E+1
  -5.21998E+0  -2.42679E+2
   4.82133E+1  -1.61193E+2
   1.19169E+2  -1.37321E+2
   7.44810E+1   1.11189E+2
  -1.20710E+2   1.29013E+2
  -1.16047E+2   2.95676E+1
