 
 $NMID
 ID=''
 FMTDAT='(2E13.5)'
 TRAMP=   1.00000E+0
 VOLUME=   1.00000E+0
 $END
  -8.40664E+3  -2.06730E+4
  -2.22685E+4   2.67583E+3
   8.56471E+3   1.67722E+4
   2.34318E+4  -1.16372E+4
  -1.36334E+4  -1.13751E+4
  -1.34384E+4   1.51337E+4
   1.62009E+4   2.89557E+3
   4.53533E+3  -1.42747E+4
  -9.76606E+3   3.34091E+3
   5.87333E+3   1.01886E+4
   5.26631E+3  -3.25230E+3
  -7.39933E+3  -2.68379E+3
  -1.61528E+3   4.97409E+3
   3.43622E+3   4.18945E+3
  -1.83227E+3  -5.59088E+2
  -1.59261E+3  -4.59515E+3
   8.79050E+2  -1.76998E+3
   7.88492E+2   4.28703E+3
   3.93706E+2   1.56149E+2
  -4.70060E+2  -2.77247E+3
  -6.98456E+1   9.83376E+2
   4.43826E+2  -2.19190E+2
  -7.93524E+2  -1.60487E+3
  -8.03615E+1   2.95420E+3
   6.64188E+2   1.10629E+3
   9.54072E+1  -3.24098E+3
   2.01931E+3   3.94832E+2
   1.54167E+3   2.86150E+3
  -1.87645E+3   1.96221E+2
  -1.99635E+2  -4.46898E+2
   2.57320E+3   2.82313E+2
   2.39164E+2   4.28488E+2
  -1.68581E+3   1.18819E+3
  -9.82129E+2   5.95864E+2
  -1.39316E+3  -2.30298E+3
   3.40591E+2  -2.72005E+3
   2.69535E+3   4.05408E+2
   1.28638E+3   1.81759E+3
  -8.50726E+2  -3.53122E+2
  -1.03579E+2  -3.67194E+2
   2.24388E+2   1.14174E+3
  -9.74752E+2  -1.24998E+2
  -7.40094E+2  -2.31210E+3
   1.05113E+3  -1.48394E+3
   1.37947E+3  -9.62461E+2
   1.10935E+3  -5.18575E+2
   1.07178E+3   1.63173E+3
  -2.21608E+2   2.13164E+3
  -2.01775E+3  -4.03142E+2
  -1.61134E+3  -1.55410E+3
  -3.32565E+2  -6.62264E+2
  -7.89193E+1  -7.73187E+2
  -1.85153E+2  -1.14961E+3
   5.57246E+2  -4.44690E+2
   7.89825E+2  -3.43186E+2
  -3.76209E+1   1.53939E+2
  -1.03042E+3   6.96426E+2
  -1.30730E+3  -8.30546E+2
  -3.28435E+2  -1.85206E+3
   5.13874E+2  -1.28042E+3
   5.49825E+2  -3.68674E+2
   9.62403E+2  -1.17568E+2
   8.36348E+2   7.28693E+2
  -1.47299E+2   2.04045E+3
  -1.76767E+3   1.33175E+3
  -2.24849E+3  -2.15509E+2
  -1.61879E+3  -1.12513E+3
  -6.77806E+2  -1.65652E+3
   3.27412E+2  -1.47992E+3
   3.46563E+2  -2.91735E+1
  -6.28993E+2   3.98480E+2
  -7.16041E+2  -8.88122E+2
   5.66327E+2  -1.19732E+3
   8.98084E+2   4.96207E+2
   6.83901E+1   8.31737E+2
  -7.48233E+2  -2.36451E+2
  -1.81745E+2  -1.69454E+2
   7.44162E+2   4.55667E+2
   1.10560E+2   7.54299E+2
  -8.99988E+2   4.52126E+2
  -9.43734E+2   1.25128E+2
  -3.24711E+2  -2.11145E+2
  -8.45596E+1   1.15628E+2
  -2.26065E+2   2.90811E+2
  -7.89420E+2  -1.54322E+2
  -2.85908E+2  -1.07000E+3
   3.27655E+2  -4.42703E+2
   4.19539E+2  -2.36727E+1
  -4.67536E+1   5.65953E+1
   9.86764E+1  -3.80280E+2
   7.17111E+2  -7.17754E+1
   6.16552E+2   4.26761E+2
   2.36840E+2   1.31701E+3
  -7.53106E+2   1.27756E+3
  -1.16508E+3   2.55917E+1
  -7.27607E+2  -1.29545E+3
   1.35586E+0  -9.01801E+2
   2.23935E+2   8.60916E+1
  -3.79127E+2  -6.29734E+1
   3.08504E+0  -6.60747E+2
   1.10230E+3  -3.56822E+2
   8.97156E+2   9.06490E+2
  -7.40483E+2   8.71179E+2
  -1.22697E+3  -1.16626E+2
  -2.57760E+2  -9.17196E+2
   9.56122E+2   6.47919E+1
   7.28313E+2   3.88105E+2
  -7.93097E+2   3.52074E+2
  -1.15561E+3  -6.16797E+2
   2.82002E+1  -9.68054E+2
   8.76893E+2  -7.92791E+2
   1.12798E+3  -2.40449E+2
   5.11803E+2   2.62546E+2
   1.43035E+2   2.30560E+2
   9.81235E+1   1.68580E+2
   2.57132E+2   6.62053E+2
  -2.01135E+2   9.30935E+2
  -1.23745E+3   2.90226E+2
  -1.13648E+3  -8.49296E+2
  -7.52732E+1  -1.23079E+3
   9.40898E+2  -6.18690E+2
   6.52951E+2  -1.13254E+2
   4.98797E+2  -4.80177E+1
   4.40506E+2   4.18354E+2
   1.77307E+0   5.37267E+2
  -4.24847E+2   4.29919E+2
  -4.96425E+2  -1.64148E+2
  -1.52883E+2  -4.78863E+2
   5.51629E+2  -3.26545E+2
   6.11036E+2   1.61802E+2
   1.44747E+2   6.36862E+2
  -6.28069E+2   3.91113E+2
  -3.91936E+2  -3.25051E+2
   4.74382E+2  -3.45304E+2
  -2.28253E+1  -1.29309E+2
  -5.35246E+2  -3.50043E+2
  -2.26195E+2  -3.34214E+2
   3.20098E+2  -1.06797E+2
   3.11618E+2   2.02768E+2
  -6.68789E+1   5.29951E+2
  -6.47267E+2   3.47337E+1
  -4.87256E+2  -5.01591E+2
   1.80314E+2  -9.77803E+2
   9.29277E+2  -4.88258E+1
   5.96186E+2   9.54291E+2
   9.67578E+0   7.60025E+2
  -5.45230E+2   3.65235E+2
  -5.14615E+2   8.05121E+1
  -3.45144E+2   2.90511E+2
  -6.04681E+2  -1.95396E+2
  -4.38448E+2  -6.19538E+2
  -1.01544E+2  -7.37440E+2
   4.61083E+2  -3.48339E+2
   5.33534E+2   3.92714E+2
  -1.87660E+1   4.54361E+2
  -1.06190E+2  -8.59752E+1
   1.79788E+2  -8.87044E+1
   2.72560E+2   7.57586E+1
  -1.97852E+2   1.47623E+2
   1.68958E+2  -2.61512E+1
   4.90754E+0   2.98257E+2
   1.32170E+2   3.26671E+2
  -3.22427E+2   2.74684E+2
  -5.16665E+2   2.16470E+2
  -3.49209E+2  -3.50518E+2
   1.49007E+2  -3.85408E+2
   3.10014E+2  -9.24565E+1
   3.90973E+2   3.65872E+2
  -1.93007E+2   3.01704E+2
  -2.28558E+2  -2.50188E+2
   2.15562E+2  -1.81864E+2
   1.47298E+2   1.68572E+2
   3.39507E+1   5.70301E+2
  -9.47788E+1   4.99241E+1
  -1.55968E+2  -2.81382E+2
   3.03490E+2  -7.61560E+1
   3.21574E+2   4.87734E+2
  -3.28807E+2   3.26201E+2
  -3.82985E+2  -4.08570E+2
   3.24168E+2  -5.05375E+2
   4.73642E+2   3.30736E+0
   2.51793E+2   4.57768E+2
  -3.22340E+2   5.02210E+2
  -3.35934E+2   2.75733E+2
  -1.15643E+2   1.68044E+1
  -1.68983E+2  -1.15396E+1
  -1.99308E+2  -8.11231E+1
  -3.21901E+2  -5.97756E+2
   1.86436E+2  -6.42685E+2
   1.10397E+3  -2.65554E+2
   9.06642E+2   5.81131E+2
  -1.99417E+2   6.55958E+2
  -7.31778E+2   7.98845E+2
  -4.17727E+2  -3.03162E+2
   1.20938E+1  -2.31669E+2
   2.28499E+1  -2.07557E+2
   3.62050E+2   3.00126E+2
   2.37173E+1  -1.16790E+2
   1.73036E+2   7.65438E+1
   3.10083E+2   4.72437E+2
  -2.15344E+2   4.28238E+2
  -5.93632E+2  -8.31635E+1
  -9.58275E+1  -7.18464E+2
   4.26881E+2  -3.27617E+2
   3.73815E+2   2.52349E+1
  -4.38267E+1   3.72535E+2
  -2.51721E+2   1.68845E+2
  -7.34778E+1  -2.10664E+2
   2.69840E+2  -2.25652E+2
   2.08529E+2   7.01482E+1
  -2.30373E+2  -1.17367E+2
  -1.01967E+2  -4.12680E+2
   7.08583E+2  -6.66262E+1
   5.60134E+2   4.95683E+2
  -2.17604E+2   7.50268E+2
  -8.04648E+2   3.90093E+2
  -6.54308E+2  -2.25065E+2
  -1.44625E+2  -2.79250E+2
   2.63922E+2  -1.62440E+2
   1.15929E+2   3.63682E+1
   9.11607E+1   7.73978E+1
   2.35927E+2  -1.97749E+2
   3.61209E+2  -4.36922E+1
   4.75233E+1   4.95748E+2
  -5.31950E+2   5.63427E+2
  -5.48670E+2  -3.01670E+2
   1.94399E+2  -4.91073E+2
   4.97504E+2   7.88703E+1
   3.89358E+1   2.61563E+2
  -1.70015E+2   3.39921E+2
  -4.85633E+2  -1.35479E+2
   1.11741E+2   5.28449E+1
   1.82659E+1   1.91670E+1
  -2.06539E+2   3.25156E+1
  -3.77902E+2  -2.26252E+1
  -2.28322E+2  -2.53607E+2
   3.92946E+2   2.37557E+2
  -3.48723E+1   1.35140E+2
  -1.22871E+2   1.63225E+2
  -3.98839E+2  -1.99510E+2
   3.38951E+2  -2.60026E+2
   3.15792E+2   1.94670E+2
   5.72564E+1   3.72512E+2
  -2.66308E+2   3.48578E+2
  -4.23702E+2  -2.20083E+1
   1.21788E+2  -8.96869E+1
   1.20714E+1   3.11284E+2
  -2.26642E+2   1.09764E+2
  -2.87366E+2  -2.06670E+2
   1.76231E+2  -2.88652E+2
   2.89774E+2   1.64317E+2
  -1.20968E+2   5.05546E+2
  -9.84333E+1   4.45855E+2
  -3.20189E+2  -9.38535E+1
  -2.60531E+2  -3.28255E+2
   3.98480E+2  -1.99261E+2
   3.80274E+2   4.90367E+1
   1.15524E+2   2.72057E+2
  -9.24072E+1  -1.74311E+1
  -1.52389E+2   2.32417E+2
   8.62663E+1   4.12840E+2
  -5.41633E+2   3.26509E+2
  -5.57482E+2  -1.34310E+2
   2.07178E+2  -6.16370E+2
   4.25141E+2  -2.89554E+2
   3.58877E+2   2.08096E+2
  -2.67952E+0   2.76905E+2
  -4.96030E+2   1.77199E+2
  -1.37611E+2  -1.57564E+2
   3.15184E+1  -1.34439E+2
   7.65685E+1  -6.99127E+1
   1.40386E+2  -3.04381E+1
  -2.29860E+1  -2.45616E+2
   1.51126E+2   9.23103E+1
   3.47859E+2   2.81594E+2
  -2.46112E+2   5.12539E+2
  -4.58092E+2   1.77512E+2
  -1.49260E+2  -3.82916E+2
   1.41599E+2  -1.82123E+2
  -7.95225E+1   8.67330E+1
  -1.94571E+2   4.56432E+2
   5.85926E+1   1.43856E+2
   4.86777E+1  -1.05015E+1
   1.39334E+2   2.07705E+2
  -3.80883E+2   3.94447E+2
  -4.82368E+2   1.87711E+2
  -3.29709E+2  -5.73584E+2
   3.80086E+2  -3.77531E+2
   4.66895E+2   1.40401E+2
   3.02610E+2   4.59285E+2
  -3.59402E+2   1.23652E+0
  -1.27077E+2   9.37667E+1
   1.74087E+2   1.79675E+2
  -8.54457E+1   2.32792E+2
  -1.47595E+1   1.54186E+2
  -3.27047E+1  -9.77611E+1
   1.38407E+2   2.84168E+1
   4.62146E+2   4.06356E+1
  -2.41401E+2   4.94652E+2
  -2.76106E+2   3.15186E+2
  -3.20314E+2  -2.51131E+2
   2.76948E+2  -6.06220E+0
   4.91083E+1   2.84732E+2
  -1.85762E+2   5.36609E+2
  -3.04608E+2   1.04544E+2
  -4.12208E+2  -1.97409E+2
   1.88437E+1  -2.72277E+2
  -1.76040E+2  -1.87315E+1
  -1.00897E+1   1.63353E+2
  -1.81089E+2  -9.29818E+1
   1.55537E+2   6.78786E+1
   4.36302E+2   5.88969E+0
  -2.46621E+1   4.99340E+2
   1.89606E+1   2.83156E+2
  -1.51716E+2   1.79271E+2
  -1.61457E+2  -2.07074E+2
   3.20308E+2   1.47063E+2
   5.00353E+1   2.29434E+2
  -3.63287E+2   3.51894E+1
   1.02358E+2  -1.61248E+2
   1.20796E+2   1.69636E+2
  -1.16786E+1   4.73825E+2
  -2.92339E+2   1.30655E+2
  -2.11425E+2  -2.58845E+2
   4.80000E+1  -1.32480E+2
   3.84820E+2   2.15955E+2
   7.71137E+1   5.37322E+2
  -2.32247E+2   3.54054E+2
  -3.94959E+2  -2.76722E+0
  -4.72835E+1  -6.10403E+1
   1.82771E+2  -5.43638E+1
   7.89072E+1   1.50807E+2
  -1.57661E+2  -1.56299E+2
   1.60814E+2  -3.49559E+1
   4.91997E+2   1.86872E+2
  -2.51481E+1   5.52852E+2
  -1.67789E+2   5.81820E+2
  -4.91636E+2   1.38886E+2
  -1.61303E+2  -2.52516E+2
   1.39243E+2  -3.64042E+2
   1.34519E+2   2.05950E+2
  -2.89825E+1   4.22802E+1
  -3.05877E+2   6.89614E+1
  -1.40283E+1   1.12578E+2
   2.02173E+2   1.36905E+2
  -2.12902E+1   1.57348E+2
  -8.92384E+1  -2.06585E+2
   1.81595E+2  -1.01043E+2
   4.50242E+2   5.54784E+1
   2.32213E+2   2.00144E+2
  -2.54078E+1   3.30346E+2
  -4.98041E+2  -5.50033E+1
  -1.27961E+2   2.86732E+1
   1.20017E+2   1.65401E+0
   1.05492E+1   3.90596E+2
  -6.86393E+1  -1.87804E+2
  -2.26157E+2  -2.29145E+2
   2.71736E+2   5.67084E+1
   1.33339E+2   3.20278E+2
  -2.82817E+2   5.35588E+2
  -5.01882E+2  -6.43240E+1
  -3.64221E+2  -2.81462E+2
   2.58543E+2  -3.83164E+2
   2.61475E+2  -1.00626E+2
   5.00500E+0   2.33068E+2
  -1.50622E+2   2.60231E+2
   1.12514E+0   2.00859E+1
