 
 $NMID
 ID=''
 FMTDAT='(2E13.5)'
 TRAMP=   1.00000E+0
 VOLUME=   1.00000E+0
 $END
   6.95389E+5   3.30055E+5
   1.37035E+6   1.51094E+6
   1.48158E+6   1.33448E+6
   1.35788E+6   1.31036E+6
   1.43153E+6   1.35092E+6
   1.49547E+6   1.23240E+6
   1.46173E+6   1.18760E+6
   1.49559E+6   1.20963E+6
   1.50608E+6   1.15926E+6
   1.46148E+6   1.15460E+6
   1.47437E+6   1.16378E+6
   1.47306E+6   1.12059E+6
   1.44422E+6   1.11681E+6
   1.44593E+6   1.12939E+6
   1.42626E+6   1.10555E+6
   1.39790E+6   1.10145E+6
   1.40762E+6   1.10082E+6
   1.40384E+6   1.06989E+6
   1.39160E+6   1.04886E+6
   1.40803E+6   1.02541E+6
   1.40213E+6   9.95439E+5
   1.38706E+6   9.81648E+5
   1.39223E+6   9.65958E+5
   1.38469E+6   9.41971E+5
   1.36515E+6   9.32740E+5
   1.36207E+6   9.15351E+5
   1.34967E+6   9.04417E+5
   1.32802E+6   9.08383E+5
   1.31295E+6   9.01065E+5
   1.30064E+6   8.81064E+5
   1.29024E+6   8.73155E+5
   1.28295E+6   8.56878E+5
   1.27081E+6   8.34098E+5
   1.26403E+6   8.17205E+5
   1.25900E+6   7.95168E+5
   1.25171E+6   7.66695E+5
   1.24849E+6   7.45007E+5
   1.24377E+6   7.26753E+5
   1.22792E+6   7.08655E+5
   1.21541E+6   6.94329E+5
   1.20438E+6   6.80573E+5
   1.18869E+6   6.68822E+5
   1.17279E+6   6.57085E+5
   1.15961E+6   6.44780E+5
   1.14450E+6   6.34392E+5
   1.13024E+6   6.26424E+5
   1.11641E+6   6.15157E+5
   1.10153E+6   6.01569E+5
   1.08816E+6   5.85270E+5
   1.07646E+6   5.69808E+5
   1.06356E+6   5.53812E+5
   1.05173E+6   5.37818E+5
   1.04056E+6   5.22545E+5
   1.02736E+6   5.09059E+5
   1.01282E+6   4.95363E+5
   9.99049E+5   4.82941E+5
   9.83315E+5   4.73191E+5
   9.66327E+5   4.62805E+5
   9.50693E+5   4.50077E+5
   9.37521E+5   4.38997E+5
   9.23186E+5   4.29617E+5
   9.07348E+5   4.18970E+5
   8.93328E+5   4.07057E+5
   8.78765E+5   3.96220E+5
   8.63388E+5   3.84945E+5
   8.47677E+5   3.72197E+5
   8.33860E+5   3.59318E+5
   8.19834E+5   3.47945E+5
   8.05052E+5   3.37282E+5
   7.90692E+5   3.27423E+5
   7.76027E+5   3.18104E+5
   7.60930E+5   3.09071E+5
   7.45899E+5   2.99424E+5
   7.31495E+5   2.90380E+5
   7.16810E+5   2.82110E+5
   7.01559E+5   2.73257E+5
   6.86596E+5   2.63785E+5
   6.72989E+5   2.54280E+5
   6.59148E+5   2.45340E+5
   6.44475E+5   2.36613E+5
   6.29774E+5   2.27688E+5
   6.16085E+5   2.18868E+5
   6.02179E+5   2.11210E+5
   5.88106E+5   2.04204E+5
   5.73544E+5   1.97378E+5
   5.59872E+5   1.91180E+5
   5.45690E+5   1.85077E+5
   5.32231E+5   1.79148E+5
   5.19050E+5   1.73044E+5
   5.05944E+5   1.67142E+5
   4.92790E+5   1.60906E+5
   4.80474E+5   1.54099E+5
   4.68641E+5   1.47532E+5
   4.56585E+5   1.41354E+5
   4.44420E+5   1.34220E+5
   4.32913E+5   1.27303E+5
   4.22101E+5   1.20865E+5
   4.11237E+5   1.14915E+5
   3.99636E+5   1.09225E+5
   3.89122E+5   1.03001E+5
   3.78573E+5   9.76051E+4
   3.68190E+5   9.32413E+4
   3.57657E+5   8.87197E+4
   3.47169E+5   8.35027E+4
   3.37331E+5   7.89208E+4
   3.27623E+5   7.43626E+4
   3.18249E+5   6.95115E+4
   3.09181E+5   6.52267E+4
   2.99838E+5   6.14352E+4
   2.90484E+5   5.63976E+4
   2.81750E+5   5.13563E+4
   2.73736E+5   4.71137E+4
   2.65529E+5   4.36376E+4
   2.57117E+5   3.98779E+4
   2.48955E+5   3.60692E+4
   2.41480E+5   3.24625E+4
   2.33595E+5   2.94204E+4
   2.25925E+5   2.58018E+4
   2.18619E+5   2.22904E+4
   2.11697E+5   1.90784E+4
   2.04766E+5   1.58788E+4
   1.98105E+5   1.27455E+4
   1.91702E+5   9.73551E+3
   1.85029E+5   6.90172E+3
   1.78265E+5   4.21083E+3
   1.72308E+5   1.20725E+3
   1.66114E+5  -1.23890E+3
   1.60299E+5  -3.66874E+3
   1.54179E+5  -5.73257E+3
   1.48493E+5  -7.81048E+3
   1.43334E+5  -9.44894E+3
   1.37814E+5  -1.15370E+4
   1.32304E+5  -1.32463E+4
   1.27074E+5  -1.52301E+4
   1.21589E+5  -1.71805E+4
   1.16999E+5  -1.87142E+4
   1.12058E+5  -2.04523E+4
   1.07520E+5  -2.22041E+4
   1.03162E+5  -2.37893E+4
   9.85478E+4  -2.53777E+4
   9.43153E+4  -2.68796E+4
   9.02939E+4  -2.82830E+4
   8.57745E+4  -2.92477E+4
   8.18731E+4  -3.05076E+4
   7.79985E+4  -3.15535E+4
   7.43599E+4  -3.26133E+4
   7.05622E+4  -3.35248E+4
   6.70027E+4  -3.44925E+4
   6.35416E+4  -3.51987E+4
   6.01153E+4  -3.59196E+4
   5.69951E+4  -3.65371E+4
   5.33877E+4  -3.71890E+4
   5.00189E+4  -3.80351E+4
   4.70949E+4  -3.81930E+4
   4.38880E+4  -3.90606E+4
   4.11237E+4  -3.95019E+4
   3.82523E+4  -3.98217E+4
   3.52295E+4  -4.01958E+4
   3.27577E+4  -4.03794E+4
   3.01283E+4  -4.08896E+4
   2.74665E+4  -4.11426E+4
   2.50556E+4  -4.12017E+4
   2.29061E+4  -4.10846E+4
   2.05184E+4  -4.13378E+4
   1.81170E+4  -4.11521E+4
   1.60545E+4  -4.10523E+4
   1.38218E+4  -4.09894E+4
   1.18104E+4  -4.06994E+4
   9.62056E+3  -4.07188E+4
   7.67993E+3  -4.03207E+4
   5.99725E+3  -4.01816E+4
   3.99476E+3  -3.99237E+4
   2.12476E+3  -3.92657E+4
   7.49504E+2  -3.93359E+4
  -1.45680E+3  -3.88399E+4
  -2.87191E+3  -3.82190E+4
  -4.37820E+3  -3.77122E+4
  -5.78742E+3  -3.71706E+4
  -7.02361E+3  -3.67965E+4
  -8.51395E+3  -3.60638E+4
  -9.96250E+3  -3.54456E+4
  -1.13099E+4  -3.46197E+4
  -1.21465E+4  -3.44255E+4
  -1.35415E+4  -3.39816E+4
  -1.46741E+4  -3.30375E+4
  -1.56712E+4  -3.24471E+4
  -1.68112E+4  -3.14820E+4
  -1.75046E+4  -3.11384E+4
  -1.86265E+4  -3.02468E+4
  -1.97645E+4  -2.91761E+4
  -2.08765E+4  -2.88454E+4
  -2.16719E+4  -2.81888E+4
  -2.23340E+4  -2.72623E+4
  -2.27440E+4  -2.66973E+4
  -2.38298E+4  -2.57889E+4
  -2.45085E+4  -2.52693E+4
  -2.50152E+4  -2.43315E+4
  -2.58353E+4  -2.38446E+4
  -2.61433E+4  -2.32352E+4
  -2.67180E+4  -2.25713E+4
  -2.72772E+4  -2.18406E+4
  -2.76684E+4  -2.13241E+4
  -2.79207E+4  -2.04725E+4
  -2.84108E+4  -2.00704E+4
  -2.91005E+4  -1.93185E+4
  -2.96313E+4  -1.90298E+4
  -2.98789E+4  -1.86843E+4
  -3.02602E+4  -1.76256E+4
  -3.05940E+4  -1.73046E+4
  -3.12171E+4  -1.68953E+4
  -3.14881E+4  -1.64665E+4
  -3.16544E+4  -1.59119E+4
  -3.21138E+4  -1.54057E+4
  -3.25344E+4  -1.52975E+4
  -3.28514E+4  -1.45806E+4
  -3.29393E+4  -1.42146E+4
  -3.34426E+4  -1.38866E+4
  -3.36519E+4  -1.33614E+4
  -3.41253E+4  -1.30696E+4
  -3.43937E+4  -1.28191E+4
  -3.47083E+4  -1.26536E+4
  -3.50236E+4  -1.22010E+4
  -3.54266E+4  -1.19010E+4
  -3.57297E+4  -1.16568E+4
  -3.59686E+4  -1.14828E+4
  -3.59797E+4  -1.10603E+4
  -3.62364E+4  -1.07917E+4
  -3.67585E+4  -1.04172E+4
  -3.69934E+4  -9.96584E+3
  -3.73831E+4  -9.95912E+3
  -3.73663E+4  -9.71768E+3
  -3.75505E+4  -9.57357E+3
  -3.77574E+4  -8.97928E+3
  -3.80462E+4  -9.13768E+3
  -3.79327E+4  -8.56770E+3
  -3.84378E+4  -8.31433E+3
  -3.87065E+4  -8.32862E+3
  -3.88531E+4  -7.96990E+3
  -3.89967E+4  -7.89154E+3
  -3.89502E+4  -7.61645E+3
  -3.91306E+4  -7.24857E+3
  -3.91125E+4  -6.99147E+3
  -3.91933E+4  -6.71561E+3
  -3.96582E+4  -6.63953E+3
  -3.95464E+4  -6.32593E+3
  -3.96716E+4  -6.21161E+3
  -3.99360E+4  -6.26478E+3
  -3.97805E+4  -5.83881E+3
  -3.98454E+4  -5.46452E+3
  -3.96823E+4  -5.35581E+3
  -3.98471E+4  -4.70516E+3
  -3.96748E+4  -4.88352E+3
  -3.97695E+4  -4.63015E+3
  -3.95037E+4  -4.39028E+3
  -3.93690E+4  -4.23845E+3
  -3.93010E+4  -4.01403E+3
  -3.93999E+4  -3.94083E+3
  -3.91438E+4  -3.78639E+3
  -3.88921E+4  -3.55143E+3
  -3.88763E+4  -3.58681E+3
  -3.85627E+4  -3.65992E+3
  -3.85253E+4  -3.50974E+3
  -3.80146E+4  -3.43602E+3
  -3.77017E+4  -3.30826E+3
  -3.76252E+4  -3.01604E+3
  -3.75474E+4  -3.01554E+3
  -3.71893E+4  -3.03265E+3
  -3.67583E+4  -2.81152E+3
  -3.64527E+4  -2.74647E+3
  -3.61873E+4  -2.83163E+3
  -3.57590E+4  -2.66843E+3
  -3.56941E+4  -2.58445E+3
  -3.51372E+4  -2.47999E+3
  -3.49821E+4  -2.54077E+3
  -3.46074E+4  -2.48652E+3
  -3.44489E+4  -2.38663E+3
  -3.38472E+4  -2.37160E+3
  -3.34252E+4  -2.29991E+3
  -3.29221E+4  -2.36189E+3
  -3.26735E+4  -2.35302E+3
  -3.22311E+4  -2.19117E+3
  -3.21560E+4  -2.30054E+3
  -3.15068E+4  -2.26130E+3
  -3.10020E+4  -2.02307E+3
  -3.06214E+4  -2.41941E+3
  -3.02484E+4  -2.50952E+3
  -2.95210E+4  -2.07057E+3
  -2.92559E+4  -1.85154E+3
  -2.91115E+4  -1.76300E+3
  -2.87684E+4  -1.97003E+3
  -2.80143E+4  -1.90955E+3
  -2.75396E+4  -2.09550E+3
  -2.70813E+4  -1.79694E+3
  -2.67964E+4  -1.97751E+3
  -2.63217E+4  -1.83149E+3
  -2.61140E+4  -1.63034E+3
  -2.55046E+4  -1.68259E+3
  -2.50651E+4  -1.62485E+3
  -2.47572E+4  -1.36659E+3
  -2.45067E+4  -1.81849E+3
  -2.35960E+4  -1.34305E+3
  -2.33669E+4  -1.32645E+3
  -2.28884E+4  -1.25611E+3
  -2.24681E+4  -1.24565E+3
  -2.21006E+4  -1.08714E+3
  -2.17398E+4  -7.89721E+2
  -2.13412E+4  -9.67610E+2
  -2.09764E+4  -7.54119E+2
  -2.04842E+4  -5.65585E+2
  -2.00706E+4  -5.75749E+2
  -1.96955E+4  -4.89534E+2
  -1.94756E+4  -1.94822E+2
  -1.93116E+4  -3.49997E+2
  -1.86723E+4  -2.52055E+2
  -1.82188E+4  -1.27682E+2
  -1.79013E+4   5.61183E+1
  -1.75454E+4   4.80539E+2
  -1.70423E+4   5.73770E+2
  -1.66610E+4   3.15344E+2
  -1.61775E+4   5.96726E+2
  -1.60360E+4   8.75052E+2
  -1.59589E+4   9.74973E+2
  -1.54333E+4   1.10550E+3
  -1.50351E+4   1.38576E+3
  -1.45135E+4   1.73478E+3
  -1.41963E+4   1.69342E+3
  -1.37630E+4   1.81883E+3
  -1.33812E+4   2.22879E+3
  -1.29874E+4   2.28608E+3
  -1.24805E+4   2.38271E+3
  -1.24248E+4   2.59395E+3
  -1.18739E+4   2.72744E+3
  -1.16395E+4   3.20858E+3
  -1.11778E+4   3.14164E+3
  -1.08952E+4   3.30099E+3
  -1.07613E+4   3.47955E+3
  -1.04650E+4   3.53283E+3
  -1.00311E+4   3.82883E+3
  -9.67358E+3   4.16847E+3
  -9.45686E+3   4.41822E+3
  -9.35508E+3   4.56104E+3
  -8.94230E+3   4.31258E+3
  -8.34859E+3   4.84562E+3
  -8.20973E+3   5.02750E+3
  -7.71450E+3   5.35965E+3
  -7.62507E+3   5.50128E+3
  -7.18231E+3   5.92618E+3
  -6.74936E+3   6.03056E+3
  -6.60433E+3   5.99964E+3
  -6.78637E+3   6.52364E+3
  -5.98158E+3   6.56020E+3
  -5.91156E+3   6.68118E+3
  -5.42021E+3   7.02563E+3
  -5.30139E+3   7.14754E+3
  -5.04669E+3   7.44405E+3
  -4.58027E+3   7.52589E+3
  -4.37445E+3   7.74476E+3
  -4.24179E+3   7.75013E+3
  -4.23647E+3   8.13224E+3
  -3.75765E+3   8.21651E+3
  -3.59578E+3   8.36210E+3
  -3.31086E+3   8.51535E+3
  -3.16576E+3   8.73183E+3
  -2.97258E+3   8.68665E+3
  -2.86694E+3   9.01923E+3
  -2.65737E+3   9.17823E+3
  -2.20909E+3   9.47323E+3
