 
 $NMID
 ID=''
 FMTDAT='(2E13.5)'
 TRAMP=   1.00000E+0
 VOLUME=   1.00000E+0
 $END
   1.90292E+4  -1.85297E+4
   5.14251E+3  -3.91267E+4
  -3.20869E+4  -1.00982E+4
  -2.95951E+3   3.35110E+4
   2.81494E+4   4.30589E+3
  -2.81735E+3  -2.72024E+4
  -2.01103E+4   4.68533E+3
   9.47406E+3   1.99532E+4
   1.69219E+4  -6.76060E+3
  -5.64827E+3  -9.43453E+3
  -1.03724E+4   8.63241E+3
   1.70915E+3   5.76285E+3
   5.96629E+3  -3.42064E+3
  -1.33006E+3  -1.27006E+3
  -6.51197E+3   9.25310E+2
   1.12773E+2  -1.02701E+3
   6.29006E+3  -1.22207E+3
   4.64589E+2   3.94374E+2
  -3.71785E+3   7.76051E+2
   7.95064E+2  -9.04296E+2
   2.12420E+3  -1.01707E+3
   2.90105E+2  -4.18530E+2
   6.55138E+2  -1.96747E+1
  -5.36879E+2   4.77174E+2
  -6.38759E+2  -2.60799E+2
   2.32772E+3  -1.01516E+3
   1.71406E+3   8.19390E+2
  -1.27083E+3   1.54898E+3
  -1.19361E+3  -1.16422E+3
   9.78694E+2  -4.19493E+2
   6.50871E+2   1.52545E+3
  -7.64126E+2  -2.24838E+2
  -9.17538E+2  -8.52760E+2
  -8.31164E+2  -1.76386E+2
  -6.23870E+2  -2.26382E+3
   1.88040E+3  -2.76712E+3
   2.44764E+3   1.09013E+3
  -5.62183E+2   2.23878E+3
  -1.45235E+3  -5.15031E+2
   5.81189E+2  -6.01705E+2
  -1.14775E+2   8.29633E+2
  -1.54924E+3  -6.62475E+2
   3.72676E+2  -2.33577E+3
   2.03712E+3  -8.29229E+2
   1.43085E+3   9.31798E+2
   4.88675E+2   1.12791E+3
   1.81152E+2   7.69469E+2
  -1.22144E+3   3.42339E+2
  -1.61650E+3  -4.92830E+2
  -5.23706E+2  -1.60977E+3
   4.90667E+2  -1.02090E+3
   4.83590E+2  -4.91019E+2
   4.99737E+2  -4.44677E+2
   3.44419E+2   2.05571E+1
   5.70530E+2   3.33423E+2
   4.85028E+1   7.10860E+2
  -9.75408E+2   4.25653E+2
  -4.86372E+2  -1.77085E+3
   1.00085E+3  -1.82421E+3
   1.42448E+3  -1.85060E+2
   6.57930E+2   7.06623E+2
   6.94247E+2   4.97627E+1
   9.07922E+2   7.36088E+2
  -8.90945E+2   1.72035E+3
  -2.24342E+3   5.36611E+2
  -1.26903E+3  -1.55121E+3
   2.13889E+2  -1.55075E+3
   9.01816E+2  -1.08318E+3
   9.74643E+2  -4.61084E+2
   6.23146E+2  -5.15327E+1
  -2.53578E+2   5.75044E+1
  -2.99385E+2  -4.65937E+2
   1.11674E+3  -1.56270E+1
   1.00265E+3   5.06811E+2
  -3.92964E+2   5.82147E+2
  -3.99201E+2  -6.53088E+1
   1.14281E+2  -1.25399E+2
   4.17451E+2   4.52133E+2
  -1.66941E+2   4.52773E+2
  -6.12556E+2   7.57206E+1
  -4.92768E+2  -4.07698E+2
   7.95993E+1  -6.30224E+2
   1.02282E+2  -5.95847E+1
  -1.47773E+2   8.29158E+1
   5.49268E+1  -6.92732E+2
   3.73005E+2  -6.76526E+2
   8.02953E+2   3.98627E+1
   3.08164E+2   3.77816E+2
   6.73686E+1   3.36373E+0
   2.02929E+2  -1.75768E+2
   6.58953E+2   3.69795E+2
   3.44827E+2   9.02589E+2
  -1.76306E+2   9.43477E+2
  -1.08106E+3   6.37572E+2
  -9.44541E+2  -5.86297E+2
   2.57464E+2  -8.97664E+2
   9.09723E+2  -1.73130E+1
   3.76621E+2   1.65694E+2
  -1.43954E+2  -5.25026E+1
   5.20055E+2  -6.53061E+2
   7.15554E+2   5.60028E+2
   3.62268E+2   1.25070E+3
  -7.42369E+2   2.51349E+2
  -7.21553E+2  -9.30714E+2
   2.56173E+2  -7.97457E+2
   1.05171E+3   3.27885E+2
   6.17939E+1   7.87705E+2
  -9.79842E+2   1.36689E+2
  -6.23055E+2  -1.06413E+3
   7.91890E+2  -1.02990E+3
   1.16396E+3   6.29794E+1
   5.29354E+2   6.99107E+2
   4.06195E+1   8.24170E+2
   9.46862E+1   4.34090E+2
   1.39357E+2   2.66314E+2
  -3.37656E+2   6.43674E+2
  -9.65658E+2   3.00611E+2
  -8.11325E+2  -3.07116E+2
  -2.52422E+2  -1.21780E+3
   5.71545E+2  -1.00469E+3
   8.72165E+2  -1.82641E+2
   6.30793E+2   6.96495E+2
   1.28396E+2   4.32803E+2
   4.31623E+1   6.64820E+2
  -3.18170E+2   4.74966E+2
  -4.44941E+2   4.58346E+1
  -5.18323E+2  -2.50600E+2
   8.42939E+1  -4.09786E+2
   3.52236E+2   2.91833E+2
   3.31105E+2   5.49681E+2
  -3.67400E+2   7.34595E+2
  -7.58006E+2  -9.01969E+1
  -5.53672E+1  -4.09239E+2
   3.68722E+2   1.58693E+2
  -2.34186E+2   1.23755E+2
  -2.24336E+2  -4.01630E+2
   2.57660E+2  -2.53828E+2
   3.78286E+2   3.56181E+2
  -9.32547E+0   6.18882E+2
  -7.07116E+2   4.26033E+2
  -5.30199E+2  -1.59475E+2
  -1.20261E+2  -6.10565E+2
   6.58521E+2  -2.20067E+1
   7.20000E+2   5.75619E+2
  -4.30880E+2   8.84165E+2
  -5.28880E+2   3.25830E+2
  -4.97512E+2  -1.47811E+2
  -1.17136E+2   2.74350E+1
  -2.16674E+2  -8.05737E+1
  -2.79708E+2  -3.20184E+2
   9.35234E+1  -5.37975E+2
   5.22273E+2  -3.82729E+2
   6.15818E+2   4.17624E+2
   3.28189E+2   6.54432E+2
  -3.30472E+2   3.33184E+1
  -2.79819E+2  -1.71511E+2
   3.55385E+2   7.34510E+1
   2.50058E+2   3.42685E+2
  -1.64384E+2   2.48141E+2
  -3.80901E+1  -1.71676E+2
  -1.18492E+2   1.33058E+2
  -2.67206E+2   3.32350E+2
  -1.50408E+2   1.54568E+2
  -3.77495E+2  -2.27112E+2
  -2.36571E+1  -5.83016E+2
   3.06792E+2  -1.75395E+2
   3.18065E+2   1.44701E+2
  -6.99780E+1   3.12609E+2
  -2.12158E+2   2.81917E+2
   1.56755E+2  -1.08977E+2
   2.66786E+2  -7.14361E+0
   1.91752E+2   1.39514E+2
  -2.42809E+2   3.03768E+2
  -2.57367E+2  -9.13082E+1
   1.72491E+2  -2.87431E+2
   1.55480E+2   4.87038E+1
  -1.58319E+2   4.57687E+2
  -5.09065E+2   5.51528E+1
  -1.23051E+2  -4.42892E+2
   3.47267E+2  -3.52313E+2
   3.67899E+2   4.05298E+2
  -1.38408E+2   3.93106E+2
  -5.17071E+2  -4.40402E+1
  -1.53732E+2  -9.79990E+1
  -1.27134E+2  -2.57720E+2
  -2.34502E+1  -1.20162E+2
  -3.00090E+2   1.34475E+1
   1.09472E+1  -4.69480E+2
   5.39492E+2  -3.14859E+2
   7.21521E+2   2.62304E+2
   2.70239E+2   8.08103E+2
  -5.65980E+2   4.42683E+2
  -6.65486E+2  -1.37879E+2
  -3.20690E+2  -3.49463E+2
   1.65994E+2  -7.24806E+1
   1.70660E+2   2.93292E+1
  -1.33065E+2   5.38072E+1
  -1.22258E+2  -8.90045E+1
   7.92073E+1   4.94116E+1
  -1.55445E+2   9.50656E+1
  -4.09971E+2  -3.72936E+1
  -1.61803E+2  -4.32993E+2
   2.18119E+2  -4.77142E+2
   1.89160E+2  -2.59140E+2
   1.30691E+2   2.32970E+2
  -2.16299E+2   1.30656E+2
  -1.97350E+2  -1.68389E+2
   2.36848E+1  -2.40223E+2
   4.39535E+2   1.79810E+1
   1.55993E+1   1.88459E+2
  -3.21301E+2  -2.12307E+2
   1.71129E+2  -2.31779E+2
   2.94181E+2   2.41570E+2
  -1.69230E+2   5.19945E+2
  -4.67298E+2   4.78369E+2
  -6.27083E+2  -2.72386E+2
   1.95510E+1  -5.19147E+2
   3.84794E+2  -2.74009E+2
   1.03289E+2  -1.49858E+2
   5.55540E+1  -9.53459E+1
   1.00769E+2  -7.86060E+1
   1.84273E+2   2.97456E+1
   7.30803E+0   2.54595E+2
  -5.61025E+2   1.90363E+2
  -6.64350E+2  -1.09333E+2
  -2.30703E+2  -6.36190E+2
   3.75191E+2  -3.61428E+2
   2.17451E+2   2.99428E+2
   2.95396E+1   2.37102E+2
  -3.62715E+2   1.10949E+2
  -2.01061E+2  -5.20841E+2
  -7.84497E+1  -8.22387E+1
   1.15529E+2  -4.52980E+1
  -4.06811E+2   8.43326E+1
  -1.01769E+2  -2.34770E+2
  -1.59875E+2  -1.89161E+2
   1.14875E+2  -1.55325E+2
  -1.25939E+2   5.23041E+1
  -3.81271E+2  -8.84077E+1
  -1.15961E+1  -2.50068E+2
   5.93307E+1  -1.62916E+2
  -8.17113E+1   4.06843E+2
  -2.97541E+2   3.50165E+2
  -5.01419E+2  -8.90243E+1
  -1.77186E+2  -7.28279E+1
   3.31004E+2   2.42252E+1
  -5.40209E+1   1.62956E+2
  -4.51467E+2  -5.01889E+1
  -1.51760E+2  -5.66569E+2
   3.15729E+2  -1.61366E+2
   1.65576E+2   2.53393E+2
  -3.00584E+2   1.73842E+2
  -3.50994E+2  -1.27783E+2
   3.62477E+1  -5.18702E+2
   2.55014E+2  -2.78496E+2
   4.33897E+2  -8.99884E+0
  -2.46464E+1   2.46041E+2
  -2.68112E+2   1.07729E+2
  -1.56504E+2  -8.54535E+1
  -2.12506E+2   7.53163E+1
  -3.00196E+2   1.13261E+2
  -2.30550E+2  -6.50589E+1
  -2.76001E+2  -3.80086E+2
   3.20557E+2  -4.62650E+2
   2.80503E+2   1.86450E+2
  -6.00458E+1   3.75331E+2
  -3.86236E+2   6.38552E+1
  -2.20894E+2  -2.88411E+2
  -2.51620E+1  -3.43918E+2
   3.51519E+1  -9.89801E+1
  -5.50841E+0   1.56593E+1
   1.21840E+2  -1.62141E+2
   3.84689E+0  -2.87885E+2
   1.87274E+0  -1.87535E+1
  -8.16150E+1   1.51601E+2
  -2.90841E+2  -3.88117E+1
  -3.34680E+2  -1.12794E+2
   1.01520E+2  -3.12208E+2
   1.67838E+2  -1.24616E+2
  -1.29553E+2   1.54014E+2
  -2.78484E+2   1.09658E+2
  -9.73013E+1  -3.12101E+1
   1.60718E+2  -1.59371E+2
   9.62963E+0  -9.13944E+1
  -4.10879E+2  -7.81154E+1
  -2.51363E+2  -4.36776E+2
   1.13400E+2  -3.25401E+2
   3.35332E+2  -5.69033E+1
   3.80412E+1   2.25171E+2
  -2.65812E+2   2.75087E+2
  -3.31468E+2  -2.13492E+2
  -4.65635E+1  -1.61212E+2
  -2.51872E+1  -9.16006E+1
  -1.78376E+1  -1.68296E+2
  -3.53171E+2  -1.58575E+2
  -1.40757E+2  -2.99066E+2
   1.27427E+2   1.05799E+1
  -4.25449E+1   2.23063E+2
  -1.73456E+2   2.92303E+2
  -2.30051E+2  -2.10849E+2
  -8.68135E+1  -3.88357E+2
   3.34767E+1  -1.76552E+2
  -1.31097E+2   2.17719E+2
  -4.00977E+2  -1.26114E+2
  -2.57473E+2  -2.78741E+2
  -1.27492E+2  -4.57416E+2
  -4.04146E+1  -1.48690E+2
  -1.02197E+2  -1.82285E+1
  -2.54676E+2   2.04719E+2
   6.01747E+1  -6.79580E+1
   3.41615E+1  -1.04297E+2
   1.81278E+2  -3.73645E+1
  -3.32059E+2   5.26170E+1
  -2.46349E+2   3.29948E+1
  -2.79039E+2  -2.90161E+2
  -2.85892E+1  -6.68486E-1
  -5.84042E+1   1.72841E+2
  -3.32924E+2   3.09266E+2
  -1.43712E+2  -3.55957E+2
  -9.62604E+1  -4.94107E+2
   8.88300E+0   7.05446E+1
  -2.37242E+2   2.82940E+2
  -1.91264E+2  -4.52418E+2
   1.42268E+2  -4.29638E+2
   2.28546E+2  -7.48378E+1
   7.47703E+0   2.36270E+2
  -1.49134E+2   2.18440E+2
  -4.26477E+2  -3.33994E+2
  -8.86153E+1  -3.35947E+2
   8.68765E+1  -3.26297E+2
  -7.78070E+1   1.24833E+2
  -5.35411E+1  -1.28382E+2
  -2.22295E+2  -4.94558E+1
  -1.09605E+2  -7.01169E+1
  -3.84719E+0   1.77975E+2
  -2.43017E+2   1.92171E+2
  -2.42234E+2  -9.26479E+1
  -1.17070E+2  -5.07972E+2
  -1.46142E+1  -2.48899E+2
   2.92880E+2   1.29486E+2
  -9.54371E+1   1.71687E+2
  -6.18126E+1  -2.40063E+1
  -6.39121E+1   6.86563E+0
   3.80173E+1  -1.15660E+2
  -6.29206E+0  -3.79463E+1
  -1.68869E+2  -2.03769E+2
  -8.62945E+1  -2.96043E+1
   2.66829E+2  -2.53274E+2
   2.41558E+2  -6.71351E+1
  -2.35201E+2   2.84412E+2
  -7.75362E+1  -2.88021E+1
  -3.04735E+2  -1.51119E+2
  -8.14808E+1  -1.96890E+2
   7.22021E+1   7.04154E+0
  -7.83018E+1   6.33712E+1
  -1.86324E+2  -1.47186E+2
   9.81506E+1  -3.10229E+2
   1.74957E+2  -3.68015E+1
  -2.03989E+2   1.76631E+2
  -1.86672E+2  -3.36630E+1
  -3.68523E+2  -1.97325E+2
  -3.84460E+1  -3.40182E+2
  -5.06859E+1  -1.99831E+2
   2.30082E+1   3.72079E+2
  -7.78884E+1   2.06648E+2
  -2.53187E+2  -5.16753E+0
  -8.63210E+1  -3.35573E+2
