 
 $NMID
 ID=''
 FMTDAT='(2E13.5)'
 TRAMP=   1.00000E+0
 VOLUME=   1.00000E+0
 $END
   7.29410E+5   1.96463E+5
   1.57456E+6   1.13671E+6
   1.61713E+6   9.45597E+5
   1.49351E+6   1.01768E+6
   1.58287E+6   1.07196E+6
   1.55338E+6   9.62094E+5
   1.45345E+6   9.99302E+5
   1.51838E+6   1.06513E+6
   1.53801E+6   9.88625E+5
   1.46087E+6   9.83624E+5
   1.45850E+6   1.02530E+6
   1.46204E+6   1.00133E+6
   1.43439E+6   9.96256E+5
   1.42993E+6   9.99292E+5
   1.40387E+6   9.82788E+5
   1.38066E+6   9.91945E+5
   1.39206E+6   9.97251E+5
   1.36805E+6   9.82412E+5
   1.33778E+6   9.94242E+5
   1.34304E+6   9.95318E+5
   1.32358E+6   9.83066E+5
   1.29712E+6   9.91290E+5
   1.29514E+6   9.92119E+5
   1.27997E+6   9.82864E+5
   1.25567E+6   9.88364E+5
   1.25144E+6   9.81143E+5
   1.23785E+6   9.73624E+5
   1.22211E+6   9.78436E+5
   1.21203E+6   9.74150E+5
   1.19653E+6   9.64419E+5
   1.18254E+6   9.69482E+5
   1.17324E+6   9.65580E+5
   1.15514E+6   9.60806E+5
   1.14050E+6   9.62905E+5
   1.13050E+6   9.57768E+5
   1.11751E+6   9.51653E+5
   1.10602E+6   9.56043E+5
   1.09386E+6   9.56029E+5
   1.07688E+6   9.49968E+5
   1.06598E+6   9.48203E+5
   1.05503E+6   9.45737E+5
   1.04003E+6   9.40952E+5
   1.02808E+6   9.35513E+5
   1.01944E+6   9.31711E+5
   1.00626E+6   9.29568E+5
   9.94776E+5   9.28592E+5
   9.81808E+5   9.25470E+5
   9.66070E+5   9.25162E+5
   9.51615E+5   9.24219E+5
   9.39067E+5   9.21354E+5
   9.25212E+5   9.19617E+5
   9.11837E+5   9.19951E+5
   8.99961E+5   9.18799E+5
   8.86436E+5   9.17533E+5
   8.72914E+5   9.15832E+5
   8.59849E+5   9.14906E+5
   8.46856E+5   9.13583E+5
   8.32677E+5   9.09806E+5
   8.20159E+5   9.05443E+5
   8.09923E+5   9.03691E+5
   7.97860E+5   9.02935E+5
   7.84469E+5   9.00473E+5
   7.71350E+5   8.98011E+5
   7.58582E+5   8.96937E+5
   7.44448E+5   8.94951E+5
   7.30226E+5   8.90569E+5
   7.17026E+5   8.86549E+5
   7.05390E+5   8.83760E+5
   6.93356E+5   8.82799E+5
   6.79467E+5   8.81488E+5
   6.65919E+5   8.78446E+5
   6.54179E+5   8.74303E+5
   6.43073E+5   8.71762E+5
   6.30493E+5   8.69687E+5
   6.17044E+5   8.66759E+5
   6.04940E+5   8.62778E+5
   5.93145E+5   8.59559E+5
   5.80450E+5   8.56932E+5
   5.67377E+5   8.53977E+5
   5.54556E+5   8.50385E+5
   5.41478E+5   8.46939E+5
   5.28812E+5   8.43190E+5
   5.17075E+5   8.39628E+5
   5.04459E+5   8.36444E+5
   4.91544E+5   8.32671E+5
   4.79481E+5   8.28567E+5
   4.68634E+5   8.24162E+5
   4.57446E+5   8.20109E+5
   4.45670E+5   8.15809E+5
   4.35122E+5   8.10588E+5
   4.25276E+5   8.05210E+5
   4.15380E+5   8.00933E+5
   4.04035E+5   7.96901E+5
   3.93088E+5   7.91527E+5
   3.82223E+5   7.85346E+5
   3.73227E+5   7.79460E+5
   3.63543E+5   7.74753E+5
   3.53771E+5   7.69953E+5
   3.44065E+5   7.64257E+5
   3.34903E+5   7.58799E+5
   3.26197E+5   7.53695E+5
   3.16304E+5   7.48684E+5
   3.06655E+5   7.42304E+5
   2.97424E+5   7.35598E+5
   2.89943E+5   7.29392E+5
   2.82742E+5   7.23690E+5
   2.74764E+5   7.18068E+5
   2.65655E+5   7.11595E+5
   2.57479E+5   7.04291E+5
   2.50530E+5   6.96821E+5
   2.44071E+5   6.90969E+5
   2.36120E+5   6.85263E+5
   2.27666E+5   6.79227E+5
   2.19156E+5   6.72722E+5
   2.11518E+5   6.65960E+5
   2.03697E+5   6.59684E+5
   1.95090E+5   6.53275E+5
   1.87133E+5   6.45734E+5
   1.80306E+5   6.38041E+5
   1.74276E+5   6.30788E+5
   1.67484E+5   6.25034E+5
   1.60628E+5   6.18765E+5
   1.53905E+5   6.11800E+5
   1.46884E+5   6.04981E+5
   1.39498E+5   5.98550E+5
   1.32619E+5   5.91204E+5
   1.26002E+5   5.83888E+5
   1.19297E+5   5.77016E+5
   1.12529E+5   5.70476E+5
   1.05628E+5   5.64398E+5
   9.80412E+4   5.57815E+5
   9.05748E+4   5.50998E+5
   8.38330E+4   5.44042E+5
   7.76373E+4   5.37410E+5
   7.10976E+4   5.30717E+5
   6.44569E+4   5.23707E+5
   5.88322E+4   5.16682E+5
   5.26699E+4   5.10665E+5
   4.63435E+4   5.04659E+5
   4.00806E+4   4.98001E+5
   3.41462E+4   4.90941E+5
   2.89122E+4   4.83617E+5
   2.40802E+4   4.77137E+5
   1.89026E+4   4.71186E+5
   1.31325E+4   4.65244E+5
   7.52042E+3   4.58794E+5
   2.65054E+3   4.51894E+5
  -2.13265E+3   4.45329E+5
  -7.03074E+3   4.38761E+5
  -1.11036E+4   4.32359E+5
  -1.52953E+4   4.25691E+5
  -1.89397E+4   4.19452E+5
  -2.24542E+4   4.13925E+5
  -2.62983E+4   4.08370E+5
  -3.05176E+4   4.02067E+5
  -3.37851E+4   3.95809E+5
  -3.65497E+4   3.89993E+5
  -3.96541E+4   3.84324E+5
  -4.29351E+4   3.78618E+5
  -4.58621E+4   3.72525E+5
  -4.85579E+4   3.66975E+5
  -5.12768E+4   3.61289E+5
  -5.42655E+4   3.55270E+5
  -5.67395E+4   3.49353E+5
  -5.85742E+4   3.43854E+5
  -6.05433E+4   3.38302E+5
  -6.27155E+4   3.33083E+5
  -6.47468E+4   3.28074E+5
  -6.69574E+4   3.22520E+5
  -6.83000E+4   3.17118E+5
  -6.95506E+4   3.11807E+5
  -7.13354E+4   3.06824E+5
  -7.26442E+4   3.01903E+5
  -7.42404E+4   2.96571E+5
  -7.56990E+4   2.91221E+5
  -7.67216E+4   2.86348E+5
  -7.82905E+4   2.81968E+5
  -7.95951E+4   2.76173E+5
  -8.08726E+4   2.70650E+5
  -8.15874E+4   2.65784E+5
  -8.25639E+4   2.61468E+5
  -8.41433E+4   2.56786E+5
  -8.50738E+4   2.51804E+5
  -8.58834E+4   2.46778E+5
  -8.68841E+4   2.41904E+5
  -8.76718E+4   2.37464E+5
  -8.82154E+4   2.32728E+5
  -8.89854E+4   2.28035E+5
  -8.91892E+4   2.23490E+5
  -8.95669E+4   2.19391E+5
  -9.05677E+4   2.15302E+5
  -9.14488E+4   2.10895E+5
  -9.22044E+4   2.05984E+5
  -9.23473E+4   2.01443E+5
  -9.28869E+4   1.97260E+5
  -9.34532E+4   1.93007E+5
  -9.36246E+4   1.88642E+5
  -9.43893E+4   1.84856E+5
  -9.49581E+4   1.80688E+5
  -9.53061E+4   1.76597E+5
  -9.57859E+4   1.72305E+5
  -9.64128E+4   1.68157E+5
  -9.61765E+4   1.64044E+5
  -9.64746E+4   1.60627E+5
  -9.65885E+4   1.56862E+5
  -9.68705E+4   1.52994E+5
  -9.72180E+4   1.49376E+5
  -9.69563E+4   1.45390E+5
  -9.70406E+4   1.41929E+5
  -9.73859E+4   1.38200E+5
  -9.73308E+4   1.34575E+5
  -9.70429E+4   1.30965E+5
  -9.70227E+4   1.27972E+5
  -9.70549E+4   1.24645E+5
  -9.75399E+4   1.21127E+5
  -9.70969E+4   1.17685E+5
  -9.67988E+4   1.14789E+5
  -9.60269E+4   1.11529E+5
  -9.59851E+4   1.08775E+5
  -9.55678E+4   1.05719E+5
  -9.54811E+4   1.02722E+5
  -9.49052E+4   9.99820E+4
  -9.43573E+4   9.71874E+4
  -9.41761E+4   9.43913E+4
  -9.36551E+4   9.13929E+4
  -9.28550E+4   8.85716E+4
  -9.21708E+4   8.63585E+4
  -9.15346E+4   8.40245E+4
  -9.17063E+4   8.15196E+4
  -9.08057E+4   7.89694E+4
  -9.01072E+4   7.63691E+4
  -8.94392E+4   7.40776E+4
  -8.86436E+4   7.19641E+4
  -8.81284E+4   6.98264E+4
  -8.71260E+4   6.74447E+4
  -8.63336E+4   6.56602E+4
  -8.55040E+4   6.34678E+4
  -8.47391E+4   6.15997E+4
  -8.41423E+4   5.95027E+4
  -8.31819E+4   5.78096E+4
  -8.23242E+4   5.60227E+4
  -8.15498E+4   5.44449E+4
  -8.08884E+4   5.23962E+4
  -8.00371E+4   5.06498E+4
  -7.91103E+4   4.87791E+4
  -7.81733E+4   4.72489E+4
  -7.75275E+4   4.58098E+4
  -7.64685E+4   4.40806E+4
  -7.54537E+4   4.23582E+4
  -7.47589E+4   4.11678E+4
  -7.39296E+4   3.97046E+4
  -7.35564E+4   3.84757E+4
  -7.23839E+4   3.68547E+4
  -7.13845E+4   3.51316E+4
  -7.07491E+4   3.39677E+4
  -6.98057E+4   3.27984E+4
  -6.90014E+4   3.14814E+4
  -6.83712E+4   2.99441E+4
  -6.74856E+4   2.89948E+4
  -6.65956E+4   2.73942E+4
  -6.58419E+4   2.61275E+4
  -6.54155E+4   2.48861E+4
  -6.41322E+4   2.36325E+4
  -6.35544E+4   2.24502E+4
  -6.24178E+4   2.18546E+4
  -6.18326E+4   2.05757E+4
  -6.12585E+4   1.96072E+4
  -6.04738E+4   1.83243E+4
  -5.93920E+4   1.70448E+4
  -5.85610E+4   1.64547E+4
  -5.79095E+4   1.54491E+4
  -5.71760E+4   1.46477E+4
  -5.60603E+4   1.36003E+4
  -5.57072E+4   1.27413E+4
  -5.48339E+4   1.16373E+4
  -5.42496E+4   1.10605E+4
  -5.38230E+4   9.91833E+3
  -5.28486E+4   9.26224E+3
  -5.18910E+4   8.47851E+3
  -5.15213E+4   7.92985E+3
  -5.08199E+4   7.01600E+3
  -4.99072E+4   6.45403E+3
  -4.92004E+4   5.86482E+3
  -4.84753E+4   5.31485E+3
  -4.80201E+4   4.54927E+3
  -4.71523E+4   4.03659E+3
  -4.63381E+4   3.43594E+3
  -4.55781E+4   2.83889E+3
  -4.50535E+4   2.47933E+3
  -4.43198E+4   1.70839E+3
  -4.37751E+4   1.45978E+3
  -4.31607E+4   8.42901E+2
  -4.25938E+4   9.11816E+2
  -4.19112E+4   8.18913E+1
  -4.13401E+4  -7.80943E+1
  -4.03901E+4  -4.79115E+2
  -3.98001E+4  -8.01443E+2
  -3.92214E+4  -8.40282E+2
  -3.87967E+4  -1.43486E+3
  -3.78943E+4  -1.79955E+3
  -3.72270E+4  -1.97941E+3
  -3.68196E+4  -2.14736E+3
  -3.60735E+4  -2.02793E+3
  -3.58205E+4  -2.47541E+3
  -3.50794E+4  -2.82200E+3
  -3.41724E+4  -3.05479E+3
  -3.37682E+4  -3.34960E+3
  -3.32938E+4  -3.36378E+3
  -3.23583E+4  -3.51866E+3
  -3.18781E+4  -3.88047E+3
  -3.13313E+4  -3.93379E+3
  -3.08931E+4  -4.02873E+3
  -3.04728E+4  -4.20694E+3
  -2.97206E+4  -4.57659E+3
  -2.90505E+4  -4.49560E+3
  -2.85276E+4  -4.48280E+3
  -2.80802E+4  -4.71904E+3
  -2.74040E+4  -4.98322E+3
  -2.68873E+4  -4.86211E+3
  -2.64621E+4  -5.13250E+3
  -2.59304E+4  -4.98049E+3
  -2.54944E+4  -5.18131E+3
  -2.47323E+4  -5.09643E+3
  -2.42738E+4  -4.98068E+3
  -2.38376E+4  -5.42196E+3
  -2.33331E+4  -5.35045E+3
  -2.28160E+4  -5.41330E+3
  -2.24674E+4  -5.49492E+3
  -2.18999E+4  -5.53504E+3
  -2.14219E+4  -5.48724E+3
  -2.07810E+4  -5.76842E+3
  -2.06477E+4  -5.59224E+3
  -2.00552E+4  -5.88076E+3
  -1.97604E+4  -5.85996E+3
  -1.94765E+4  -5.58791E+3
  -1.91889E+4  -5.93819E+3
  -1.87744E+4  -5.91468E+3
  -1.82480E+4  -6.17209E+3
  -1.75888E+4  -6.07834E+3
  -1.73817E+4  -6.04222E+3
  -1.72066E+4  -6.02898E+3
  -1.69661E+4  -5.98908E+3
  -1.64060E+4  -6.08165E+3
  -1.62167E+4  -6.25944E+3
  -1.56552E+4  -6.22370E+3
  -1.55304E+4  -6.33601E+3
  -1.53177E+4  -6.15124E+3
  -1.50457E+4  -6.15527E+3
  -1.47659E+4  -6.15617E+3
  -1.46660E+4  -6.26694E+3
  -1.42687E+4  -6.05746E+3
  -1.39319E+4  -6.23486E+3
  -1.35383E+4  -6.33370E+3
  -1.33985E+4  -6.30803E+3
  -1.32987E+4  -6.20713E+3
  -1.29669E+4  -6.02384E+3
  -1.26408E+4  -6.13657E+3
  -1.25681E+4  -6.22195E+3
  -1.23940E+4  -6.39061E+3
  -1.19298E+4  -6.45978E+3
  -1.19456E+4  -6.40044E+3
  -1.18756E+4  -6.19488E+3
  -1.17177E+4  -6.18253E+3
  -1.12635E+4  -6.22013E+3
  -1.14013E+4  -5.97683E+3
  -1.11708E+4  -6.07196E+3
  -1.09207E+4  -6.08684E+3
