 
 $NMID
 ID=''
 FMTDAT='(2E13.5)'
 TRAMP=   1.00000E+0
 VOLUME=   1.00000E+0
 $END
  -4.70530E+5   5.24417E+5
  -1.65046E+6   8.12812E+5
  -1.54098E+6   9.47480E+5
  -1.54254E+6   8.43311E+5
  -1.59889E+6   8.77920E+5
  -1.50170E+6   8.67301E+5
  -1.50571E+6   7.65309E+5
  -1.58386E+6   7.97213E+5
  -1.51812E+6   8.38060E+5
  -1.48067E+6   7.70444E+5
  -1.51456E+6   7.48443E+5
  -1.49711E+6   7.53642E+5
  -1.48229E+6   7.30005E+5
  -1.47982E+6   7.31605E+5
  -1.44943E+6   7.18608E+5
  -1.44556E+6   6.88954E+5
  -1.45602E+6   6.92856E+5
  -1.43308E+6   6.80720E+5
  -1.42659E+6   6.46566E+5
  -1.42941E+6   6.40056E+5
  -1.41326E+6   6.23775E+5
  -1.40976E+6   5.99490E+5
  -1.40757E+6   5.96319E+5
  -1.39133E+6   5.81248E+5
  -1.38500E+6   5.54331E+5
  -1.37789E+6   5.53300E+5
  -1.36522E+6   5.46153E+5
  -1.35992E+6   5.30797E+5
  -1.34916E+6   5.22582E+5
  -1.33367E+6   5.13706E+5
  -1.33295E+6   4.97599E+5
  -1.32580E+6   4.87945E+5
  -1.31237E+6   4.73493E+5
  -1.30670E+6   4.59837E+5
  -1.29888E+6   4.49971E+5
  -1.28955E+6   4.37089E+5
  -1.28700E+6   4.24566E+5
  -1.27997E+6   4.13394E+5
  -1.26750E+6   3.99458E+5
  -1.26202E+6   3.89171E+5
  -1.25432E+6   3.81963E+5
  -1.24317E+6   3.72063E+5
  -1.23310E+6   3.63697E+5
  -1.22517E+6   3.57640E+5
  -1.21663E+6   3.48411E+5
  -1.21043E+6   3.39904E+5
  -1.20220E+6   3.30100E+5
  -1.19363E+6   3.16899E+5
  -1.18489E+6   3.05502E+5
  -1.17699E+6   2.95650E+5
  -1.16966E+6   2.84909E+5
  -1.16318E+6   2.74368E+5
  -1.15592E+6   2.64113E+5
  -1.14896E+6   2.53430E+5
  -1.14160E+6   2.42988E+5
  -1.13404E+6   2.33568E+5
  -1.12640E+6   2.23588E+5
  -1.11717E+6   2.14580E+5
  -1.10777E+6   2.07709E+5
  -1.10095E+6   1.99682E+5
  -1.09438E+6   1.90429E+5
  -1.08591E+6   1.81305E+5
  -1.07822E+6   1.72942E+5
  -1.07084E+6   1.63536E+5
  -1.06207E+6   1.53225E+5
  -1.05202E+6   1.44441E+5
  -1.04308E+6   1.36807E+5
  -1.03558E+6   1.29104E+5
  -1.02924E+6   1.20422E+5
  -1.02156E+6   1.11525E+5
  -1.01259E+6   1.03549E+5
  -1.00400E+6   9.60894E+4
  -9.96837E+5   8.93427E+4
  -9.88954E+5   8.20371E+4
  -9.80179E+5   7.46201E+4
  -9.71501E+5   6.71934E+4
  -9.63826E+5   5.99993E+4
  -9.56019E+5   5.23964E+4
  -9.47132E+5   4.45861E+4
  -9.38346E+5   3.62436E+4
  -9.29598E+5   2.81223E+4
  -9.21214E+5   2.14445E+4
  -9.13055E+5   1.44474E+4
  -9.04867E+5   6.28874E+3
  -8.95896E+5  -1.93171E+3
  -8.87023E+5  -7.98383E+3
  -8.79225E+5  -1.34190E+4
  -8.71051E+5  -1.98595E+4
  -8.62423E+5  -2.59253E+4
  -8.53669E+5  -3.10861E+4
  -8.45682E+5  -3.56450E+4
  -8.37980E+5  -4.10842E+4
  -8.29686E+5  -4.71347E+4
  -8.20621E+5  -5.27755E+4
  -8.11808E+5  -5.79050E+4
  -8.03671E+5  -6.28661E+4
  -7.95810E+5  -6.76138E+4
  -7.87953E+5  -7.27220E+4
  -7.79697E+5  -7.78953E+4
  -7.71744E+5  -8.26636E+4
  -7.64065E+5  -8.62991E+4
  -7.56963E+5  -9.10188E+4
  -7.48390E+5  -9.58491E+4
  -7.39122E+5  -9.94121E+4
  -7.31266E+5  -1.01894E+5
  -7.24937E+5  -1.04615E+5
  -7.17883E+5  -1.08510E+5
  -7.09471E+5  -1.12319E+5
  -7.00516E+5  -1.14771E+5
  -6.93267E+5  -1.16660E+5
  -6.86326E+5  -1.19365E+5
  -6.79492E+5  -1.22931E+5
  -6.72290E+5  -1.26470E+5
  -6.64529E+5  -1.29779E+5
  -6.57342E+5  -1.32937E+5
  -6.49869E+5  -1.36064E+5
  -6.42562E+5  -1.39148E+5
  -6.34688E+5  -1.41802E+5
  -6.26621E+5  -1.43699E+5
  -6.20133E+5  -1.44835E+5
  -6.13814E+5  -1.46710E+5
  -6.07330E+5  -1.48802E+5
  -6.00364E+5  -1.51117E+5
  -5.93548E+5  -1.53049E+5
  -5.86489E+5  -1.55066E+5
  -5.79367E+5  -1.56814E+5
  -5.72196E+5  -1.57979E+5
  -5.65411E+5  -1.59933E+5
  -5.58990E+5  -1.61511E+5
  -5.52480E+5  -1.63957E+5
  -5.45475E+5  -1.66397E+5
  -5.38183E+5  -1.68795E+5
  -5.30880E+5  -1.70381E+5
  -5.24292E+5  -1.71719E+5
  -5.17869E+5  -1.73792E+5
  -5.10901E+5  -1.75563E+5
  -5.04429E+5  -1.76839E+5
  -4.98104E+5  -1.78209E+5
  -4.92050E+5  -1.80154E+5
  -4.85373E+5  -1.82233E+5
  -4.78462E+5  -1.83604E+5
  -4.71705E+5  -1.84013E+5
  -4.65461E+5  -1.84730E+5
  -4.59901E+5  -1.86241E+5
  -4.53738E+5  -1.87841E+5
  -4.47061E+5  -1.89126E+5
  -4.40577E+5  -1.89904E+5
  -4.34442E+5  -1.90913E+5
  -4.28354E+5  -1.91736E+5
  -4.21939E+5  -1.92305E+5
  -4.15761E+5  -1.92779E+5
  -4.10139E+5  -1.93108E+5
  -4.04815E+5  -1.93325E+5
  -3.99419E+5  -1.94014E+5
  -3.93607E+5  -1.94474E+5
  -3.87712E+5  -1.94735E+5
  -3.82524E+5  -1.94725E+5
  -3.77015E+5  -1.95036E+5
  -3.71548E+5  -1.95466E+5
  -3.66138E+5  -1.95097E+5
  -3.60897E+5  -1.94842E+5
  -3.55708E+5  -1.95060E+5
  -3.50158E+5  -1.95277E+5
  -3.44993E+5  -1.95005E+5
  -3.39713E+5  -1.94197E+5
  -3.35090E+5  -1.93793E+5
  -3.30181E+5  -1.93905E+5
  -3.25593E+5  -1.94380E+5
  -3.20449E+5  -1.93771E+5
  -3.15654E+5  -1.93193E+5
  -3.11257E+5  -1.92317E+5
  -3.06807E+5  -1.91897E+5
  -3.02380E+5  -1.91801E+5
  -2.97587E+5  -1.91337E+5
  -2.93015E+5  -1.90706E+5
  -2.88745E+5  -1.90373E+5
  -2.84589E+5  -1.90304E+5
  -2.79560E+5  -1.90214E+5
  -2.74983E+5  -1.89090E+5
  -2.71121E+5  -1.88900E+5
  -2.67228E+5  -1.88529E+5
  -2.62863E+5  -1.88452E+5
  -2.58223E+5  -1.88249E+5
  -2.54024E+5  -1.87869E+5
  -2.50149E+5  -1.87271E+5
  -2.45777E+5  -1.86573E+5
  -2.41858E+5  -1.86074E+5
  -2.37742E+5  -1.84926E+5
  -2.34207E+5  -1.84166E+5
  -2.31027E+5  -1.83987E+5
  -2.27055E+5  -1.83910E+5
  -2.22667E+5  -1.83711E+5
  -2.18104E+5  -1.83058E+5
  -2.14114E+5  -1.82231E+5
  -2.10661E+5  -1.81712E+5
  -2.06834E+5  -1.80906E+5
  -2.02866E+5  -1.80817E+5
  -1.99203E+5  -1.80239E+5
  -1.95392E+5  -1.79793E+5
  -1.91533E+5  -1.79479E+5
  -1.87368E+5  -1.78938E+5
  -1.83483E+5  -1.78179E+5
  -1.79767E+5  -1.76826E+5
  -1.76216E+5  -1.76740E+5
  -1.72661E+5  -1.75870E+5
  -1.69032E+5  -1.75690E+5
  -1.65197E+5  -1.74972E+5
  -1.61633E+5  -1.73966E+5
  -1.58350E+5  -1.73253E+5
  -1.54422E+5  -1.72654E+5
  -1.50718E+5  -1.71818E+5
  -1.47183E+5  -1.70980E+5
  -1.44114E+5  -1.70210E+5
  -1.40680E+5  -1.69700E+5
  -1.36894E+5  -1.69311E+5
  -1.33484E+5  -1.67774E+5
  -1.30172E+5  -1.66773E+5
  -1.27000E+5  -1.65493E+5
  -1.23853E+5  -1.64654E+5
  -1.20684E+5  -1.63778E+5
  -1.17730E+5  -1.62829E+5
  -1.14633E+5  -1.61613E+5
  -1.11597E+5  -1.60640E+5
  -1.08439E+5  -1.59727E+5
  -1.05263E+5  -1.58549E+5
  -1.02368E+5  -1.56945E+5
  -9.98533E+4  -1.55770E+5
  -9.70671E+4  -1.54905E+5
  -9.42114E+4  -1.53996E+5
  -9.13166E+4  -1.52865E+5
  -8.85394E+4  -1.51408E+5
  -8.60490E+4  -1.50222E+5
  -8.36195E+4  -1.49216E+5
  -8.09790E+4  -1.47821E+5
  -7.88084E+4  -1.46476E+5
  -7.63395E+4  -1.45197E+5
  -7.42379E+4  -1.43994E+5
  -7.18365E+4  -1.42729E+5
  -6.93758E+4  -1.41452E+5
  -6.70293E+4  -1.40061E+5
  -6.50471E+4  -1.38496E+5
  -6.31555E+4  -1.37766E+5
  -6.06566E+4  -1.36534E+5
  -5.89312E+4  -1.35188E+5
  -5.66379E+4  -1.33813E+5
  -5.48146E+4  -1.32634E+5
  -5.29913E+4  -1.31579E+5
  -5.07340E+4  -1.30010E+5
  -4.89723E+4  -1.28650E+5
  -4.71452E+4  -1.27315E+5
  -4.53837E+4  -1.26258E+5
  -4.34534E+4  -1.25090E+5
  -4.15970E+4  -1.23792E+5
  -3.97669E+4  -1.22469E+5
  -3.82022E+4  -1.20972E+5
  -3.66753E+4  -1.19770E+5
  -3.49494E+4  -1.18903E+5
  -3.30287E+4  -1.17749E+5
  -3.13249E+4  -1.16351E+5
  -2.95652E+4  -1.15390E+5
  -2.77803E+4  -1.14373E+5
  -2.61523E+4  -1.12815E+5
  -2.43753E+4  -1.11640E+5
  -2.30162E+4  -1.10193E+5
  -2.15697E+4  -1.09167E+5
  -1.99073E+4  -1.08168E+5
  -1.84236E+4  -1.07020E+5
  -1.67133E+4  -1.05560E+5
  -1.52118E+4  -1.04332E+5
  -1.42096E+4  -1.03235E+5
  -1.25504E+4  -1.02116E+5
  -1.11292E+4  -1.00800E+5
  -1.00492E+4  -9.95764E+4
  -8.64971E+3  -9.85986E+4
  -7.24257E+3  -9.75238E+4
  -5.61113E+3  -9.60842E+4
  -4.23785E+3  -9.46966E+4
  -3.36563E+3  -9.34503E+4
  -1.96427E+3  -9.20448E+4
  -8.45891E+2  -9.15158E+4
   3.63784E+2  -9.00854E+4
   1.81909E+3  -8.87057E+4
   2.57464E+3  -8.76641E+4
   3.82653E+3  -8.67206E+4
   5.09381E+3  -8.54383E+4
   6.09412E+3  -8.38744E+4
   6.92150E+3  -8.27394E+4
   7.42410E+3  -8.17585E+4
   8.78715E+3  -8.08450E+4
   9.93371E+3  -7.96494E+4
   1.08987E+4  -7.83735E+4
   1.18565E+4  -7.70639E+4
   1.25411E+4  -7.59575E+4
   1.34641E+4  -7.47879E+4
   1.41509E+4  -7.38484E+4
   1.50456E+4  -7.27231E+4
   1.58306E+4  -7.16877E+4
   1.65341E+4  -7.04042E+4
   1.73355E+4  -6.94941E+4
   1.79945E+4  -6.80376E+4
   1.88309E+4  -6.70218E+4
   1.92980E+4  -6.59810E+4
   2.00711E+4  -6.51260E+4
   2.08527E+4  -6.38464E+4
   2.13367E+4  -6.27833E+4
   2.17874E+4  -6.15041E+4
   2.21754E+4  -6.06325E+4
   2.27479E+4  -5.97262E+4
   2.33848E+4  -5.87067E+4
   2.37588E+4  -5.74685E+4
   2.44299E+4  -5.69300E+4
   2.49124E+4  -5.57348E+4
   2.55290E+4  -5.47732E+4
   2.59492E+4  -5.37175E+4
   2.64132E+4  -5.26857E+4
   2.65118E+4  -5.19639E+4
   2.72013E+4  -5.10000E+4
   2.74538E+4  -5.00827E+4
   2.77417E+4  -4.88023E+4
   2.81964E+4  -4.82206E+4
   2.86330E+4  -4.71866E+4
   2.86778E+4  -4.61547E+4
   2.92712E+4  -4.53390E+4
   2.94449E+4  -4.43876E+4
   2.96788E+4  -4.35752E+4
   2.99420E+4  -4.29722E+4
   3.02378E+4  -4.19911E+4
   3.06721E+4  -4.06314E+4
   3.08073E+4  -4.00260E+4
   3.07957E+4  -3.90903E+4
   3.08481E+4  -3.84115E+4
   3.14466E+4  -3.75279E+4
   3.15282E+4  -3.66854E+4
   3.16457E+4  -3.58520E+4
   3.18814E+4  -3.53796E+4
   3.22225E+4  -3.43168E+4
   3.23559E+4  -3.35111E+4
   3.23116E+4  -3.25565E+4
   3.23395E+4  -3.18359E+4
   3.22556E+4  -3.11113E+4
   3.26294E+4  -3.03184E+4
   3.28383E+4  -2.96643E+4
   3.28692E+4  -2.89867E+4
   3.28524E+4  -2.79627E+4
   3.32014E+4  -2.74748E+4
   3.28895E+4  -2.66655E+4
   3.29139E+4  -2.61181E+4
   3.32019E+4  -2.52048E+4
   3.32748E+4  -2.48168E+4
   3.33836E+4  -2.41823E+4
   3.35733E+4  -2.34211E+4
   3.34494E+4  -2.28189E+4
   3.33480E+4  -2.19091E+4
   3.35210E+4  -2.16705E+4
   3.37177E+4  -2.08920E+4
   3.36022E+4  -2.03603E+4
   3.34614E+4  -1.96248E+4
   3.33846E+4  -1.93039E+4
   3.36259E+4  -1.87513E+4
   3.33526E+4  -1.83524E+4
   3.34248E+4  -1.74674E+4
   3.33449E+4  -1.71307E+4
   3.31506E+4  -1.64175E+4
   3.33842E+4  -1.60276E+4
   3.32840E+4  -1.55854E+4
   3.29921E+4  -1.48763E+4
   3.30509E+4  -1.43999E+4
