 LCModel (Version 6.3-1N) Copyright: S.W. Provencher.          Ref.: Magn. Reson. Med. 30:672-679 (1993).                
 Slice_N1@8_19  28-Feb-2025 11:44:47
 27 lines in following concentration table = NCONC+1
    Conc.  %SD /Cr+PCr  Metabolite                                         
 2.93E-04   4% 3.6E-04 Mac                                                 
    0.437 672%   0.537 Cr                                                  
    6.073  49%   7.463 PCr                                                 
    4.777  23%   5.870 Ins                                                 
    7.156  16%   8.793 NAA                                                 
    5.361  24%   6.588 Tau                                                 
    0.000 999%   0.000 PCho                                                
    1.665  18%   2.046 GPC                                                 
   12.715  11%  15.624 Glu                                                 
    4.914  21%   6.038 Gln                                                 
    0.000 999%   0.000 Ala                                                 
    0.000 999%   0.000 Asc                                                 
    1.815  65%   2.230 Asp                                                 
    0.000 999%   0.000 GABA                                                
    0.486 161%   0.597 Glc                                                 
    1.740  37%   2.138 GSH                                                 
    0.000 999%   0.000 Lac                                                 
    4.480  21%   5.505 NAAG                                                
    0.000 999%   0.000 PE                                                  
    1.665  18%   2.046 GPC+PCho                                            
   11.636   8%  14.298 NAA+NAAG                                            
   17.629   9%  21.662 Glu+Gln                                             
    6.511  13%   8.000 Cr+PCr                                              
   11.636   8%  14.298 NAA+NAAG                                            
    6.511  13%   8.000 Cr+PCr                                              
   17.629   9%  21.662 Glu+Gln                                             
   6 lines in following misc. output table
  FWHM = 0.057 ppm    S/N =   3                                            
  Data shift = 0.024 ppm                                                   
  Ph:-133 deg       0.0 deg/ppm                                            
  alphaB,S = 1.8E-01,   3.4E+01                                            
   19 spline knots.   Ns = 8(1)                                            
  ( 7) 4 infls.   ( 6) 1 extrs.                                            
  480 points on ppm-axis = NY
      4.100000     4.091866     4.083733     4.075600     4.067466     4.059333     4.051199     4.043066     4.034933     4.026799
      4.018666     4.010532     4.002399     3.994265     3.986132     3.977998     3.969864     3.961731     3.953597     3.945463
      3.937330     3.929196     3.921062     3.912929     3.904795     3.896662     3.888528     3.880394     3.872261     3.864127
      3.855993     3.847860     3.839726     3.831592     3.823459     3.815325     3.807191     3.799058     3.790924     3.782790
      3.774657     3.766523     3.758389     3.750256     3.742122     3.733989     3.725855     3.717721     3.709588     3.701454
      3.693320     3.685187     3.677053     3.668919     3.660786     3.652652     3.644518     3.636385     3.628251     3.620117
      3.611984     3.603850     3.595716     3.587583     3.579449     3.571316     3.563182     3.555048     3.546915     3.538781
      3.530647     3.522514     3.514380     3.506246     3.498113     3.489979     3.481845     3.473712     3.465578     3.457444
      3.449311     3.441177     3.433043     3.424910     3.416776     3.408643     3.400509     3.392375     3.384242     3.376108
      3.367974     3.359841     3.351707     3.343573     3.335440     3.327306     3.319172     3.311039     3.302905     3.294771
      3.286638     3.278504     3.270370     3.262237     3.254103     3.245970     3.237836     3.229702     3.221569     3.213435
      3.205301     3.197168     3.189034     3.180900     3.172767     3.164633     3.156499     3.148366     3.140232     3.132098
      3.123965     3.115831     3.107697     3.099564     3.091430     3.083297     3.075163     3.067029     3.058896     3.050762
      3.042628     3.034495     3.026361     3.018227     3.010094     3.001960     2.993826     2.985693     2.977559     2.969425
      2.961292     2.953158     2.945024     2.936891     2.928757     2.920624     2.912490     2.904356     2.896223     2.888089
      2.879955     2.871822     2.863688     2.855554     2.847421     2.839287     2.831153     2.823020     2.814886     2.806752
      2.798619     2.790485     2.782351     2.774218     2.766084     2.757951     2.749817     2.741683     2.733550     2.725416
      2.717282     2.709149     2.701015     2.692881     2.684748     2.676614     2.668480     2.660347     2.652213     2.644079
      2.635946     2.627812     2.619678     2.611545     2.603411     2.595278     2.587144     2.579010     2.570877     2.562743
      2.554609     2.546476     2.538342     2.530208     2.522075     2.513941     2.505807     2.497674     2.489540     2.481406
      2.473273     2.465139     2.457006     2.448872     2.440738     2.432605     2.424471     2.416337     2.408204     2.400070
      2.391936     2.383803     2.375669     2.367535     2.359402     2.351268     2.343134     2.335001     2.326867     2.318733
      2.310600     2.302466     2.294333     2.286199     2.278065     2.269932     2.261798     2.253664     2.245531     2.237397
      2.229263     2.221130     2.212996     2.204862     2.196729     2.188595     2.180461     2.172328     2.164194     2.156060
      2.147927     2.139793     2.131660     2.123526     2.115392     2.107259     2.099125     2.090991     2.082858     2.074724
      2.066590     2.058457     2.050323     2.042189     2.034056     2.025922     2.017788     2.009655     2.001521     1.993387
      1.985254     1.977120     1.968987     1.960853     1.952719     1.944586     1.936452     1.928318     1.920185     1.912051
      1.903917     1.895784     1.887650     1.879516     1.871383     1.863249     1.855115     1.846982     1.838848     1.830714
      1.822581     1.814447     1.806314     1.798180     1.790046     1.781913     1.773779     1.765645     1.757512     1.749378
      1.741244     1.733111     1.724977     1.716843     1.708710     1.700576     1.692442     1.684309     1.676175     1.668041
      1.659908     1.651774     1.643641     1.635507     1.627373     1.619240     1.611106     1.602972     1.594839     1.586705
      1.578571     1.570438     1.562304     1.554170     1.546037     1.537903     1.529769     1.521636     1.513502     1.505368
      1.497235     1.489101     1.480968     1.472834     1.464700     1.456567     1.448433     1.440299     1.432166     1.424032
      1.415898     1.407765     1.399631     1.391497     1.383364     1.375230     1.367096     1.358963     1.350829     1.342695
      1.334562     1.326428     1.318295     1.310161     1.302027     1.293894     1.285760     1.277626     1.269493     1.261359
      1.253225     1.245092     1.236958     1.228824     1.220691     1.212557     1.204423     1.196290     1.188156     1.180022
      1.171889     1.163755     1.155622     1.147488     1.139354     1.131221     1.123087     1.114953     1.106820     1.098686
      1.090552     1.082419     1.074285     1.066151     1.058018     1.049884     1.041750     1.033617     1.025483     1.017349
      1.009216     1.001082     0.992949     0.984815     0.976681     0.968548     0.960414     0.952280     0.944147     0.936013
      0.927879     0.919746     0.911612     0.903478     0.895345     0.887211     0.879077     0.870944     0.862810     0.854676
      0.846543     0.838409     0.830276     0.822142     0.814008     0.805875     0.797741     0.789607     0.781474     0.773340
      0.765206     0.757073     0.748939     0.740805     0.732672     0.724538     0.716404     0.708271     0.700137     0.692003
      0.683870     0.675736     0.667603     0.659469     0.651335     0.643202     0.635068     0.626934     0.618801     0.610667
      0.602533     0.594400     0.586266     0.578132     0.569999     0.561865     0.553731     0.545598     0.537464     0.529330
      0.521197     0.513063     0.504930     0.496796     0.488662     0.480529     0.472395     0.464261     0.456128     0.447994
      0.439861     0.431727     0.423593     0.415460     0.407326     0.399192     0.391059     0.382925     0.374792     0.366658
      0.358524     0.350391     0.342257     0.334124     0.325990     0.317856     0.309723     0.301589     0.293455     0.285322
      0.277188     0.269055     0.260921     0.252787     0.244654     0.236520     0.228386     0.220253     0.212119     0.203986
 NY phased data points follow
  -2.51560E+00 -2.65145E+01 -8.89318E+00 -2.45522E+01 -2.24883E+01  7.23747E+00 -1.39547E+01 -2.06201E+01  1.08625E+01  6.23047E-01
  -1.31229E+01 -3.35004E+01 -3.44276E+01 -1.71513E+01 -1.93830E+01 -2.06092E+01 -4.25805E+01 -2.91188E+01 -6.21095E+01 -6.56472E+01
  -4.23814E+01 -6.20453E+01 -6.17929E+01 -5.97469E+01 -1.58334E+01 -2.04710E+01 -1.38984E+01  7.87600E-01  6.79199E+00  1.71145E+01
   6.67431E+00  2.11608E+01  8.66354E+00  7.95497E+00 -5.99655E+00 -4.07586E+00  5.55769E+00  5.60476E+00 -7.24630E+00 -7.46602E+00
   2.29453E+00 -3.57469E+01 -2.91669E+01 -3.97527E+01 -2.67273E+01 -1.24174E+01 -2.01191E+01  5.69796E+00  1.71186E+01  2.89809E+01
   3.73112E+01  5.73928E+01  4.20585E+01  3.00233E+01  2.53409E+01  2.36370E+01  2.78299E+01  7.44619E+00  5.47195E+00  2.68168E+01
   3.42410E+01  6.83139E+00  1.48352E+01  2.55306E+01  2.38757E+01  1.80496E+01  2.53986E+01  2.07498E+01  7.27179E+00  1.84728E+01
   2.03635E+01  3.95915E+01  1.02803E+01  1.30275E+01  1.49801E+01  1.67253E+01  3.90705E+01  2.74495E+01  4.27941E+01  3.16176E+01
   6.12356E+01  1.90853E+01  1.13536E+01  5.18523E+01  1.07114E+01  4.00824E+01  1.78790E+01  1.42413E+01  2.23188E+01  1.67568E+01
   4.61863E+01  3.68569E+01  6.19131E+01  8.07969E+01  6.33521E+01  6.03624E+01  7.66972E+01  6.25584E+01  7.20626E+01  8.75381E+01
   6.83815E+01  5.13604E+01  5.00943E+01  8.11983E+01  4.39829E+01  2.65487E+01  2.97369E+01 -1.26012E+00 -1.97744E+00 -3.46756E+01
  -4.47415E+01 -4.65902E+01 -6.90676E+01 -6.68517E+01 -7.44703E+01 -5.77584E+01 -3.16881E+01 -4.58051E+01 -2.59344E+01 -4.95316E+00
  -5.06093E+00  1.63085E+01 -7.36619E-01 -2.52576E+00  5.33290E+00  7.99637E+00  2.75501E+01  2.10390E+01  4.18078E+01  6.93598E+01
   7.91969E+01  6.39461E+01  1.82755E+01  2.44172E+01  3.77284E+01 -3.38532E+00 -3.15138E+01 -4.21447E+01 -4.49435E+01 -5.18455E+01
  -6.12337E+01 -4.49833E+01 -4.43674E+01 -4.41201E+01 -6.43053E+01 -7.26517E+01 -5.43791E+01 -5.53308E+01 -4.71698E+01 -6.63459E+01
  -5.85865E+01 -3.49770E+01 -4.18444E+01 -4.24100E+01 -4.11893E+01 -3.42862E+01 -4.20073E+01 -4.35070E+01 -2.11681E+01 -2.75001E+01
  -3.56927E+01 -1.83721E+01 -4.17461E+01 -2.48746E+01  2.01724E+00 -1.42310E+01 -1.85094E+01 -2.66906E+01 -5.45459E+00 -2.10207E+01
  -2.01995E+01 -9.22484E+00 -1.86235E+01  7.53762E+00  1.33996E+01  3.05689E+00 -1.38516E+01  9.20190E+00 -5.38888E-01 -1.78641E+01
  -9.38552E+00 -4.39110E+00 -2.77281E+00 -3.83118E+01 -1.53258E+01 -3.36896E+01 -5.13039E+01 -2.44142E+01 -2.41777E+01 -5.46462E+00
  -4.21248E+01 -6.22396E+01 -3.86880E+01 -1.16456E+01 -1.15250E+01 -2.95425E+01 -9.64417E+00 -2.96453E+01 -3.98198E+01 -2.68658E+01
  -2.49184E+01 -1.52779E+00 -1.94762E+01 -3.11747E+01  2.16902E+00 -7.16386E+00 -2.93918E+01 -1.07839E+01 -2.15043E+01 -4.85906E+01
  -3.96561E+01 -3.94045E+01 -3.19450E+01 -2.37877E+01 -1.88849E+01 -7.27670E+00  1.28574E+01  3.51276E+01  3.14852E+01  3.77277E+01
   2.01565E+01  1.55302E+01  1.28503E+01 -1.20776E+01  1.72902E+01  2.32766E+01  4.14315E+00  5.17429E+00 -1.44249E+01 -2.88384E+01
  -2.77459E+00 -5.34398E-01 -2.69903E+01 -4.05711E+01 -4.25717E+01 -4.49710E+01 -4.25800E+01 -5.67554E+01 -9.19525E+01 -6.51386E+01
  -6.56006E+01 -8.12857E+01 -5.21314E+01 -4.86930E+01 -5.77045E+01 -5.28812E+01 -5.02186E+01 -5.18384E+01 -1.43315E+01 -2.47606E+01
  -4.69489E+01 -4.63150E+01 -3.64728E+01 -3.90613E+01 -6.46629E+01 -4.05639E+01 -4.35785E+01  1.67867E+01  5.64263E+01  2.25075E+01
   5.08902E+01  9.81867E+01  1.29676E+02  1.36024E+02  1.38741E+02  1.24047E+02  1.21481E+02  9.18254E+01  9.93382E+01  1.06435E+02
   9.17937E+01  1.08549E+02  7.45488E+01  1.01266E+02  8.91259E+01  6.83526E+01  9.97917E+01  9.83170E+01  9.61422E+01  7.17101E+01
   7.20859E+01  8.55445E+01  9.61373E+01  8.13260E+01  6.83125E+01  8.93567E+01  8.38203E+01  5.97534E+01  6.27478E+01  5.75317E+01
   6.39989E+01  5.51655E+01  1.76889E+01  4.34354E+01  3.49216E+01  3.26035E+01  3.32279E+01  1.90858E+01  1.75837E+01  1.12692E+01
   1.32804E+01 -2.29659E+01 -7.11445E+00 -9.77726E+00 -4.18517E+00 -1.25488E+01 -3.02102E+01  1.03059E+01 -1.64379E+01  1.17118E+01
   2.58731E+01  1.35541E+01  8.61396E+00 -4.81949E+00  3.31159E+01  1.01965E+01  9.73315E+00  2.83684E+01  7.15052E+00  1.71248E+01
   2.21078E+01  2.03619E+01  2.00943E+01  1.03851E+01  1.15544E+01  1.60921E+01  2.75369E+01  2.05124E+01  1.31011E+01  2.85314E+01
   1.90883E+01  2.56286E+01  2.08592E+01 -1.32527E+01 -8.37845E+00  7.38142E+00 -9.54704E+00 -1.19556E+01 -1.59460E+01 -2.34459E+01
   6.82512E+00 -1.05107E-01  3.98583E+00  9.32023E+00  7.98236E+00  2.36504E+01 -2.36215E+00  3.88072E+00  1.40193E+01  8.76353E+00
   1.67995E+01  3.11521E+01  3.54017E+01  1.43319E+01  7.41883E+00 -1.41030E+00 -3.41978E+00 -6.09427E+00 -1.17633E+01 -2.60854E+00
   2.10293E+00  1.29252E+01  1.57207E+01  6.59947E+00  9.83599E+00 -1.20461E-01 -2.83396E-01  2.03029E+01  1.82516E+00  2.86903E+00
   1.10726E+01  1.28409E+01  4.25282E+01  3.22957E+01  4.02926E+01  4.55763E+01  4.29707E+01  6.71458E+01  4.34239E+01  5.28918E+01
   8.01603E+01  7.19992E+01  6.72764E+01  8.65911E+01  1.09541E+02  9.34016E+01  1.03879E+02  1.16078E+02  1.11808E+02  1.14201E+02
   1.16961E+02  1.22228E+02  1.05998E+02  9.15713E+01  7.41238E+01  8.59872E+01  8.44163E+01  5.47790E+01  6.63398E+01  5.75775E+01
   2.75426E+01  7.34107E+00  9.16354E+00  2.51203E+01  1.82618E+01 -1.07737E-01  2.37829E+00  7.09248E+00 -1.98817E+01 -2.53490E+01
  -7.40754E+00 -2.23508E+01 -2.59431E+01 -1.05330E+01 -2.98495E+01 -3.14242E+01 -2.74741E+01 -3.38189E+01 -3.16976E+01 -3.63158E+01
  -8.84056E+00 -1.61438E+01 -1.77462E+01 -4.16805E+00 -1.81688E+01  5.30644E-01 -2.06069E+01 -1.70782E+01 -1.20770E+01 -3.22576E+01
  -1.56529E+01 -2.79516E+01 -1.09237E+01 -9.38707E+00 -1.95633E+01 -3.18912E+01 -4.40874E+01  1.10344E+00 -1.14131E+01 -1.95363E+01
  -1.60997E+01 -3.82851E+01 -1.31974E+01 -1.14490E+01 -2.64895E+01 -1.77329E+01 -1.83762E+01 -1.54454E+01 -1.87427E+01 -2.01944E+01
  -1.74664E+01 -3.90356E+01 -3.06026E+01 -2.88673E+01 -3.49867E+01 -1.86754E+01 -1.11403E+01 -1.99793E+01 -2.42333E+01 -7.39004E+00
  -2.92250E+01 -8.51470E+00 -1.05922E+01 -3.32445E+01 -1.15858E+01 -1.93345E+01  3.28630E+00 -6.17139E+00 -9.14465E+00 -2.04298E+01
  -1.76698E+01  1.44571E+00 -3.12890E+01 -1.51458E+01 -1.15448E+01 -8.80992E+00 -1.78088E+01 -2.87955E+01 -2.33354E+01 -2.30070E+01
 NY points of the fit to the data follow
  -1.41243E+01 -1.43030E+01 -1.55473E+01 -1.71905E+01 -1.84311E+01 -1.90905E+01 -1.96054E+01 -1.99290E+01 -1.94974E+01 -1.81341E+01
  -1.69352E+01 -1.70531E+01 -1.86730E+01 -2.08919E+01 -2.37619E+01 -2.78195E+01 -3.33919E+01 -4.10404E+01 -4.91598E+01 -5.40864E+01
  -5.44024E+01 -5.20238E+01 -4.84926E+01 -4.23297E+01 -3.15899E+01 -1.81724E+01 -5.98821E+00  3.61789E+00  1.14581E+01  1.76808E+01
   2.10813E+01  2.27475E+01  2.35280E+01  2.37172E+01  2.34570E+01  2.23352E+01  1.91593E+01  1.26386E+01  2.86463E+00 -8.05727E+00
  -1.78322E+01 -2.54644E+01 -3.03851E+01 -3.13855E+01 -2.71887E+01 -1.81469E+01 -6.18108E+00  6.71606E+00  1.88516E+01  2.84151E+01
   3.34661E+01  3.43685E+01  3.27040E+01  2.98448E+01  2.62675E+01  2.26671E+01  1.88574E+01  1.51806E+01  1.26996E+01  1.15000E+01
   1.08508E+01  1.04372E+01  1.10744E+01  1.38361E+01  1.79877E+01  2.20638E+01  2.52024E+01  2.70860E+01  2.77333E+01  2.69868E+01
   2.52668E+01  2.27759E+01  1.98521E+01  1.85124E+01  1.98510E+01  2.28244E+01  2.69481E+01  3.21137E+01  3.76255E+01  4.14697E+01
   4.21989E+01  4.03742E+01  3.65456E+01  3.11842E+01  2.55160E+01  2.05755E+01  1.71164E+01  1.58420E+01  1.70988E+01  2.07533E+01
   2.61484E+01  3.20788E+01  3.80556E+01  4.31355E+01  4.75641E+01  5.09426E+01  5.37937E+01  5.61147E+01  5.84451E+01  6.06556E+01
   6.17496E+01  6.02380E+01  5.68188E+01  5.21905E+01  4.68349E+01  4.02819E+01  2.97420E+01  1.36134E+01 -5.00488E+00 -2.14370E+01
  -3.45152E+01 -4.64275E+01 -5.76937E+01 -6.44084E+01 -6.34769E+01 -5.80377E+01 -5.06614E+01 -4.19630E+01 -3.14342E+01 -2.24700E+01
  -1.48841E+01 -7.96896E+00 -1.05971E+00  6.24926E+00  1.29146E+01  1.98548E+01  2.79103E+01  3.79097E+01  5.03242E+01  6.08738E+01
   6.34746E+01  5.76848E+01  4.80559E+01  3.70323E+01  2.17922E+01  6.32422E-01 -2.09872E+01 -3.66265E+01 -4.61245E+01 -5.22597E+01
  -5.54642E+01 -5.42030E+01 -5.26759E+01 -5.19520E+01 -5.16894E+01 -5.15236E+01 -5.11678E+01 -5.05037E+01 -4.94539E+01 -4.80342E+01
  -4.62651E+01 -4.42490E+01 -4.21167E+01 -3.98591E+01 -3.76480E+01 -3.56614E+01 -3.38981E+01 -3.22048E+01 -3.04313E+01 -2.87245E+01
  -2.73544E+01 -2.64066E+01 -2.55357E+01 -2.42517E+01 -2.26714E+01 -2.15539E+01 -2.12468E+01 -2.10325E+01 -1.98066E+01 -1.71052E+01
  -1.38968E+01 -1.15207E+01 -9.95133E+00 -8.20616E+00 -5.67454E+00 -3.24056E+00 -2.45973E+00 -3.73658E+00 -5.98146E+00 -8.42855E+00
  -1.13595E+01 -1.51902E+01 -1.95283E+01 -2.37316E+01 -2.76617E+01 -3.10780E+01 -3.37398E+01 -3.52742E+01 -3.54271E+01 -3.47645E+01
  -3.36434E+01 -3.18429E+01 -2.91393E+01 -2.59359E+01 -2.30708E+01 -2.07072E+01 -1.81373E+01 -1.54527E+01 -1.37052E+01 -1.31169E+01
  -1.25366E+01 -1.11477E+01 -1.00660E+01 -9.86165E+00 -9.71023E+00 -9.61188E+00 -1.06128E+01 -1.30681E+01 -1.74064E+01 -2.26759E+01
  -2.80823E+01 -3.27539E+01 -3.44051E+01 -3.14714E+01 -2.42666E+01 -1.36447E+01 -8.77383E-01  1.25466E+01  2.48186E+01  3.40739E+01
   3.94684E+01  4.08798E+01  3.87636E+01  3.42027E+01  2.80180E+01  2.23901E+01  1.63261E+01  9.94008E+00  3.16831E+00 -4.92740E+00
  -1.42732E+01 -2.46526E+01 -3.58358E+01 -4.69347E+01 -5.70473E+01 -6.55881E+01 -7.19399E+01 -7.61818E+01 -7.84127E+01 -7.85366E+01
  -7.67802E+01 -7.30406E+01 -6.79492E+01 -6.20760E+01 -5.61729E+01 -5.02749E+01 -4.42420E+01 -4.00671E+01 -3.88522E+01 -4.04873E+01
  -4.38370E+01 -4.59480E+01 -4.53481E+01 -4.55262E+01 -4.66959E+01 -4.19905E+01 -2.58705E+01 -2.61385E+00  1.86895E+01  3.74184E+01
   5.82922E+01  8.06794E+01  9.70017E+01  1.04605E+02  1.07845E+02  1.08116E+02  1.04107E+02  9.75922E+01  9.16600E+01  8.65118E+01
   8.21271E+01  7.84637E+01  7.54910E+01  7.31830E+01  7.14879E+01  7.03398E+01  6.95802E+01  6.90028E+01  6.84297E+01  6.77326E+01
   6.68873E+01  6.58101E+01  6.44037E+01  6.27105E+01  6.07314E+01  5.85541E+01  5.61654E+01  5.35360E+01  5.06822E+01  4.76066E+01
   4.42795E+01  4.06852E+01  3.69615E+01  3.33321E+01  3.00079E+01  2.71762E+01  2.49972E+01  2.36044E+01  2.31039E+01  2.34847E+01
   2.46113E+01  2.62918E+01  2.83024E+01  3.04941E+01  3.27723E+01  3.50893E+01  3.73961E+01  3.96665E+01  4.18738E+01  4.39943E+01
   4.60719E+01  4.81158E+01  5.00349E+01  5.17267E+01  5.31569E+01  5.42758E+01  5.49763E+01  5.51929E+01  5.48948E+01  5.40451E+01
   5.26371E+01  5.06686E+01  4.81980E+01  4.52083E+01  4.15294E+01  3.70001E+01  3.16517E+01  2.55412E+01  1.87021E+01  1.12674E+01
   3.60561E+00 -3.74146E+00 -1.01696E+01 -1.52267E+01 -1.86922E+01 -2.04814E+01 -2.07121E+01 -1.96754E+01 -1.76975E+01 -1.50699E+01
  -1.20556E+01 -8.86032E+00 -5.60419E+00 -2.39112E+00  7.42874E-01  3.77164E+00  6.61943E+00  9.14067E+00  1.10744E+01  1.22282E+01
   1.24887E+01  1.18129E+01  1.02447E+01  7.94403E+00  5.20593E+00  2.28786E+00 -5.56578E-01 -2.97590E+00 -4.62588E+00 -5.32520E+00
  -5.02869E+00 -3.76507E+00 -1.67325E+00  1.03455E+00  4.11799E+00  7.44430E+00  1.08870E+01  1.43467E+01  1.77397E+01  2.10397E+01
   2.42872E+01  2.75419E+01  3.08693E+01  3.43442E+01  3.79884E+01  4.19015E+01  4.62024E+01  5.09241E+01  5.60639E+01  6.16588E+01
   6.77793E+01  7.44540E+01  8.15269E+01  8.87281E+01  9.56636E+01  1.01783E+02  1.06351E+02  1.08825E+02  1.08962E+02  1.06726E+02
   1.02235E+02  9.58584E+01  8.82247E+01  7.99278E+01  7.13993E+01  6.28764E+01  5.44795E+01  4.62459E+01  3.80777E+01  2.99444E+01
   2.19342E+01  1.42582E+01  7.13480E+00  8.26618E-01 -4.47174E+00 -8.75858E+00 -1.21670E+01 -1.48064E+01 -1.67731E+01 -1.82486E+01
  -1.93663E+01 -2.02368E+01 -2.08898E+01 -2.13555E+01 -2.16405E+01 -2.18249E+01 -2.19399E+01 -2.19540E+01 -2.18624E+01 -2.17538E+01
  -2.16836E+01 -2.15970E+01 -2.14287E+01 -2.12579E+01 -2.11660E+01 -2.10844E+01 -2.09230E+01 -2.07108E+01 -2.05427E+01 -2.03987E+01
  -2.02336E+01 -2.00609E+01 -1.99080E+01 -1.97791E+01 -1.96517E+01 -1.95208E+01 -1.93770E+01 -1.92151E+01 -1.90058E+01 -1.87573E+01
  -1.85065E+01 -1.82927E+01 -1.81438E+01 -1.80332E+01 -1.79390E+01 -1.78476E+01 -1.77831E+01 -1.77126E+01 -1.76278E+01 -1.75284E+01
  -1.74078E+01 -1.72600E+01 -1.70821E+01 -1.69130E+01 -1.67468E+01 -1.65666E+01 -1.63606E+01 -1.61355E+01 -1.59145E+01 -1.57161E+01
  -1.55576E+01 -1.54486E+01 -1.53631E+01 -1.53004E+01 -1.52348E+01 -1.51239E+01 -1.49470E+01 -1.47457E+01 -1.45480E+01 -1.43679E+01
  -1.41804E+01 -1.40094E+01 -1.38966E+01 -1.38471E+01 -1.38099E+01 -1.37761E+01 -1.37473E+01 -1.37299E+01 -1.36755E+01 -1.35535E+01
 NY background values follow
     8.112E+00    8.205E+00    8.297E+00    8.390E+00    8.482E+00    8.574E+00    8.667E+00    8.759E+00    8.851E+00    8.944E+00
     9.037E+00    9.130E+00    9.223E+00    9.316E+00    9.410E+00    9.504E+00    9.598E+00    9.693E+00    9.788E+00    9.884E+00
     9.979E+00    1.008E+01    1.017E+01    1.027E+01    1.037E+01    1.047E+01    1.057E+01    1.067E+01    1.077E+01    1.087E+01
     1.097E+01    1.107E+01    1.117E+01    1.128E+01    1.138E+01    1.149E+01    1.159E+01    1.170E+01    1.181E+01    1.191E+01
     1.202E+01    1.213E+01    1.223E+01    1.234E+01    1.245E+01    1.255E+01    1.266E+01    1.277E+01    1.287E+01    1.298E+01
     1.308E+01    1.319E+01    1.329E+01    1.340E+01    1.350E+01    1.360E+01    1.370E+01    1.380E+01    1.390E+01    1.400E+01
     1.410E+01    1.420E+01    1.429E+01    1.439E+01    1.448E+01    1.457E+01    1.466E+01    1.475E+01    1.484E+01    1.492E+01
     1.501E+01    1.509E+01    1.517E+01    1.525E+01    1.533E+01    1.541E+01    1.548E+01    1.555E+01    1.562E+01    1.569E+01
     1.575E+01    1.581E+01    1.588E+01    1.593E+01    1.599E+01    1.604E+01    1.609E+01    1.614E+01    1.619E+01    1.623E+01
     1.627E+01    1.631E+01    1.634E+01    1.637E+01    1.640E+01    1.643E+01    1.645E+01    1.647E+01    1.649E+01    1.651E+01
     1.652E+01    1.653E+01    1.654E+01    1.654E+01    1.655E+01    1.655E+01    1.655E+01    1.654E+01    1.654E+01    1.653E+01
     1.652E+01    1.651E+01    1.649E+01    1.647E+01    1.646E+01    1.644E+01    1.641E+01    1.639E+01    1.636E+01    1.633E+01
     1.630E+01    1.627E+01    1.624E+01    1.620E+01    1.616E+01    1.612E+01    1.608E+01    1.604E+01    1.600E+01    1.595E+01
     1.590E+01    1.585E+01    1.580E+01    1.575E+01    1.570E+01    1.565E+01    1.559E+01    1.553E+01    1.547E+01    1.541E+01
     1.535E+01    1.529E+01    1.523E+01    1.516E+01    1.510E+01    1.503E+01    1.496E+01    1.489E+01    1.483E+01    1.475E+01
     1.468E+01    1.461E+01    1.454E+01    1.446E+01    1.439E+01    1.431E+01    1.423E+01    1.416E+01    1.408E+01    1.400E+01
     1.392E+01    1.384E+01    1.375E+01    1.367E+01    1.358E+01    1.350E+01    1.341E+01    1.332E+01    1.323E+01    1.314E+01
     1.305E+01    1.296E+01    1.287E+01    1.277E+01    1.268E+01    1.258E+01    1.248E+01    1.239E+01    1.229E+01    1.219E+01
     1.208E+01    1.198E+01    1.188E+01    1.177E+01    1.167E+01    1.156E+01    1.145E+01    1.134E+01    1.123E+01    1.112E+01
     1.101E+01    1.090E+01    1.078E+01    1.067E+01    1.055E+01    1.044E+01    1.032E+01    1.021E+01    1.009E+01    9.969E+00
     9.850E+00    9.731E+00    9.611E+00    9.490E+00    9.369E+00    9.247E+00    9.125E+00    9.003E+00    8.880E+00    8.757E+00
     8.633E+00    8.509E+00    8.385E+00    8.260E+00    8.135E+00    8.009E+00    7.882E+00    7.754E+00    7.626E+00    7.497E+00
     7.367E+00    7.236E+00    7.104E+00    6.971E+00    6.836E+00    6.701E+00    6.563E+00    6.425E+00    6.285E+00    6.144E+00
     6.001E+00    5.856E+00    5.710E+00    5.562E+00    5.411E+00    5.260E+00    5.106E+00    4.950E+00    4.792E+00    4.631E+00
     4.469E+00    4.304E+00    4.137E+00    3.968E+00    3.796E+00    3.622E+00    3.445E+00    3.266E+00    3.085E+00    2.901E+00
     2.714E+00    2.525E+00    2.334E+00    2.139E+00    1.943E+00    1.743E+00    1.541E+00    1.336E+00    1.129E+00    9.183E-01
     7.052E-01    4.893E-01    2.706E-01    4.898E-02   -1.755E-01   -4.028E-01   -6.331E-01   -8.664E-01   -1.103E+00   -1.342E+00
    -1.584E+00   -1.829E+00   -2.077E+00   -2.327E+00   -2.579E+00   -2.832E+00   -3.086E+00   -3.342E+00   -3.598E+00   -3.854E+00
    -4.111E+00   -4.367E+00   -4.622E+00   -4.876E+00   -5.129E+00   -5.380E+00   -5.629E+00   -5.876E+00   -6.120E+00   -6.361E+00
    -6.599E+00   -6.833E+00   -7.063E+00   -7.289E+00   -7.511E+00   -7.727E+00   -7.938E+00   -8.144E+00   -8.343E+00   -8.537E+00
    -8.724E+00   -8.904E+00   -9.078E+00   -9.245E+00   -9.405E+00   -9.559E+00   -9.706E+00   -9.847E+00   -9.981E+00   -1.011E+01
    -1.023E+01   -1.034E+01   -1.045E+01   -1.055E+01   -1.065E+01   -1.074E+01   -1.082E+01   -1.089E+01   -1.096E+01   -1.102E+01
    -1.108E+01   -1.113E+01   -1.117E+01   -1.121E+01   -1.124E+01   -1.127E+01   -1.128E+01   -1.130E+01   -1.130E+01   -1.130E+01
    -1.129E+01   -1.128E+01   -1.126E+01   -1.124E+01   -1.121E+01   -1.117E+01   -1.113E+01   -1.108E+01   -1.103E+01   -1.098E+01
    -1.092E+01   -1.086E+01   -1.079E+01   -1.072E+01   -1.064E+01   -1.057E+01   -1.048E+01   -1.040E+01   -1.031E+01   -1.023E+01
    -1.013E+01   -1.004E+01   -9.944E+00   -9.847E+00   -9.748E+00   -9.648E+00   -9.547E+00   -9.445E+00   -9.342E+00   -9.239E+00
    -9.135E+00   -9.031E+00   -8.927E+00   -8.823E+00   -8.719E+00   -8.616E+00   -8.512E+00   -8.410E+00   -8.307E+00   -8.206E+00
    -8.105E+00   -8.005E+00   -7.906E+00   -7.808E+00   -7.712E+00   -7.616E+00   -7.523E+00   -7.430E+00   -7.339E+00   -7.250E+00
    -7.163E+00   -7.078E+00   -6.995E+00   -6.914E+00   -6.835E+00   -6.759E+00   -6.685E+00   -6.614E+00   -6.545E+00   -6.480E+00
    -6.417E+00   -6.357E+00   -6.300E+00   -6.246E+00   -6.195E+00   -6.146E+00   -6.101E+00   -6.059E+00   -6.020E+00   -5.983E+00
    -5.950E+00   -5.919E+00   -5.892E+00   -5.867E+00   -5.846E+00   -5.827E+00   -5.811E+00   -5.798E+00   -5.788E+00   -5.782E+00
    -5.778E+00   -5.777E+00   -5.779E+00   -5.783E+00   -5.791E+00   -5.802E+00   -5.816E+00   -5.833E+00   -5.852E+00   -5.875E+00
    -5.900E+00   -5.929E+00   -5.960E+00   -5.994E+00   -6.031E+00   -6.070E+00   -6.112E+00   -6.156E+00   -6.203E+00   -6.251E+00
    -6.302E+00   -6.355E+00   -6.410E+00   -6.467E+00   -6.526E+00   -6.587E+00   -6.649E+00   -6.713E+00   -6.778E+00   -6.845E+00
    -6.914E+00   -6.983E+00   -7.054E+00   -7.126E+00   -7.199E+00   -7.273E+00   -7.348E+00   -7.424E+00   -7.501E+00   -7.578E+00
    -7.656E+00   -7.734E+00   -7.813E+00   -7.892E+00   -7.972E+00   -8.053E+00   -8.134E+00   -8.215E+00   -8.297E+00   -8.379E+00
    -8.462E+00   -8.545E+00   -8.628E+00   -8.711E+00   -8.795E+00   -8.880E+00   -8.964E+00   -9.049E+00   -9.134E+00   -9.219E+00
    -9.304E+00   -9.390E+00   -9.476E+00   -9.561E+00   -9.647E+00   -9.733E+00   -9.819E+00   -9.905E+00   -9.992E+00   -1.008E+01
 Mac      Conc. = 2.93E-04
  -1.16832E+01 -1.20410E+01 -1.24396E+01 -1.28721E+01 -1.33776E+01 -1.40418E+01 -1.48887E+01 -1.58763E+01 -1.69255E+01 -1.79555E+01
  -1.88982E+01 -1.98011E+01 -2.07157E+01 -2.16866E+01 -2.25872E+01 -2.31166E+01 -2.31411E+01 -2.27282E+01 -2.18552E+01 -2.03107E+01
  -1.79776E+01 -1.51466E+01 -1.21896E+01 -9.26626E+00 -6.42820E+00 -3.83854E+00 -1.63493E+00  2.95935E-01  2.14260E+00  3.91570E+00
   5.60474E+00  7.15975E+00  8.44482E+00  9.45156E+00  1.03184E+01  1.12414E+01  1.22216E+01  1.31473E+01  1.40084E+01  1.49304E+01
   1.60197E+01  1.72228E+01  1.83941E+01  1.94148E+01  2.02912E+01  2.10506E+01  2.16556E+01  2.20312E+01  2.21496E+01  2.20172E+01
   2.16109E+01  2.09604E+01  2.01435E+01  1.93048E+01  1.86423E+01  1.82444E+01  1.81200E+01  1.82872E+01  1.88108E+01  1.96527E+01
   2.06553E+01  2.16379E+01  2.24798E+01  2.31728E+01  2.36550E+01  2.38079E+01  2.36232E+01  2.32723E+01  2.30294E+01  2.30729E+01
   2.34440E+01  2.41156E+01  2.50627E+01  2.62884E+01  2.76157E+01  2.88051E+01  2.97000E+01  3.02836E+01  3.05123E+01  3.03960E+01
   3.00539E+01  2.96901E+01  2.94327E+01  2.93129E+01  2.93788E+01  2.96443E+01  3.01128E+01  3.07071E+01  3.13564E+01  3.20211E+01
   3.26691E+01  3.32367E+01  3.36270E+01  3.37535E+01  3.35266E+01  3.29221E+01  3.19310E+01  3.06169E+01  2.89829E+01  2.70848E+01
   2.49997E+01  2.27587E+01  2.02926E+01  1.73942E+01  1.38802E+01  9.80584E+00  5.43886E+00  1.03581E+00 -3.16570E+00 -6.84629E+00
