 
 $NMID
 ID=''
 FMTDAT='(2E13.5)'
 TRAMP=   1.00000E+0
 VOLUME=   1.00000E+0
 $END
  -5.49901E+4   4.84597E+5
  -5.81107E+5   1.16156E+6
  -4.27339E+5   1.19419E+6
  -4.75916E+5   1.08090E+6
  -5.61638E+5   1.09214E+6
  -5.58177E+5   1.05874E+6
  -5.99847E+5   9.94514E+5
  -6.44049E+5   1.00873E+6
  -6.29421E+5   9.96158E+5
  -6.54853E+5   9.53386E+5
  -6.79230E+5   9.46260E+5
  -6.69754E+5   9.18979E+5
  -6.89581E+5   8.83181E+5
  -7.06033E+5   8.74865E+5
  -7.01042E+5   8.49156E+5
  -7.13422E+5   8.20535E+5
  -7.30100E+5   8.13875E+5
  -7.36024E+5   7.82638E+5
  -7.54268E+5   7.44287E+5
  -7.64868E+5   7.24963E+5
  -7.70267E+5   6.92652E+5
  -7.85596E+5   6.60285E+5
  -7.91623E+5   6.41033E+5
  -7.93313E+5   6.12654E+5
  -8.02690E+5   5.82508E+5
  -8.01293E+5   5.67117E+5
  -7.97123E+5   5.45835E+5
  -8.00388E+5   5.25480E+5
  -7.97421E+5   5.07070E+5
  -7.92828E+5   4.84542E+5
  -7.98491E+5   4.60595E+5
  -7.97567E+5   4.39407E+5
  -7.95855E+5   4.13152E+5
  -7.97776E+5   3.89235E+5
  -7.95222E+5   3.65958E+5
  -7.92745E+5   3.39355E+5
  -7.94908E+5   3.15634E+5
  -7.92586E+5   2.92702E+5
  -7.86561E+5   2.69087E+5
  -7.83032E+5   2.50333E+5
  -7.76862E+5   2.33273E+5
  -7.69723E+5   2.14704E+5
  -7.62897E+5   1.99027E+5
  -7.55939E+5   1.84527E+5
  -7.48591E+5   1.68077E+5
  -7.43041E+5   1.52990E+5
  -7.36721E+5   1.36710E+5
  -7.29000E+5   1.17061E+5
  -7.20335E+5   9.94098E+4
  -7.12119E+5   8.30340E+4
  -7.05110E+5   6.60961E+4
  -6.97164E+5   4.88327E+4
  -6.88302E+5   3.30910E+4
  -6.80388E+5   1.76614E+4
  -6.72326E+5   3.46067E+3
  -6.62301E+5  -1.00139E+4
  -6.52057E+5  -2.22437E+4
  -6.42121E+5  -3.38948E+4
  -6.32052E+5  -4.45707E+4
  -6.22939E+5  -5.52103E+4
  -6.13572E+5  -6.58821E+4
  -6.03946E+5  -7.59956E+4
  -5.94103E+5  -8.62916E+4
  -5.83517E+5  -9.73305E+4
  -5.72075E+5  -1.07913E+5
  -5.61063E+5  -1.17069E+5
  -5.50461E+5  -1.25926E+5
  -5.39406E+5  -1.34473E+5
  -5.28852E+5  -1.42773E+5
  -5.18593E+5  -1.51021E+5
  -5.07850E+5  -1.58700E+5
  -4.96494E+5  -1.65034E+5
  -4.86199E+5  -1.71224E+5
  -4.76047E+5  -1.77660E+5
  -4.65092E+5  -1.83632E+5
  -4.54152E+5  -1.89480E+5
  -4.43449E+5  -1.95061E+5
  -4.32575E+5  -2.00676E+5
  -4.22053E+5  -2.06485E+5
  -4.10460E+5  -2.11782E+5
  -3.99629E+5  -2.16681E+5
  -3.88880E+5  -2.21108E+5
  -3.78374E+5  -2.25323E+5
  -3.67856E+5  -2.29608E+5
  -3.57102E+5  -2.33233E+5
  -3.47000E+5  -2.36030E+5
  -3.36986E+5  -2.38482E+5
  -3.27838E+5  -2.41345E+5
  -3.17973E+5  -2.43648E+5
  -3.08752E+5  -2.44850E+5
  -2.99507E+5  -2.46141E+5
  -2.90660E+5  -2.48086E+5
  -2.81494E+5  -2.49879E+5
  -2.71989E+5  -2.51146E+5
  -2.63078E+5  -2.52100E+5
  -2.54180E+5  -2.52974E+5
  -2.45958E+5  -2.53719E+5
  -2.37143E+5  -2.54672E+5
  -2.28715E+5  -2.55477E+5
  -2.20765E+5  -2.55612E+5
  -2.12819E+5  -2.55521E+5
  -2.04695E+5  -2.55848E+5
  -1.96898E+5  -2.55245E+5
  -1.89395E+5  -2.54564E+5
  -1.82675E+5  -2.53630E+5
  -1.76008E+5  -2.52459E+5
  -1.69100E+5  -2.52114E+5
  -1.61754E+5  -2.50795E+5
  -1.54859E+5  -2.49628E+5
  -1.48428E+5  -2.47937E+5
  -1.42514E+5  -2.46517E+5
  -1.36323E+5  -2.45247E+5
  -1.29818E+5  -2.43856E+5
  -1.23387E+5  -2.42356E+5
  -1.17536E+5  -2.40761E+5
  -1.11719E+5  -2.39097E+5
  -1.05798E+5  -2.37409E+5
  -9.98568E+4  -2.35491E+5
  -9.45185E+4  -2.32887E+5
  -8.96775E+4  -2.30499E+5
  -8.46896E+4  -2.28639E+5
  -7.95583E+4  -2.26811E+5
  -7.47041E+4  -2.24531E+5
  -7.00872E+4  -2.22208E+5
  -6.50574E+4  -2.19974E+5
  -6.06348E+4  -2.17332E+5
  -5.60435E+4  -2.14811E+5
  -5.16876E+4  -2.12367E+5
  -4.76429E+4  -2.10059E+5
  -4.35985E+4  -2.08019E+5
  -3.91051E+4  -2.05394E+5
  -3.45625E+4  -2.02918E+5
  -3.10109E+4  -2.00297E+5
  -2.72308E+4  -1.97862E+5
  -2.32953E+4  -1.95719E+5
  -1.99392E+4  -1.92641E+5
  -1.67328E+4  -1.90084E+5
  -1.35430E+4  -1.87666E+5
  -1.04475E+4  -1.85053E+5
  -7.33303E+3  -1.82466E+5
  -4.42070E+3  -1.79677E+5
  -1.59616E+3  -1.77207E+5
   5.94448E+2  -1.74511E+5
   3.14225E+3  -1.72086E+5
   5.74331E+3  -1.69506E+5
   7.90940E+3  -1.67010E+5
   1.02189E+4  -1.64363E+5
   1.22442E+4  -1.61636E+5
   1.42848E+4  -1.59063E+5
   1.60427E+4  -1.56586E+5
   1.77937E+4  -1.53783E+5
   1.95139E+4  -1.51350E+5
   2.07263E+4  -1.48993E+5
   2.24330E+4  -1.46813E+5
   2.40987E+4  -1.44156E+5
   2.49679E+4  -1.41959E+5
   2.62117E+4  -1.39518E+5
   2.74013E+4  -1.37300E+5
   2.88263E+4  -1.35096E+5
   2.97177E+4  -1.32416E+5
   3.06239E+4  -1.30442E+5
   3.14267E+4  -1.28211E+5
   3.23448E+4  -1.26122E+5
   3.32106E+4  -1.24036E+5
   3.37765E+4  -1.21728E+5
   3.45190E+4  -1.19561E+5
   3.52797E+4  -1.17647E+5
   3.59054E+4  -1.15804E+5
   3.63773E+4  -1.13932E+5
   3.69354E+4  -1.11757E+5
   3.70637E+4  -1.09920E+5
   3.74494E+4  -1.08008E+5
   3.79383E+4  -1.06315E+5
   3.82462E+4  -1.04389E+5
   3.84195E+4  -1.02516E+5
   3.85626E+4  -1.00815E+5
   3.88578E+4  -9.92487E+4
   3.93639E+4  -9.75961E+4
   3.93967E+4  -9.54430E+4
   3.93210E+4  -9.37879E+4
   3.95562E+4  -9.21662E+4
   3.99787E+4  -9.07038E+4
   3.97640E+4  -8.91751E+4
   4.01227E+4  -8.73245E+4
   3.96988E+4  -8.58716E+4
   4.00383E+4  -8.41088E+4
   3.98626E+4  -8.26900E+4
   4.00029E+4  -8.13430E+4
   4.00099E+4  -7.99324E+4
   3.97958E+4  -7.86344E+4
   4.00402E+4  -7.72822E+4
   3.99657E+4  -7.58501E+4
   3.99735E+4  -7.45171E+4
   3.99881E+4  -7.30278E+4
   3.99878E+4  -7.17916E+4
   4.01561E+4  -7.05070E+4
   4.00894E+4  -6.91505E+4
   4.02427E+4  -6.77741E+4
   4.01215E+4  -6.65934E+4
   4.04169E+4  -6.52512E+4
   4.04053E+4  -6.39589E+4
   4.06230E+4  -6.25955E+4
   4.04501E+4  -6.14360E+4
   4.05697E+4  -6.04520E+4
   4.06025E+4  -5.93900E+4
   4.04021E+4  -5.79600E+4
   4.03875E+4  -5.68595E+4
   4.05320E+4  -5.56282E+4
   4.03788E+4  -5.44395E+4
   4.06273E+4  -5.36381E+4
   4.04662E+4  -5.22661E+4
   4.04892E+4  -5.08812E+4
   4.03754E+4  -5.02096E+4
   4.04348E+4  -4.91063E+4
   4.05648E+4  -4.84115E+4
   4.05174E+4  -4.72090E+4
   4.04336E+4  -4.63002E+4
   4.03807E+4  -4.52041E+4
   4.03533E+4  -4.45830E+4
   4.00874E+4  -4.34484E+4
   3.98857E+4  -4.29150E+4
   3.99061E+4  -4.18724E+4
   3.97148E+4  -4.10774E+4
   3.97474E+4  -4.01950E+4
   3.97977E+4  -3.94482E+4
   3.94774E+4  -3.86776E+4
   3.93992E+4  -3.76514E+4
   3.90589E+4  -3.73880E+4
   3.90573E+4  -3.65447E+4
   3.89021E+4  -3.59350E+4
   3.85964E+4  -3.50817E+4
   3.85091E+4  -3.47544E+4
   3.79466E+4  -3.40977E+4
   3.78678E+4  -3.37159E+4
   3.76983E+4  -3.31019E+4
   3.75949E+4  -3.26255E+4
   3.71219E+4  -3.22928E+4
   3.69451E+4  -3.17110E+4
   3.68311E+4  -3.13482E+4
   3.64116E+4  -3.06235E+4
   3.60086E+4  -3.02154E+4
   3.58758E+4  -2.98608E+4
   3.58252E+4  -2.95851E+4
   3.55824E+4  -2.90979E+4
   3.52922E+4  -2.86161E+4
   3.51584E+4  -2.83338E+4
   3.47532E+4  -2.79813E+4
   3.45586E+4  -2.74795E+4
   3.42080E+4  -2.69436E+4
   3.42443E+4  -2.67670E+4
   3.35271E+4  -2.61489E+4
   3.36647E+4  -2.57722E+4
   3.33169E+4  -2.55172E+4
   3.30341E+4  -2.49728E+4
   3.30132E+4  -2.42293E+4
   3.25516E+4  -2.40583E+4
   3.26573E+4  -2.35106E+4
   3.22063E+4  -2.30427E+4
   3.19292E+4  -2.26301E+4
   3.19390E+4  -2.23585E+4
   3.17141E+4  -2.18837E+4
   3.15308E+4  -2.13351E+4
   3.13095E+4  -2.08449E+4
   3.10461E+4  -2.03893E+4
   3.09426E+4  -1.99628E+4
   3.08506E+4  -1.97222E+4
   3.07762E+4  -1.90711E+4
   3.04076E+4  -1.84637E+4
   3.04242E+4  -1.79891E+4
   3.01501E+4  -1.76680E+4
   3.00565E+4  -1.71107E+4
   2.99271E+4  -1.69815E+4
   2.99579E+4  -1.64286E+4
   2.97859E+4  -1.58567E+4
   2.94314E+4  -1.56419E+4
   2.97487E+4  -1.50442E+4
   2.96803E+4  -1.45452E+4
   2.95202E+4  -1.42239E+4
   2.91565E+4  -1.35930E+4
   2.90775E+4  -1.31045E+4
   2.91725E+4  -1.28504E+4
   2.91094E+4  -1.24960E+4
   2.87463E+4  -1.20886E+4
   2.90304E+4  -1.15931E+4
   2.88466E+4  -1.10832E+4
   2.86599E+4  -1.06398E+4
   2.85788E+4  -1.04563E+4
   2.84363E+4  -1.03816E+4
   2.84773E+4  -9.93784E+3
   2.82489E+4  -9.60954E+3
   2.85106E+4  -9.23606E+3
   2.83201E+4  -8.79771E+3
   2.80383E+4  -8.47510E+3
   2.78925E+4  -8.30577E+3
   2.79798E+4  -7.97857E+3
   2.81971E+4  -7.77564E+3
   2.77520E+4  -7.37758E+3
   2.75451E+4  -7.12084E+3
   2.77180E+4  -6.96620E+3
   2.74408E+4  -6.71011E+3
   2.72006E+4  -6.43310E+3
   2.73711E+4  -6.28214E+3
   2.73361E+4  -5.98387E+3
   2.71208E+4  -5.56323E+3
   2.67704E+4  -5.34038E+3
   2.67237E+4  -5.18956E+3
   2.67646E+4  -4.84705E+3
   2.63918E+4  -4.87691E+3
   2.63933E+4  -4.19979E+3
   2.62837E+4  -4.49025E+3
   2.59720E+4  -3.98887E+3
   2.58181E+4  -3.87027E+3
   2.55938E+4  -3.77875E+3
   2.55965E+4  -3.25105E+3
   2.55011E+4  -3.19456E+3
   2.51682E+4  -3.03446E+3
   2.49971E+4  -3.06488E+3
   2.49398E+4  -2.51963E+3
   2.48029E+4  -2.51052E+3
   2.45987E+4  -2.05134E+3
   2.43651E+4  -1.90994E+3
   2.41253E+4  -1.92729E+3
   2.38669E+4  -1.75632E+3
   2.39671E+4  -1.37183E+3
   2.36963E+4  -1.36908E+3
   2.34444E+4  -1.26539E+3
   2.35097E+4  -1.04401E+3
   2.33578E+4  -8.93365E+2
   2.31954E+4  -6.59254E+2
   2.28313E+4  -3.07367E+2
   2.26864E+4  -3.33999E+2
   2.26091E+4   1.74207E+2
   2.24120E+4  -2.22144E+1
   2.23237E+4   2.35871E+2
   2.23216E+4   3.68704E+2
   2.21410E+4   4.20234E+2
   2.18352E+4   8.19577E+2
   2.17974E+4   1.04517E+3
   2.16553E+4   8.38712E+2
   2.13488E+4   1.01443E+3
   2.15353E+4   1.35254E+3
   2.12444E+4   1.49943E+3
   2.10734E+4   1.53525E+3
   2.10991E+4   1.71723E+3
   2.07096E+4   1.51298E+3
   2.06826E+4   2.04258E+3
   2.04324E+4   2.21480E+3
   2.05779E+4   2.46795E+3
   2.00797E+4   2.35517E+3
   2.03217E+4   2.26631E+3
   2.00188E+4   2.52146E+3
   1.99427E+4   2.64675E+3
   1.98096E+4   2.98925E+3
   1.97673E+4   3.00120E+3
   1.96462E+4   3.10954E+3
   1.93551E+4   3.23710E+3
   1.91723E+4   3.37442E+3
   1.92162E+4   3.03606E+3
   1.92521E+4   3.61554E+3
   1.89418E+4   3.69632E+3
   1.86284E+4   3.88531E+3
   1.87132E+4   3.81042E+3
   1.86123E+4   3.94290E+3
   1.85034E+4   3.92122E+3
   1.83334E+4   4.13952E+3
   1.83932E+4   4.28285E+3
   1.81774E+4   4.48620E+3
