 LCModel (Version 6.3-1N) Copyright: S.W. Provencher.          Ref.: Magn. Reson. Med. 30:672-679 (1993).                
 Slice_N1@18_19  28-Feb-2025 11:38:35
 27 lines in following concentration table = NCONC+1
    Conc.  %SD /Cr+PCr  Metabolite                                         
 3.25E-04   4% 3.2E-04 Mac                                                 
    3.464  26%   3.363 Cr                                                  
    4.776  18%   4.637 PCr                                                 
    7.956  11%   7.724 Ins                                                 
   10.407   7%  10.103 NAA                                                 
    6.859  12%   6.659 Tau                                                 
    0.867  96%   0.841 PCho                                                
    0.874  90%   0.849 GPC                                                 
   10.808  10%  10.493 Glu                                                 
    3.432  23%   3.332 Gln                                                 
    0.000 999%   0.000 Ala                                                 
    1.726  67%   1.676 Asc                                                 
    1.907  46%   1.852 Asp                                                 
    0.540  88%   0.525 GABA                                                
    0.404 149%   0.392 Glc                                                 
    1.357  32%   1.317 GSH                                                 
    1.846  36%   1.792 Lac                                                 
    0.988  55%   0.959 NAAG                                                
    1.023 106%   0.994 PE                                                  
    1.741  16%   1.690 GPC+PCho                                            
   11.395   7%  11.063 NAA+NAAG                                            
   14.241   9%  13.825 Glu+Gln                                             
    8.240   9%   8.000 Cr+PCr                                              
   11.395   7%  11.063 NAA+NAAG                                            
    8.240   9%   8.000 Cr+PCr                                              
   14.241   9%  13.825 Glu+Gln                                             
   6 lines in following misc. output table
  FWHM = 0.016 ppm    S/N =   5                                            
  Data shift = 0.024 ppm                                                   
  Ph: -88 deg       0.0 deg/ppm                                            
  alphaB,S = 1.1E-01,   6.4E+00                                            
   19 spline knots.   Ns = 5(1)                                            
  ( 4) 2 infls.   ( 4) 1 extrs.                                            
  480 points on ppm-axis = NY
      4.100000     4.091866     4.083733     4.075600     4.067466     4.059333     4.051199     4.043066     4.034933     4.026799
      4.018666     4.010532     4.002399     3.994265     3.986132     3.977998     3.969864     3.961731     3.953597     3.945463
      3.937330     3.929196     3.921062     3.912929     3.904795     3.896662     3.888528     3.880394     3.872261     3.864127
      3.855993     3.847860     3.839726     3.831592     3.823459     3.815325     3.807191     3.799058     3.790924     3.782790
      3.774657     3.766523     3.758389     3.750256     3.742122     3.733989     3.725855     3.717721     3.709588     3.701454
      3.693320     3.685187     3.677053     3.668919     3.660786     3.652652     3.644518     3.636385     3.628251     3.620117
      3.611984     3.603850     3.595716     3.587583     3.579449     3.571316     3.563182     3.555048     3.546915     3.538781
      3.530647     3.522514     3.514380     3.506246     3.498113     3.489979     3.481845     3.473712     3.465578     3.457444
      3.449311     3.441177     3.433043     3.424910     3.416776     3.408643     3.400509     3.392375     3.384242     3.376108
      3.367974     3.359841     3.351707     3.343573     3.335440     3.327306     3.319172     3.311039     3.302905     3.294771
      3.286638     3.278504     3.270370     3.262237     3.254103     3.245970     3.237836     3.229702     3.221569     3.213435
      3.205301     3.197168     3.189034     3.180900     3.172767     3.164633     3.156499     3.148366     3.140232     3.132098
      3.123965     3.115831     3.107697     3.099564     3.091430     3.083297     3.075163     3.067029     3.058896     3.050762
      3.042628     3.034495     3.026361     3.018227     3.010094     3.001960     2.993826     2.985693     2.977559     2.969425
      2.961292     2.953158     2.945024     2.936891     2.928757     2.920624     2.912490     2.904356     2.896223     2.888089
      2.879955     2.871822     2.863688     2.855554     2.847421     2.839287     2.831153     2.823020     2.814886     2.806752
      2.798619     2.790485     2.782351     2.774218     2.766084     2.757951     2.749817     2.741683     2.733550     2.725416
      2.717282     2.709149     2.701015     2.692881     2.684748     2.676614     2.668480     2.660347     2.652213     2.644079
      2.635946     2.627812     2.619678     2.611545     2.603411     2.595278     2.587144     2.579010     2.570877     2.562743
      2.554609     2.546476     2.538342     2.530208     2.522075     2.513941     2.505807     2.497674     2.489540     2.481406
      2.473273     2.465139     2.457006     2.448872     2.440738     2.432605     2.424471     2.416337     2.408204     2.400070
      2.391936     2.383803     2.375669     2.367535     2.359402     2.351268     2.343134     2.335001     2.326867     2.318733
      2.310600     2.302466     2.294333     2.286199     2.278065     2.269932     2.261798     2.253664     2.245531     2.237397
      2.229263     2.221130     2.212996     2.204862     2.196729     2.188595     2.180461     2.172328     2.164194     2.156060
      2.147927     2.139793     2.131660     2.123526     2.115392     2.107259     2.099125     2.090991     2.082858     2.074724
      2.066590     2.058457     2.050323     2.042189     2.034056     2.025922     2.017788     2.009655     2.001521     1.993387
      1.985254     1.977120     1.968987     1.960853     1.952719     1.944586     1.936452     1.928318     1.920185     1.912051
      1.903917     1.895784     1.887650     1.879516     1.871383     1.863249     1.855115     1.846982     1.838848     1.830714
      1.822581     1.814447     1.806314     1.798180     1.790046     1.781913     1.773779     1.765645     1.757512     1.749378
      1.741244     1.733111     1.724977     1.716843     1.708710     1.700576     1.692442     1.684309     1.676175     1.668041
      1.659908     1.651774     1.643641     1.635507     1.627373     1.619240     1.611106     1.602972     1.594839     1.586705
      1.578571     1.570438     1.562304     1.554170     1.546037     1.537903     1.529769     1.521636     1.513502     1.505368
      1.497235     1.489101     1.480968     1.472834     1.464700     1.456567     1.448433     1.440299     1.432166     1.424032
      1.415898     1.407765     1.399631     1.391497     1.383364     1.375230     1.367096     1.358963     1.350829     1.342695
      1.334562     1.326428     1.318295     1.310161     1.302027     1.293894     1.285760     1.277626     1.269493     1.261359
      1.253225     1.245092     1.236958     1.228824     1.220691     1.212557     1.204423     1.196290     1.188156     1.180022
      1.171889     1.163755     1.155622     1.147488     1.139354     1.131221     1.123087     1.114953     1.106820     1.098686
      1.090552     1.082419     1.074285     1.066151     1.058018     1.049884     1.041750     1.033617     1.025483     1.017349
      1.009216     1.001082     0.992949     0.984815     0.976681     0.968548     0.960414     0.952280     0.944147     0.936013
      0.927879     0.919746     0.911612     0.903478     0.895345     0.887211     0.879077     0.870944     0.862810     0.854676
      0.846543     0.838409     0.830276     0.822142     0.814008     0.805875     0.797741     0.789607     0.781474     0.773340
      0.765206     0.757073     0.748939     0.740805     0.732672     0.724538     0.716404     0.708271     0.700137     0.692003
      0.683870     0.675736     0.667603     0.659469     0.651335     0.643202     0.635068     0.626934     0.618801     0.610667
      0.602533     0.594400     0.586266     0.578132     0.569999     0.561865     0.553731     0.545598     0.537464     0.529330
      0.521197     0.513063     0.504930     0.496796     0.488662     0.480529     0.472395     0.464261     0.456128     0.447994
      0.439861     0.431727     0.423593     0.415460     0.407326     0.399192     0.391059     0.382925     0.374792     0.366658
      0.358524     0.350391     0.342257     0.334124     0.325990     0.317856     0.309723     0.301589     0.293455     0.285322
      0.277188     0.269055     0.260921     0.252787     0.244654     0.236520     0.228386     0.220253     0.212119     0.203986
 NY phased data points follow
  -7.72358E+01 -6.33260E+01 -7.41127E+01 -8.76248E+01 -7.23467E+01 -7.66973E+01 -6.22224E+01 -5.80025E+01 -6.27450E+01 -7.92366E+01
  -8.91438E+01 -8.13597E+01 -9.42099E+01 -1.01120E+02 -9.87999E+01 -1.09233E+02 -1.05988E+02 -1.02084E+02 -1.32195E+02 -1.44989E+02
  -1.55568E+02 -1.38617E+02 -8.35774E+01 -8.70261E+01 -5.28775E+01  9.23184E-02 -3.12125E+01 -3.36712E+01 -2.04762E+01 -2.71888E+01
  -1.89711E+01 -3.33533E+01 -3.96625E+01 -2.40634E+01 -3.53470E+01 -4.78435E+01 -3.54016E+01 -4.86107E+01 -6.17228E+01 -7.15387E+01
  -1.10601E+02 -1.04784E+02 -8.97372E+01 -8.43947E+01 -6.13421E+01 -4.08489E+01 -9.12698E+00 -7.29765E+00  1.15462E+01  3.17772E+01
   3.38623E+00  6.77263E-01  2.93070E+00 -5.76681E+00 -3.34262E+01 -3.87132E+01 -3.71603E+01 -5.76168E+01 -4.79270E+01 -8.18590E+01
  -7.03517E+01 -3.00484E+01 -5.37967E+01 -3.00368E+01 -2.91412E+00  4.27412E+00  1.26850E+00 -1.15628E+01 -2.56973E+01 -8.13537E+01
  -1.00901E+02 -5.16328E+01 -4.71347E+01 -6.13159E+01 -1.03131E+01  2.02632E+01  7.88131E+00  1.47675E+00  1.10013E+01  1.89699E+01
   2.18991E+01  1.75203E+01 -5.29580E+00 -1.61725E+01 -4.45831E+01 -6.07987E+01 -4.24462E+01 -2.69310E+01 -6.78026E+00  1.58849E+01
   2.60185E+01  1.80383E+01  2.67368E+01  3.16224E+01  3.01183E+01  4.26782E+01  5.87509E+01  6.69494E+01  6.12991E+01  4.14201E+01
   2.04314E+01  3.58376E+01  1.27177E+01 -2.16681E+01 -1.93208E+01 -4.66943E+01 -6.29417E+01 -5.99698E+01 -6.17555E+01 -8.83522E+01
  -1.62735E+02 -2.09892E+02 -1.64222E+02 -1.20746E+02 -1.09890E+02 -8.66631E+01 -7.30506E+01 -5.19150E+01 -4.97504E+01 -4.70668E+01
  -3.10622E+01 -3.39000E+01 -3.14356E+01 -2.26007E+01 -1.22504E+01 -1.82629E+00  1.12775E+01  2.07456E+01  4.40116E+01  6.21514E+01
   1.00281E+02  1.38915E+02  4.20839E+01 -1.05679E+02 -1.50383E+02 -1.34628E+02 -1.30015E+02 -1.16239E+02 -1.12434E+02 -1.02444E+02
  -9.47618E+01 -1.10965E+02 -1.06401E+02 -1.08890E+02 -9.30707E+01 -9.70311E+01 -1.01654E+02 -8.55511E+01 -9.75186E+01 -7.96192E+01
  -8.32481E+01 -8.84349E+01 -7.18865E+01 -6.80439E+01 -6.30004E+01 -7.34358E+01 -6.43481E+01 -5.80232E+01 -7.31137E+01 -7.32757E+01
  -6.63729E+01 -4.84296E+01 -4.49144E+01 -5.74125E+01 -3.97494E+01 -5.74524E+01 -6.91029E+01 -3.63182E+01 -5.07381E+01 -4.80034E+01
  -4.20242E+01 -4.43879E+01 -9.44736E+00 -6.93795E-01 -2.07433E+01 -4.27193E+01 -3.64162E+01 -1.44491E+01  6.20179E-01 -1.81606E+01
  -5.85078E+01 -6.45955E+01 -7.48885E+01 -7.04069E+01 -7.84476E+01 -9.39084E+01 -7.88857E+01 -8.35365E+01 -7.56253E+01 -7.85660E+01
  -6.33928E+01 -5.60491E+01 -6.99551E+01 -5.57235E+01 -3.68731E+01 -1.67007E+01 -7.10490E+01 -6.30022E+01 -3.34798E+01 -5.43671E+01
  -3.83893E+01 -5.09220E+01 -2.35351E+01 -2.88658E+01 -4.54722E+01 -4.23122E+01 -5.07929E+01 -5.06177E+01 -7.68294E+01 -7.02497E+01
  -8.66580E+01 -7.62787E+01 -6.09669E+01 -6.41584E+01 -3.57480E+01 -2.10982E+01  1.94538E+01  3.55892E+01  3.11686E+01  1.98816E+01
  -2.77732E+00 -1.39315E+01 -2.37951E+01 -1.62350E+01 -2.34699E+01 -2.92016E+01 -8.98123E+00 -1.11647E+01 -1.94372E+01 -2.44318E+01
  -2.89584E+01 -2.40048E+01 -4.25811E+01 -5.02548E+01 -5.67815E+01 -7.80131E+01 -9.27999E+01 -9.35667E+01 -1.09786E+02 -1.22646E+02
  -9.93012E+01 -1.06721E+02 -8.31604E+01 -5.47900E+01 -5.62525E+01 -4.78196E+01 -4.34892E+01 -5.78215E+01 -5.95503E+01 -5.78703E+01
  -8.64594E+01 -6.04095E+01 -8.39319E+01 -9.07016E+01 -7.62514E+01 -1.01973E+02 -1.51045E+02 -1.61130E+02  1.01144E+02  2.18433E+02
   1.49358E+02  1.54024E+02  1.18615E+02  1.07007E+02  8.50206E+01  7.89490E+01  6.13363E+01  4.56199E+01  4.65917E+01  4.42406E+01
   4.39464E+01  2.92709E+01  4.94687E+01  4.51289E+01  3.35478E+01  2.60104E+01  3.39220E+01  2.92908E+01  1.66745E+01  3.33294E+01
   2.78147E+01  2.73787E+01  1.27591E+01  8.47013E+00  3.55727E+00 -2.82759E-01  6.10365E+00 -9.01173E+00 -8.53892E+00 -2.75077E+01
  -1.62985E+01 -6.58139E+00 -3.39598E+01 -2.80421E+01 -3.39926E+01 -4.15616E+01 -4.97956E+01 -3.66061E+01 -4.25189E+01 -6.68911E+01
  -3.87163E+01 -3.90226E+01 -2.37333E+01 -1.65102E+01 -2.52240E+01 -4.71814E+00 -9.65531E-01  7.28332E+00  1.02145E+01  1.84932E+01
   3.24693E+01  5.39540E+01  5.78380E+01  5.55839E+01  4.92955E+01  4.61064E+01  6.23254E+01  5.87928E+01  7.49304E+01  7.85440E+01
   8.69754E+01  8.78172E+01  8.18218E+01  8.79068E+01  8.10155E+01  7.99679E+01  5.54499E+01  5.33723E+01  4.52011E+01  2.62025E+01
   1.78293E+01 -3.13624E+00 -1.99574E+01 -2.08507E+01 -2.88719E+01 -2.68239E+01 -5.46560E+00 -1.47209E+01  5.09180E-01 -6.70933E-01
   1.13673E+01  2.05401E+01 -3.40096E+00  2.18278E+00 -5.02780E+00  8.23405E+00  1.23181E+01  1.76459E+01  1.42741E+01  5.88685E+00
   8.73128E+00  6.95631E+00  4.01200E+00 -1.64856E+00  1.97946E+01  4.81721E+00 -2.23008E+00 -8.30922E+00 -1.04957E+01 -2.24185E+00
  -7.44411E+00  4.43677E+00 -1.35324E+01 -1.04911E+01  7.04926E+00  2.23372E+01  3.04043E+01  2.19753E+01  2.47833E+01  2.38128E+01
   2.06587E+01  3.47513E+01  3.92316E+01  3.23141E+01  4.81045E+01  4.78306E+01  5.51328E+01  5.74597E+01  5.55262E+01  5.85799E+01
   6.35006E+01  7.59100E+01  8.12559E+01  1.03029E+02  9.43067E+01  9.80418E+01  1.06226E+02  1.08556E+02  1.26153E+02  1.30607E+02
   1.29636E+02  1.00543E+02  9.20945E+01  9.08746E+01  6.59667E+01  4.81074E+01  4.81762E+01  4.82513E+01  4.36373E+01  2.14591E+01
  -6.98994E-01  3.83756E+00 -1.51688E+01 -2.41273E+01 -2.57360E+01 -3.94091E+01 -4.03190E+01 -3.97614E+01 -3.81414E+01 -3.48661E+01
  -4.69765E+01 -4.55750E+01 -2.64951E+01 -3.63424E+01 -4.09538E+01 -4.08020E+01 -3.73073E+01 -3.51671E+01 -3.27806E+01 -3.61285E+01
  -3.98719E+01 -2.13313E+01 -3.59045E+01 -3.31366E+01 -2.79521E+01 -5.03104E+01 -3.81051E+01 -3.09848E+01 -4.21132E+01 -3.11158E+01
  -2.82313E+01 -4.23569E+01 -4.08644E+01 -3.50628E+01 -3.87442E+01 -4.03916E+01 -2.78384E+01 -4.37544E+01 -3.88582E+01 -2.48480E+01
  -4.05910E+01 -2.77007E+01 -3.13756E+01 -4.10573E+01 -4.36894E+01 -3.07483E+01 -2.48445E+01 -3.90526E+01 -3.40394E+01 -2.71403E+01
  -2.11147E+01 -3.21462E+01 -2.92567E+01 -2.51921E+01 -3.76060E+01 -3.61393E+01 -2.99025E+01 -3.08446E+01 -2.86075E+01 -2.27290E+01
  -2.53296E+01 -2.79164E+01 -4.04264E+01 -3.80196E+01 -3.28300E+01 -3.64039E+01 -3.31688E+01 -3.13871E+01 -4.06502E+01 -4.86518E+01
  -2.57062E+01 -2.96026E+01 -4.10794E+01 -2.86848E+01 -3.27185E+01 -2.95114E+01 -2.43338E+01 -2.01775E+01 -1.77951E+01 -3.33543E+01
 NY points of the fit to the data follow
  -8.72397E+01 -9.11043E+01 -9.68967E+01 -1.05334E+02 -1.09570E+02 -9.33664E+01 -6.28574E+01 -4.75399E+01 -5.56637E+01 -7.03364E+01
  -8.17300E+01 -8.84148E+01 -9.11581E+01 -9.17914E+01 -9.16239E+01 -9.29350E+01 -9.95074E+01 -1.05742E+02 -1.14668E+02 -1.31652E+02
  -1.48793E+02 -1.37028E+02 -9.46438E+01 -6.76294E+01 -4.52061E+01 -1.81259E+01 -1.76526E+01 -2.08962E+01 -1.98543E+01 -1.86793E+01
  -1.75668E+01 -1.85367E+01 -2.00083E+01 -2.11145E+01 -2.30974E+01 -2.63782E+01 -3.22457E+01 -3.84499E+01 -4.72715E+01 -6.36637E+01
  -8.92894E+01 -1.06929E+02 -9.86377E+01 -7.91456E+01 -5.85880E+01 -3.40193E+01 -1.29377E+01 -8.14133E-01  8.69586E-01  1.00961E+00
  -1.42187E+00 -5.59807E+00 -1.06430E+01 -1.73868E+01 -2.98739E+01 -4.53887E+01 -5.24398E+01 -5.17159E+01 -5.98532E+01 -7.38151E+01
  -6.45210E+01 -4.59264E+01 -4.30898E+01 -2.87080E+01 -3.88649E+00  5.04175E+00  6.60493E+00  7.58802E-01 -2.61814E+01 -6.59084E+01
  -8.20936E+01 -6.46275E+01 -5.10331E+01 -4.42720E+01 -2.25931E+01 -7.19190E-01  1.06087E+01  1.49466E+01  1.74334E+01  1.81185E+01
   1.61912E+01  6.52052E+00 -1.17764E+01 -3.44695E+01 -5.62040E+01 -6.04604E+01 -5.07142E+01 -3.39259E+01 -1.09353E+01  1.39588E+00
   8.38661E+00  1.30202E+01  1.68810E+01  2.10884E+01  2.58406E+01  2.97245E+01  3.38708E+01  3.80229E+01  3.77326E+01  3.10310E+01
   3.01523E+01  3.38634E+01  2.53669E+01  4.43634E+00 -1.07624E+01 -3.21729E+01 -5.81999E+01 -5.49328E+01 -4.69221E+01 -8.27507E+01
  -1.56549E+02 -1.97863E+02 -1.64532E+02 -1.22776E+02 -9.60491E+01 -7.85748E+01 -7.08048E+01 -6.34638E+01 -5.60152E+01 -4.87406E+01
  -4.20384E+01 -3.54680E+01 -2.83110E+01 -2.03453E+01 -1.07380E+01  1.85842E-01  1.37196E+01  3.61127E+01  5.46325E+01  7.42799E+01
   1.06161E+02  1.21371E+02  4.63457E+01 -9.80014E+01 -1.61720E+02 -1.41918E+02 -1.24046E+02 -1.05383E+02 -9.78978E+01 -9.66428E+01
  -9.72145E+01 -9.80913E+01 -9.87948E+01 -9.90852E+01 -9.85689E+01 -9.87133E+01 -9.74588E+01 -9.37630E+01 -8.99214E+01 -8.59871E+01
  -8.24960E+01 -7.92510E+01 -7.65731E+01 -7.49449E+01 -7.27058E+01 -6.92399E+01 -6.59812E+01 -6.46450E+01 -6.47256E+01 -6.40938E+01
  -6.15016E+01 -5.80397E+01 -5.68756E+01 -5.93837E+01 -6.22336E+01 -6.23068E+01 -6.05021E+01 -5.81940E+01 -5.76816E+01 -5.90526E+01
  -5.65818E+01 -4.37227E+01 -2.48575E+01 -1.86405E+01 -3.15352E+01 -4.26910E+01 -3.27459E+01 -1.47507E+01 -1.45706E+01 -3.39409E+01
  -5.46035E+01 -6.33174E+01 -6.52872E+01 -6.74663E+01 -6.85853E+01 -6.95686E+01 -6.95010E+01 -6.81235E+01 -6.63472E+01 -6.54183E+01
  -6.32931E+01 -6.08321E+01 -6.02290E+01 -5.76851E+01 -4.63866E+01 -3.57620E+01 -4.19362E+01 -4.49498E+01 -3.53551E+01 -3.27975E+01
  -3.41398E+01 -3.76710E+01 -3.41959E+01 -2.37964E+01 -2.65250E+01 -3.66667E+01 -4.57012E+01 -5.39276E+01 -6.29911E+01 -7.17812E+01
  -7.90305E+01 -8.27379E+01 -8.02816E+01 -7.00982E+01 -5.11945E+01 -2.19472E+01  1.63231E+01  3.23736E+01  3.02883E+01  2.75628E+01
   5.72683E+00 -1.19651E+01 -1.50192E+01 -1.44537E+01 -9.28706E+00 -6.79955E+00 -7.36999E+00 -1.09860E+01 -1.93340E+01 -2.96096E+01
  -4.10015E+01 -5.35529E+01 -6.57629E+01 -7.67903E+01 -8.79591E+01 -9.87452E+01 -1.07138E+02 -1.12564E+02 -1.14783E+02 -1.11520E+02
  -1.04292E+02 -9.77429E+01 -8.72329E+01 -7.57488E+01 -6.69158E+01 -5.71620E+01 -5.49546E+01 -5.64282E+01 -5.95545E+01 -6.73653E+01
  -6.81631E+01 -6.92245E+01 -8.35595E+01 -8.54572E+01 -8.56551E+01 -1.20570E+02 -1.80859E+02 -1.33129E+02  5.96947E+01  1.66660E+02
   1.47033E+02  1.22036E+02  8.86475E+01  7.24935E+01  6.59677E+01  6.22551E+01  5.86695E+01  5.44753E+01  5.03486E+01  4.70535E+01
   4.48076E+01  4.40037E+01  4.40426E+01  4.44736E+01  4.47667E+01  4.46574E+01  4.39266E+01  4.19189E+01  4.04590E+01  3.92320E+01
   3.76138E+01  3.54143E+01  3.26128E+01  3.03355E+01  2.86049E+01  2.66419E+01  2.40299E+01  2.16807E+01  1.93912E+01  1.65657E+01
   1.31715E+01  8.93565E+00  4.54154E+00  3.08233E-01 -4.11758E+00 -7.24766E+00 -8.21398E+00 -7.12739E+00 -4.06511E+00 -1.97950E-01
   3.42567E+00  6.84249E+00  1.08125E+01  1.48300E+01  1.83704E+01  2.15379E+01  2.42947E+01  2.68683E+01  2.98228E+01  3.36154E+01
   3.75728E+01  4.06955E+01  4.30416E+01  4.50654E+01  4.74310E+01  4.96534E+01  5.05796E+01  5.11247E+01  5.12889E+01  4.98753E+01
   4.74642E+01  4.52188E+01  4.25692E+01  3.88840E+01  3.49669E+01  3.08562E+01  2.57808E+01  1.90228E+01  9.03041E+00 -2.58037E+00
  -1.31037E+01 -2.18557E+01 -2.85605E+01 -3.25177E+01 -3.27544E+01 -2.92137E+01 -2.18219E+01 -1.30715E+01 -5.28053E+00  2.61704E+00
   7.72883E+00  6.44437E+00 -1.94380E+00 -9.68799E+00 -1.36602E+01 -1.43757E+01 -5.37882E+00  4.20308E+00  7.56490E+00  1.04277E+01
   1.08843E+01  9.87355E+00  7.40396E+00  3.73201E+00 -1.67048E+00 -7.96006E+00 -1.25261E+01 -1.43619E+01 -1.43948E+01 -1.27156E+01
  -9.48557E+00 -5.74652E+00 -1.25380E+00  3.41503E+00  8.08802E+00  1.27667E+01  1.66122E+01  2.00468E+01  2.32917E+01  2.64674E+01
   3.02801E+01  3.38325E+01  3.72185E+01  4.06528E+01  4.41724E+01  4.86048E+01  5.41659E+01  5.97884E+01  6.53076E+01  7.24759E+01
   8.07076E+01  8.82431E+01  9.62845E+01  1.05551E+02  1.15210E+02  1.23669E+02  1.30032E+02  1.32376E+02  1.29058E+02  1.19418E+02
   1.04437E+02  8.84737E+01  7.50848E+01  6.46034E+01  5.63223E+01  4.97803E+01  4.35513E+01  3.49717E+01  2.40983E+01  1.27276E+01
   1.49077E+00 -8.76209E+00 -1.61838E+01 -2.10822E+01 -2.47516E+01 -2.74964E+01 -2.91198E+01 -2.99168E+01 -3.08340E+01 -3.18824E+01
  -3.32394E+01 -3.43682E+01 -3.48657E+01 -3.45904E+01 -3.44116E+01 -3.47855E+01 -3.48555E+01 -3.43336E+01 -3.44258E+01 -3.52593E+01
  -3.53203E+01 -3.42702E+01 -3.39495E+01 -3.45753E+01 -3.47178E+01 -3.43361E+01 -3.42353E+01 -3.46593E+01 -3.49154E+01 -3.44182E+01
  -3.36434E+01 -3.33743E+01 -3.35281E+01 -3.39311E+01 -3.43548E+01 -3.44718E+01 -3.43117E+01 -3.38125E+01 -3.34114E+01 -3.30551E+01
  -3.28638E+01 -3.29987E+01 -3.28714E+01 -3.27275E+01 -3.29029E+01 -3.34573E+01 -3.36609E+01 -3.35600E+01 -3.32488E+01 -3.28799E+01
  -3.27809E+01 -3.26557E+01 -3.29398E+01 -3.31620E+01 -3.27655E+01 -3.23715E+01 -3.21179E+01 -3.18428E+01 -3.17820E+01 -3.18019E+01
  -3.16322E+01 -3.13619E+01 -3.13371E+01 -3.17031E+01 -3.20468E+01 -3.19159E+01 -3.19112E+01 -3.16491E+01 -3.09079E+01 -3.00353E+01
  -2.95312E+01 -2.97764E+01 -3.04892E+01 -3.10015E+01 -3.08950E+01 -3.04633E+01 -3.03721E+01 -3.00008E+01 -2.95580E+01 -2.95946E+01
 NY background values follow
    -5.170E+01   -5.151E+01   -5.132E+01   -5.113E+01   -5.094E+01   -5.075E+01   -5.055E+01   -5.036E+01   -5.016E+01   -4.996E+01
    -4.976E+01   -4.956E+01   -4.936E+01   -4.915E+01   -4.894E+01   -4.873E+01   -4.852E+01   -4.830E+01   -4.808E+01   -4.786E+01
    -4.763E+01   -4.740E+01   -4.716E+01   -4.693E+01   -4.668E+01   -4.644E+01   -4.619E+01   -4.593E+01   -4.567E+01   -4.541E+01
    -4.514E+01   -4.486E+01   -4.458E+01   -4.430E+01   -4.401E+01   -4.372E+01   -4.342E+01   -4.312E+01   -4.282E+01   -4.251E+01
    -4.220E+01   -4.189E+01   -4.157E+01   -4.125E+01   -4.093E+01   -4.061E+01   -4.029E+01   -3.996E+01   -3.964E+01   -3.931E+01
    -3.898E+01   -3.865E+01   -3.833E+01   -3.800E+01   -3.767E+01   -3.734E+01   -3.702E+01   -3.669E+01   -3.637E+01   -3.605E+01
    -3.572E+01   -3.541E+01   -3.509E+01   -3.477E+01   -3.446E+01   -3.415E+01   -3.384E+01   -3.354E+01   -3.324E+01   -3.294E+01
    -3.264E+01   -3.235E+01   -3.206E+01   -3.178E+01   -3.150E+01   -3.122E+01   -3.095E+01   -3.068E+01   -3.042E+01   -3.016E+01
    -2.990E+01   -2.965E+01   -2.941E+01   -2.917E+01   -2.893E+01   -2.871E+01   -2.848E+01   -2.826E+01   -2.805E+01   -2.785E+01
    -2.765E+01   -2.745E+01   -2.727E+01   -2.709E+01   -2.691E+01   -2.674E+01   -2.658E+01   -2.642E+01   -2.626E+01   -2.611E+01
    -2.597E+01   -2.582E+01   -2.569E+01   -2.556E+01   -2.543E+01   -2.530E+01   -2.518E+01   -2.506E+01   -2.495E+01   -2.483E+01
    -2.472E+01   -2.462E+01   -2.451E+01   -2.441E+01   -2.431E+01   -2.421E+01   -2.411E+01   -2.401E+01   -2.392E+01   -2.382E+01
    -2.373E+01   -2.364E+01   -2.355E+01   -2.346E+01   -2.337E+01   -2.328E+01   -2.319E+01   -2.310E+01   -2.302E+01   -2.293E+01
    -2.285E+01   -2.277E+01   -2.269E+01   -2.261E+01   -2.254E+01   -2.246E+01   -2.239E+01   -2.232E+01   -2.225E+01   -2.218E+01
    -2.212E+01   -2.205E+01   -2.199E+01   -2.194E+01   -2.188E+01   -2.183E+01   -2.178E+01   -2.173E+01   -2.169E+01   -2.164E+01
    -2.161E+01   -2.157E+01   -2.154E+01   -2.151E+01   -2.148E+01   -2.146E+01   -2.143E+01   -2.142E+01   -2.140E+01   -2.139E+01
    -2.138E+01   -2.137E+01   -2.136E+01   -2.136E+01   -2.136E+01   -2.137E+01   -2.137E+01   -2.138E+01   -2.139E+01   -2.141E+01
    -2.142E+01   -2.144E+01   -2.146E+01   -2.149E+01   -2.151E+01   -2.154E+01   -2.157E+01   -2.161E+01   -2.164E+01   -2.168E+01
    -2.172E+01   -2.177E+01   -2.181E+01   -2.186E+01   -2.191E+01   -2.196E+01   -2.202E+01   -2.207E+01   -2.213E+01   -2.219E+01
    -2.225E+01   -2.231E+01   -2.238E+01   -2.245E+01   -2.251E+01   -2.258E+01   -2.265E+01   -2.272E+01   -2.280E+01   -2.287E+01
    -2.295E+01   -2.302E+01   -2.310E+01   -2.318E+01   -2.326E+01   -2.334E+01   -2.342E+01   -2.350E+01   -2.358E+01   -2.367E+01
    -2.375E+01   -2.383E+01   -2.392E+01   -2.400E+01   -2.409E+01   -2.418E+01   -2.427E+01   -2.436E+01   -2.445E+01   -2.455E+01
    -2.464E+01   -2.474E+01   -2.485E+01   -2.495E+01   -2.506E+01   -2.518E+01   -2.529E+01   -2.542E+01   -2.554E+01   -2.567E+01
    -2.580E+01   -2.594E+01   -2.609E+01   -2.624E+01   -2.639E+01   -2.655E+01   -2.672E+01   -2.689E+01   -2.707E+01   -2.725E+01
    -2.744E+01   -2.764E+01   -2.784E+01   -2.805E+01   -2.827E+01   -2.848E+01   -2.871E+01   -2.893E+01   -2.916E+01   -2.938E+01
    -2.961E+01   -2.984E+01   -3.008E+01   -3.030E+01   -3.053E+01   -3.076E+01   -3.098E+01   -3.121E+01   -3.142E+01   -3.164E+01
    -3.185E+01   -3.205E+01   -3.225E+01   -3.244E+01   -3.262E+01   -3.280E+01   -3.297E+01   -3.313E+01   -3.327E+01   -3.341E+01
    -3.354E+01   -3.366E+01   -3.377E+01   -3.386E+01   -3.394E+01   -3.401E+01   -3.407E+01   -3.411E+01   -3.414E+01   -3.415E+01
    -3.415E+01   -3.414E+01   -3.410E+01   -3.406E+01   -3.399E+01   -3.391E+01   -3.381E+01   -3.370E+01   -3.357E+01   -3.341E+01
    -3.324E+01   -3.305E+01   -3.284E+01   -3.261E+01   -3.236E+01   -3.209E+01   -3.180E+01   -3.149E+01   -3.115E+01   -3.079E+01
    -3.041E+01   -3.001E+01   -2.958E+01   -2.914E+01   -2.868E+01   -2.820E+01   -2.770E+01   -2.719E+01   -2.667E+01   -2.614E+01
    -2.559E+01   -2.504E+01   -2.448E+01   -2.391E+01   -2.334E+01   -2.276E+01   -2.218E+01   -2.160E+01   -2.102E+01   -2.044E+01
    -1.986E+01   -1.929E+01   -1.873E+01   -1.817E+01   -1.761E+01   -1.707E+01   -1.654E+01   -1.602E+01   -1.551E+01   -1.502E+01
    -1.454E+01   -1.408E+01   -1.363E+01   -1.321E+01   -1.279E+01   -1.239E+01   -1.201E+01   -1.164E+01   -1.129E+01   -1.095E+01
    -1.063E+01   -1.032E+01   -1.002E+01   -9.742E+00   -9.475E+00   -9.221E+00   -8.980E+00   -8.753E+00   -8.539E+00   -8.338E+00
    -8.149E+00   -7.973E+00   -7.810E+00   -7.658E+00   -7.519E+00   -7.391E+00   -7.275E+00   -7.171E+00   -7.078E+00   -6.995E+00
    -6.924E+00   -6.864E+00   -6.814E+00   -6.774E+00   -6.745E+00   -6.725E+00   -6.715E+00   -6.714E+00   -6.723E+00   -6.740E+00
    -6.766E+00   -6.801E+00   -6.844E+00   -6.896E+00   -6.955E+00   -7.022E+00   -7.096E+00   -7.177E+00   -7.266E+00   -7.361E+00
    -7.463E+00   -7.571E+00   -7.685E+00   -7.806E+00   -7.932E+00   -8.063E+00   -8.200E+00   -8.341E+00   -8.488E+00   -8.639E+00
    -8.795E+00   -8.954E+00   -9.118E+00   -9.286E+00   -9.458E+00   -9.634E+00   -9.813E+00   -9.996E+00   -1.018E+01   -1.037E+01
    -1.056E+01   -1.076E+01   -1.096E+01   -1.116E+01   -1.136E+01   -1.157E+01   -1.178E+01   -1.199E+01   -1.220E+01   -1.242E+01
    -1.264E+01   -1.286E+01   -1.308E+01   -1.330E+01   -1.352E+01   -1.375E+01   -1.398E+01   -1.420E+01   -1.443E+01   -1.466E+01
    -1.489E+01   -1.512E+01   -1.535E+01   -1.559E+01   -1.582E+01   -1.605E+01   -1.629E+01   -1.652E+01   -1.676E+01   -1.699E+01
    -1.723E+01   -1.746E+01   -1.770E+01   -1.794E+01   -1.817E+01   -1.841E+01   -1.865E+01   -1.889E+01   -1.913E+01   -1.936E+01
    -1.960E+01   -1.984E+01   -2.008E+01   -2.032E+01   -2.056E+01   -2.080E+01   -2.103E+01   -2.127E+01   -2.151E+01   -2.175E+01
    -2.199E+01   -2.223E+01   -2.247E+01   -2.270E+01   -2.294E+01   -2.318E+01   -2.342E+01   -2.365E+01   -2.389E+01   -2.413E+01
    -2.436E+01   -2.460E+01   -2.484E+01   -2.507E+01   -2.531E+01   -2.554E+01   -2.578E+01   -2.602E+01   -2.625E+01   -2.649E+01
    -2.672E+01   -2.696E+01   -2.719E+01   -2.743E+01   -2.766E+01   -2.789E+01   -2.813E+01   -2.836E+01   -2.860E+01   -2.883E+01
 Mac      Conc. = 3.25E-04
  -7.46786E+01 -7.56299E+01 -7.58480E+01 -7.55880E+01 -7.54724E+01 -7.57576E+01 -7.67664E+01 -7.84214E+01 -8.07676E+01 -8.29945E+01
  -8.44793E+01 -8.47898E+01 -8.42614E+01 -8.38060E+01 -8.35645E+01 -8.44330E+01 -8.74378E+01 -9.03374E+01 -8.88535E+01 -8.15963E+01
  -7.39147E+01 -6.92950E+01 -6.47313E+01 -6.05289E+01 -5.88462E+01 -5.81587E+01 -5.71094E+01 -5.53223E+01 -5.30802E+01 -5.02371E+01
  -4.72546E+01 -4.53753E+01 -4.42025E+01 -4.31257E+01 -4.24149E+01 -4.28601E+01 -4.36707E+01 -4.33461E+01 -4.05317E+01 -3.58941E+01
  -3.26154E+01 -3.23365E+01 -3.36551E+01 -3.37878E+01 -3.21927E+01 -2.95806E+01 -2.73377E+01 -2.68969E+01 -2.73986E+01 -2.84215E+01
  -3.00964E+01 -3.18861E+01 -3.30375E+01 -3.34503E+01 -3.39434E+01 -3.40650E+01 -3.39713E+01 -3.33059E+01 -3.10851E+01 -2.86020E+01
  -2.70048E+01 -2.53170E+01 -2.30004E+01 -2.18162E+01 -2.22076E+01 -2.33197E+01 -2.48832E+01 -2.56771E+01 -2.54616E+01 -2.56254E+01
  -2.59682E+01 -2.45978E+01 -2.06818E+01 -1.63733E+01 -1.37233E+01 -1.24029E+01 -1.19234E+01 -1.25710E+01 -1.35344E+01 -1.47707E+01
  -1.57171E+01 -1.58624E+01 -1.62016E+01 -1.63460E+01 -1.55046E+01 -1.39794E+01 -1.25944E+01 -1.14416E+01 -1.03608E+01 -9.41385E+00
  -8.79752E+00 -8.20180E+00 -7.51766E+00 -7.33508E+00 -7.20566E+00 -7.63719E+00 -9.48340E+00 -1.23572E+01 -1.56255E+01 -1.90024E+01
  -2.13873E+01 -2.27216E+01 -2.44063E+01 -2.73704E+01 -3.10500E+01 -3.56021E+01 -4.23460E+01 -5.11167E+01 -5.99827E+01 -6.50707E+01
