 LCModel (Version 6.3-1N) Copyright: S.W. Provencher.          Ref.: Magn. Reson. Med. 30:672-679 (1993).                
 Slice_N1@18_13  28-Feb-2025 11:40:29
 27 lines in following concentration table = NCONC+1
    Conc.  %SD /Cr+PCr  Metabolite                                         
 2.35E-04   6% 2.0E-04 Mac                                                 
    4.298  24%   3.733 Cr                                                  
    4.913  20%   4.267 PCr                                                 
    8.504  12%   7.386 Ins                                                 
   11.359   8%   9.866 NAA                                                 
    8.024  13%   6.969 Tau                                                 
    1.375  74%   1.194 PCho                                                
    0.537 181%   0.466 GPC                                                 
   11.076  11%   9.620 Glu                                                 
    3.281  28%   2.849 Gln                                                 
    0.000 999%   0.000 Ala                                                 
    3.055  46%   2.654 Asc                                                 
    1.926  59%   1.673 Asp                                                 
    1.252  48%   1.087 GABA                                                
    0.552 146%   0.479 Glc                                                 
    2.096  26%   1.821 GSH                                                 
    1.644  45%   1.428 Lac                                                 
    2.090  28%   1.815 NAAG                                                
    1.650  74%   1.433 PE                                                  
    1.912  16%   1.661 GPC+PCho                                            
   13.449   7%  11.681 NAA+NAAG                                            
   14.356  11%  12.469 Glu+Gln                                             
    9.211   9%   8.000 Cr+PCr                                              
   13.449   7%  11.681 NAA+NAAG                                            
    9.211   9%   8.000 Cr+PCr                                              
   14.356  11%  12.469 Glu+Gln                                             
   6 lines in following misc. output table
  FWHM = 0.016 ppm    S/N =   5                                            
  Data shift = 0.024 ppm                                                   
  Ph:-136 deg       0.0 deg/ppm                                            
  alphaB,S = 1.3E-01,   3.1E+00                                            
   19 spline knots.   Ns = 5(1)                                            
  ( 3) 2 infls.   ( 2) 2 extrs.                                            
  480 points on ppm-axis = NY
      4.100000     4.091866     4.083733     4.075600     4.067466     4.059333     4.051199     4.043066     4.034933     4.026799
      4.018666     4.010532     4.002399     3.994265     3.986132     3.977998     3.969864     3.961731     3.953597     3.945463
      3.937330     3.929196     3.921062     3.912929     3.904795     3.896662     3.888528     3.880394     3.872261     3.864127
      3.855993     3.847860     3.839726     3.831592     3.823459     3.815325     3.807191     3.799058     3.790924     3.782790
      3.774657     3.766523     3.758389     3.750256     3.742122     3.733989     3.725855     3.717721     3.709588     3.701454
      3.693320     3.685187     3.677053     3.668919     3.660786     3.652652     3.644518     3.636385     3.628251     3.620117
      3.611984     3.603850     3.595716     3.587583     3.579449     3.571316     3.563182     3.555048     3.546915     3.538781
      3.530647     3.522514     3.514380     3.506246     3.498113     3.489979     3.481845     3.473712     3.465578     3.457444
      3.449311     3.441177     3.433043     3.424910     3.416776     3.408643     3.400509     3.392375     3.384242     3.376108
      3.367974     3.359841     3.351707     3.343573     3.335440     3.327306     3.319172     3.311039     3.302905     3.294771
      3.286638     3.278504     3.270370     3.262237     3.254103     3.245970     3.237836     3.229702     3.221569     3.213435
      3.205301     3.197168     3.189034     3.180900     3.172767     3.164633     3.156499     3.148366     3.140232     3.132098
      3.123965     3.115831     3.107697     3.099564     3.091430     3.083297     3.075163     3.067029     3.058896     3.050762
      3.042628     3.034495     3.026361     3.018227     3.010094     3.001960     2.993826     2.985693     2.977559     2.969425
      2.961292     2.953158     2.945024     2.936891     2.928757     2.920624     2.912490     2.904356     2.896223     2.888089
      2.879955     2.871822     2.863688     2.855554     2.847421     2.839287     2.831153     2.823020     2.814886     2.806752
      2.798619     2.790485     2.782351     2.774218     2.766084     2.757951     2.749817     2.741683     2.733550     2.725416
      2.717282     2.709149     2.701015     2.692881     2.684748     2.676614     2.668480     2.660347     2.652213     2.644079
      2.635946     2.627812     2.619678     2.611545     2.603411     2.595278     2.587144     2.579010     2.570877     2.562743
      2.554609     2.546476     2.538342     2.530208     2.522075     2.513941     2.505807     2.497674     2.489540     2.481406
      2.473273     2.465139     2.457006     2.448872     2.440738     2.432605     2.424471     2.416337     2.408204     2.400070
      2.391936     2.383803     2.375669     2.367535     2.359402     2.351268     2.343134     2.335001     2.326867     2.318733
      2.310600     2.302466     2.294333     2.286199     2.278065     2.269932     2.261798     2.253664     2.245531     2.237397
      2.229263     2.221130     2.212996     2.204862     2.196729     2.188595     2.180461     2.172328     2.164194     2.156060
      2.147927     2.139793     2.131660     2.123526     2.115392     2.107259     2.099125     2.090991     2.082858     2.074724
      2.066590     2.058457     2.050323     2.042189     2.034056     2.025922     2.017788     2.009655     2.001521     1.993387
      1.985254     1.977120     1.968987     1.960853     1.952719     1.944586     1.936452     1.928318     1.920185     1.912051
      1.903917     1.895784     1.887650     1.879516     1.871383     1.863249     1.855115     1.846982     1.838848     1.830714
      1.822581     1.814447     1.806314     1.798180     1.790046     1.781913     1.773779     1.765645     1.757512     1.749378
      1.741244     1.733111     1.724977     1.716843     1.708710     1.700576     1.692442     1.684309     1.676175     1.668041
      1.659908     1.651774     1.643641     1.635507     1.627373     1.619240     1.611106     1.602972     1.594839     1.586705
      1.578571     1.570438     1.562304     1.554170     1.546037     1.537903     1.529769     1.521636     1.513502     1.505368
      1.497235     1.489101     1.480968     1.472834     1.464700     1.456567     1.448433     1.440299     1.432166     1.424032
      1.415898     1.407765     1.399631     1.391497     1.383364     1.375230     1.367096     1.358963     1.350829     1.342695
      1.334562     1.326428     1.318295     1.310161     1.302027     1.293894     1.285760     1.277626     1.269493     1.261359
      1.253225     1.245092     1.236958     1.228824     1.220691     1.212557     1.204423     1.196290     1.188156     1.180022
      1.171889     1.163755     1.155622     1.147488     1.139354     1.131221     1.123087     1.114953     1.106820     1.098686
      1.090552     1.082419     1.074285     1.066151     1.058018     1.049884     1.041750     1.033617     1.025483     1.017349
      1.009216     1.001082     0.992949     0.984815     0.976681     0.968548     0.960414     0.952280     0.944147     0.936013
      0.927879     0.919746     0.911612     0.903478     0.895345     0.887211     0.879077     0.870944     0.862810     0.854676
      0.846543     0.838409     0.830276     0.822142     0.814008     0.805875     0.797741     0.789607     0.781474     0.773340
      0.765206     0.757073     0.748939     0.740805     0.732672     0.724538     0.716404     0.708271     0.700137     0.692003
      0.683870     0.675736     0.667603     0.659469     0.651335     0.643202     0.635068     0.626934     0.618801     0.610667
      0.602533     0.594400     0.586266     0.578132     0.569999     0.561865     0.553731     0.545598     0.537464     0.529330
      0.521197     0.513063     0.504930     0.496796     0.488662     0.480529     0.472395     0.464261     0.456128     0.447994
      0.439861     0.431727     0.423593     0.415460     0.407326     0.399192     0.391059     0.382925     0.374792     0.366658
      0.358524     0.350391     0.342257     0.334124     0.325990     0.317856     0.309723     0.301589     0.293455     0.285322
      0.277188     0.269055     0.260921     0.252787     0.244654     0.236520     0.228386     0.220253     0.212119     0.203986
 NY phased data points follow
  -9.93948E+00 -2.43184E+01 -2.06899E+01 -3.23625E+01 -3.52726E+01 -2.38390E+01 -1.73235E+01 -1.18656E+01 -3.05061E+01 -2.54673E+01
  -3.10595E+01 -3.44566E+01 -4.09203E+01 -3.92746E+01 -3.27758E+01 -4.59917E+01 -3.66612E+01 -4.48726E+01 -4.81922E+01 -8.27280E+01
  -1.27424E+02 -8.36806E+01 -5.31531E+01 -6.24418E+01 -3.43133E-01  4.59686E+01  8.80221E+00 -2.88051E+00  8.21967E+00  1.89678E+01
   2.00124E+01  1.49544E+01  1.10140E+01  1.31667E+01  1.48321E+01  6.02489E+00  2.41539E+01  2.37216E+01 -1.27004E+01 -4.47003E+01
  -5.97854E+01 -8.10383E+01 -8.77820E+01 -6.44697E+01 -3.60161E+01 -3.18448E-01  6.59536E+00  3.17185E+01  6.49741E+01  4.85278E+01
   5.95843E+01  7.58817E+01  4.91948E+01  4.23173E+01  3.56615E+01  5.84700E+00 -7.35781E+00  7.64714E+00 -1.33541E+01 -4.94873E+01
  -2.09400E+00  5.71166E-01 -2.23691E+01  1.64265E+01  3.60258E+01  4.98372E+01  5.52013E+01  5.98786E+01  2.49087E+01 -4.49000E+01
  -4.31373E+01 -9.46998E+00 -2.78147E+01 -2.83079E+01  1.04051E+01  3.02135E+01  4.39984E+01  4.74802E+01  5.96119E+01  6.00773E+01
   5.39343E+01  5.23640E+01  3.80811E+01  2.35074E+01 -6.23960E+00 -2.09678E+01 -1.92979E+01 -6.25503E+00  2.19608E+01  4.71343E+01
   5.50163E+01  6.76365E+01  6.95316E+01  6.40631E+01  7.78183E+01  8.01257E+01  1.01993E+02  1.10626E+02  9.99795E+01  9.72910E+01
   9.93562E+01  9.56287E+01  7.02526E+01  5.51894E+01  3.81548E+01  1.72562E+01 -4.80375E-01 -7.24659E-01 -9.45720E-01 -2.36894E+01
  -1.10422E+02 -1.67591E+02 -1.11516E+02 -9.56789E+01 -7.91265E+01 -4.78330E+01 -4.37035E+01 -3.31397E+01 -3.68316E+01 -1.95899E+01
  -1.67510E+01 -2.07928E+01  7.98134E+00  1.77670E+01  1.40003E+01  3.31790E+01  4.32017E+01  5.12258E+01  7.99918E+01  1.04014E+02
   1.60838E+02  2.12089E+02  1.11773E+02 -4.78779E+01 -7.85451E+01 -6.39843E+01 -7.45670E+01 -7.12322E+01 -6.37712E+01 -5.67276E+01
  -5.54662E+01 -5.15197E+01 -6.19471E+01 -7.39525E+01 -6.09478E+01 -6.43901E+01 -7.19033E+01 -6.28756E+01 -5.58083E+01 -5.69283E+01
  -5.76769E+01 -4.63456E+01 -5.23315E+01 -5.68580E+01 -4.41358E+01 -3.42183E+01 -2.85284E+01 -3.07503E+01 -3.51581E+01 -4.15288E+01
  -2.68302E+01 -2.88084E+01 -3.79646E+01 -2.81817E+01 -3.16955E+01 -3.12222E+01 -2.98839E+01 -2.68688E+01 -3.51792E+01 -2.02050E+01
  -3.02728E+00 -1.00826E+01  1.21362E+01  3.04350E+01  1.50341E+01 -5.61703E+00  7.37597E+00  3.26861E+01  3.89976E+01  2.75482E+00
  -2.63299E+01 -2.69464E+01 -3.87779E+01 -4.26955E+01 -4.82650E+01 -4.60857E+01 -4.72602E+01 -5.06131E+01 -4.57803E+01 -3.55752E+01
  -4.11899E+01 -3.46814E+01 -2.58485E+01 -3.71909E+01  3.63690E+00 -3.88955E+00 -2.88639E+01 -6.28310E+00 -6.40210E+00 -1.42774E+01
  -2.19542E+01 -1.22547E+01 -2.75031E+00  1.71309E+00  1.50412E+00 -7.15634E+00 -1.68126E+01 -2.53252E+01 -4.21665E+01 -5.34765E+01
  -5.24122E+01 -6.09041E+01 -6.42242E+01 -4.99812E+01 -2.39960E+01  2.35765E+00  5.11664E+01  5.05312E+01  3.54952E+01  4.46658E+01
   4.50798E+00 -1.63918E+01 -1.35357E+01 -1.22762E+01 -2.24476E+01 -4.46688E+00  1.16400E+01 -1.93571E+00  1.04043E+01  5.27574E+00
   1.46680E+01  1.38755E+01 -1.64069E+01 -1.33138E+01 -2.02131E+01 -4.57996E+01 -5.37479E+01 -6.77218E+01 -6.77274E+01 -6.95491E+01
  -6.97466E+01 -5.30531E+01 -6.08943E+01 -4.47906E+01 -3.51117E+01 -2.76255E+01 -2.78241E+01 -2.67209E+01 -2.13881E+01 -4.90817E+01
  -5.59091E+01 -7.41811E+01 -5.73232E+01 -6.93074E+01 -7.36140E+01 -8.74511E+01 -2.16237E+02 -1.35736E+02  1.05760E+02  1.94365E+02
   1.64771E+02  1.41689E+02  1.32451E+02  1.13109E+02  9.55074E+01  9.43106E+01  9.06755E+01  7.57233E+01  8.18182E+01  7.36767E+01
   7.76943E+01  7.88569E+01  7.46954E+01  7.33061E+01  5.99360E+01  6.65009E+01  6.20873E+01  7.76458E+01  7.92539E+01  6.87001E+01
   6.62838E+01  5.79661E+01  7.59426E+01  7.80042E+01  5.61587E+01  5.02118E+01  6.29575E+01  5.47138E+01  5.07953E+01  4.18730E+01
   4.09098E+01  5.07173E+01  2.98896E+01  3.09779E+01  2.75539E+01  1.08109E+01 -2.82257E-02  1.07867E+00 -8.75774E+00 -1.90757E+01
  -1.19976E+01 -2.38232E+01 -5.24404E+00 -2.24978E-01 -2.04757E+01 -1.44328E+01 -1.09224E+01 -1.14595E+01 -6.43624E+00  1.10230E+00
   4.49472E+00  3.50978E+00  2.56854E-01 -9.81556E-01 -4.43360E+00  2.27255E+00  6.80597E+00  5.92292E+00 -1.45370E+00 -4.48830E+00
   2.25550E+01  2.86509E+01  1.42746E+01  1.00559E+01  2.43940E+01  2.93472E+01  3.13531E+01  3.87678E+01  3.96981E+01  6.20203E+01
   5.93855E+01  5.06966E+01  4.63427E+01  3.88196E+01  5.09159E+01  5.65751E+01  4.95515E+01  5.13763E+01  7.18012E+01  7.39594E+01
   8.22085E+01  7.54178E+01  5.64459E+01  5.75341E+01  5.22772E+01  5.29964E+01  4.69581E+01  5.35843E+01  5.57804E+01  5.28333E+01
   5.13682E+01  4.22851E+01  4.31358E+01  4.19809E+01  4.37556E+01  2.89710E+01  1.96347E+01  1.34507E+01  1.16872E+00  9.45555E+00
   1.23741E+01  1.02932E+01  1.58680E+01  8.20937E+00  1.34148E+01  2.79018E+01  1.58747E+01  2.87646E+01  4.56014E+01  3.83830E+01
   3.56097E+01  5.20177E+01  5.58827E+01  4.91113E+01  5.42634E+01  5.24053E+01  7.05902E+01  6.14554E+01  6.60219E+01  7.33099E+01
   6.77188E+01  8.57990E+01  7.70548E+01  9.46543E+01  1.06160E+02  1.23228E+02  1.33221E+02  1.41568E+02  1.59818E+02  1.49480E+02
   1.52116E+02  1.27097E+02  1.21213E+02  9.70307E+01  7.43769E+01  8.15671E+01  6.65216E+01  7.74454E+01  6.75114E+01  5.33095E+01
   4.75180E+01  2.69576E+01  4.43492E+00  4.15920E+00  8.93173E+00 -3.97284E+00 -2.01938E+01 -1.48605E+01 -2.45275E+00 -1.75327E+01
  -9.53331E+00 -1.58147E+01 -1.90530E+01 -1.73333E+01 -1.35019E+01 -5.06718E+00 -2.16782E+01 -1.09031E+01 -2.16727E+01 -9.10117E+00
  -1.15154E+01 -2.96323E+01 -6.89316E+00 -2.25756E+01 -2.15546E+01 -1.21702E+01 -1.29204E+01 -1.68757E+01 -1.73877E+01 -1.84622E+01
  -3.80199E+01 -3.70716E+01 -1.88679E+01 -1.83476E+01 -2.63116E+01 -1.53583E+01 -2.71774E+01 -2.12216E+01 -2.28082E+01 -3.88914E+01
  -1.24188E+01 -1.96433E+01 -1.76299E+01 -1.24734E+01 -2.10880E+01 -1.55706E+01 -2.53348E+01 -1.53685E+01 -8.06068E+00 -1.11912E+01
  -2.05586E+01 -3.13058E+01 -1.58864E+01  1.75190E+00 -2.08867E+00 -2.14736E+01 -1.27816E+01 -7.40151E+00 -1.71472E+01 -1.50015E+01
  -2.58461E+01 -2.08246E+01 -1.20257E+01 -1.93623E+01 -1.80762E+01 -8.60970E+00 -2.70656E+00 -1.22572E+01 -1.89169E+01 -2.30749E+00
  -1.90921E+00 -1.72871E+01 -6.94784E+00 -1.64687E+01 -2.11409E+01 -1.85364E+01 -2.44137E+01 -1.01590E+01 -1.36191E+01 -5.55042E-01
 NY points of the fit to the data follow
  -3.07191E+01 -3.81645E+01 -4.78208E+01 -5.95647E+01 -6.52481E+01 -4.38029E+01 -9.84983E+00  9.18195E-01 -9.80881E+00 -2.09548E+01
  -2.87167E+01 -3.52682E+01 -3.75500E+01 -3.66514E+01 -3.57073E+01 -3.37559E+01 -3.33688E+01 -4.28390E+01 -4.91521E+01 -7.05722E+01
  -1.06024E+02 -8.77407E+01 -5.10378E+01 -4.21944E+01 -7.57839E+00  2.94942E+01  2.85395E+01  2.64096E+01  3.06115E+01  3.19455E+01
   3.17235E+01  3.01068E+01  2.89981E+01  2.78076E+01  2.54666E+01  2.28825E+01  2.20288E+01  1.65288E+01  4.82907E+00 -1.96095E+01
  -6.15258E+01 -8.57055E+01 -7.23302E+01 -5.14359E+01 -3.50736E+01 -9.07414E+00  1.76400E+01  3.04393E+01  3.68763E+01  4.33503E+01
   4.45594E+01  4.44179E+01  4.32386E+01  3.74118E+01  2.78183E+01  8.91538E+00 -5.72572E+00 -2.46656E+00 -1.72270E+01 -3.86034E+01
  -1.98101E+01 -5.21556E+00 -1.25073E+01  7.71703E+00  3.92149E+01  5.09397E+01  5.35417E+01  5.07202E+01  2.19966E+01 -2.66515E+01
  -3.75923E+01 -1.59257E+01 -1.57377E+01 -1.43536E+01  1.20315E+01  3.37823E+01  4.32251E+01  5.11573E+01  5.70079E+01  6.53381E+01
   6.64672E+01  5.47180E+01  3.67625E+01  5.69510E+00 -2.12622E+01 -2.73877E+01 -2.27144E+01 -5.04873E+00  1.77884E+01  2.96351E+01
   3.79140E+01  4.50865E+01  5.04790E+01  5.56429E+01  6.14215E+01  6.74676E+01  7.16191E+01  7.80057E+01  8.13821E+01  7.57501E+01
   7.97300E+01  9.43401E+01  8.16042E+01  5.88265E+01  4.64301E+01  1.86575E+01  1.06976E+00  7.56035E+00  1.95282E+01 -1.37376E+01
  -1.13294E+02 -1.62002E+02 -1.20318E+02 -8.67584E+01 -7.10257E+01 -5.23468E+01 -4.11196E+01 -3.18763E+01 -2.35616E+01 -1.64267E+01
  -1.00814E+01 -3.62599E+00  3.06243E+00  1.00051E+01  1.82764E+01  2.80987E+01  3.76034E+01  5.11486E+01  8.38074E+01  1.13648E+02
   1.61900E+02  2.08617E+02  1.12411E+02 -5.12361E+01 -9.43321E+01 -7.44863E+01 -7.46085E+01 -6.86350E+01 -6.10302E+01 -5.84111E+01
  -5.68797E+01 -5.58168E+01 -5.75629E+01 -5.87966E+01 -5.90431E+01 -5.99665E+01 -5.94482E+01 -5.66506E+01 -5.32540E+01 -5.06701E+01
  -4.87825E+01 -4.65116E+01 -4.46093E+01 -4.30252E+01 -4.02705E+01 -3.67845E+01 -3.42293E+01 -3.38054E+01 -3.40518E+01 -3.32765E+01
  -3.08799E+01 -2.70486E+01 -2.56783E+01 -2.87057E+01 -3.13410E+01 -3.01714E+01 -2.72210E+01 -2.72222E+01 -3.11133E+01 -3.31942E+01
  -2.69012E+01 -8.77225E+00  1.19231E+01  1.31470E+01 -5.54393E+00 -1.30009E+01  3.15642E+00  2.21879E+01  2.14765E+01 -1.19515E-01
  -1.94905E+01 -2.61125E+01 -3.14142E+01 -3.65337E+01 -3.84175E+01 -3.96015E+01 -3.99378E+01 -4.06731E+01 -3.96798E+01 -3.87137E+01
  -3.89036E+01 -3.26395E+01 -3.15242E+01 -3.20699E+01 -1.12523E+01 -8.56905E-01 -1.24424E+01 -9.74910E+00 -9.12573E-02  2.70867E+00
  -1.69780E+00 -9.37635E+00 -2.04842E+00  7.94841E+00  2.45446E+00 -6.65886E+00 -1.20901E+01 -1.79510E+01 -2.87878E+01 -4.06541E+01
  -4.79843E+01 -6.05153E+01 -6.16436E+01 -4.91650E+01 -3.73161E+01  1.51065E+00  4.05544E+01  4.65631E+01  5.41017E+01  5.09390E+01
   2.59208E+01  1.50652E+01  1.25631E+01  1.18395E+01  1.72238E+01  1.92329E+01  1.81428E+01  1.52163E+01  6.75244E+00 -3.97330E+00
  -1.41255E+01 -2.65172E+01 -3.88622E+01 -4.77329E+01 -5.85717E+01 -6.98395E+01 -7.30866E+01 -7.74005E+01 -8.05122E+01 -7.30433E+01
  -7.08463E+01 -6.83981E+01 -5.72067E+01 -4.91422E+01 -3.83787E+01 -2.98246E+01 -2.88140E+01 -2.81827E+01 -3.42551E+01 -4.12210E+01
  -4.62034E+01 -5.42474E+01 -6.20627E+01 -8.00046E+01 -7.20763E+01 -1.11497E+02 -2.19008E+02 -1.40134E+02  8.06468E+01  1.55770E+02
   1.33875E+02  1.29424E+02  1.15232E+02  1.01995E+02  9.46507E+01  8.89876E+01  8.25997E+01  7.62308E+01  7.05522E+01  6.42738E+01
   6.05788E+01  5.87541E+01  5.72517E+01  5.83719E+01  5.96874E+01  6.04317E+01  6.17745E+01  6.17796E+01  6.15050E+01  6.11279E+01
   5.95513E+01  5.75569E+01  5.53364E+01  5.36406E+01  5.18779E+01  4.95436E+01  4.75567E+01  4.56496E+01  4.34897E+01  4.11343E+01
   3.78513E+01  3.42845E+01  3.09549E+01  2.69040E+01  2.29585E+01  2.05628E+01  1.99065E+01  2.07412E+01  2.25267E+01  2.43615E+01
   2.61269E+01  2.84760E+01  3.11278E+01  3.34816E+01  3.56557E+01  3.77553E+01  3.95214E+01  4.12729E+01  4.38061E+01  4.66496E+01
   4.88579E+01  5.07320E+01  5.23996E+01  5.40396E+01  5.60963E+01  5.75670E+01  5.82178E+01  5.89686E+01  5.89020E+01  5.74147E+01
   5.62483E+01  5.53268E+01  5.32242E+01  5.07566E+01  4.86053E+01  4.62846E+01  4.27681E+01  3.66887E+01  2.85995E+01  2.05891E+01
   1.32828E+01  6.77045E+00  1.67841E+00 -9.75074E-01 -8.02719E-01  2.15636E+00  7.25870E+00  1.31323E+01  1.94788E+01  2.48677E+01
   3.16462E+01  3.28738E+01  2.47491E+01  1.87037E+01  1.30902E+01  9.29886E+00  1.56809E+01  2.24324E+01  2.49301E+01  2.82718E+01
   2.96107E+01  2.92478E+01  2.78757E+01  2.49835E+01  2.08147E+01  1.69550E+01  1.45793E+01  1.34992E+01  1.35122E+01  1.47723E+01
   1.68572E+01  1.95162E+01  2.27946E+01  2.62641E+01  2.94681E+01  3.24221E+01  3.52639E+01  3.78680E+01  4.03093E+01  4.29595E+01
   4.55954E+01  4.78209E+01  5.02501E+01  5.30043E+01  5.54638E+01  5.84976E+01  6.24566E+01  6.61473E+01  7.03168E+01  7.58616E+01
   8.12822E+01  8.63738E+01  9.29311E+01  1.00700E+02  1.08175E+02  1.14873E+02  1.19952E+02  1.21570E+02  1.18182E+02  1.10121E+02
   9.94243E+01  8.93063E+01  8.10788E+01  7.40239E+01  6.83654E+01  6.40214E+01  5.85694E+01  5.08202E+01  4.25779E+01  3.43661E+01
   2.56157E+01  1.83782E+01  1.34503E+01  9.19355E+00  5.59510E+00  3.23713E+00  1.87478E+00  6.69782E-01 -6.59273E-01 -1.95248E+00
  -3.20519E+00 -4.22904E+00 -4.71916E+00 -5.06647E+00 -5.68828E+00 -6.16391E+00 -6.13781E+00 -6.21419E+00 -7.23207E+00 -8.10479E+00
  -7.65843E+00 -7.41102E+00 -8.17005E+00 -8.66130E+00 -8.71240E+00 -8.89718E+00 -9.31016E+00 -9.91093E+00 -1.01075E+01 -9.69571E+00
  -9.56361E+00 -1.00631E+01 -1.05387E+01 -1.09945E+01 -1.16105E+01 -1.17368E+01 -1.16263E+01 -1.18467E+01 -1.19359E+01 -1.18621E+01
  -1.20571E+01 -1.21811E+01 -1.21635E+01 -1.23627E+01 -1.28965E+01 -1.36711E+01 -1.40155E+01 -1.37482E+01 -1.38113E+01 -1.40633E+01
  -1.39552E+01 -1.43776E+01 -1.51032E+01 -1.49777E+01 -1.47425E+01 -1.49082E+01 -1.49250E+01 -1.49586E+01 -1.51740E+01 -1.51817E+01
  -1.50942E+01 -1.53466E+01 -1.57203E+01 -1.61357E+01 -1.65089E+01 -1.67128E+01 -1.67731E+01 -1.64647E+01 -1.57862E+01 -1.55147E+01
  -1.58770E+01 -1.64780E+01 -1.70458E+01 -1.72876E+01 -1.70256E+01 -1.70086E+01 -1.73645E+01 -1.71785E+01 -1.71790E+01 -1.79055E+01
 NY background values follow
    -6.581E+00   -6.390E+00   -6.200E+00   -6.009E+00   -5.817E+00   -5.625E+00   -5.431E+00   -5.237E+00   -5.041E+00   -4.845E+00
    -4.647E+00   -4.448E+00   -4.247E+00   -4.044E+00   -3.840E+00   -3.634E+00   -3.426E+00   -3.215E+00   -3.003E+00   -2.788E+00
    -2.571E+00   -2.351E+00   -2.129E+00   -1.904E+00   -1.676E+00   -1.445E+00   -1.211E+00   -9.741E-01   -7.336E-01   -4.897E-01
    -2.423E-01    8.738E-03    2.631E-01    5.207E-01    7.812E-01    1.044E+00    1.310E+00    1.578E+00    1.848E+00    2.120E+00
     2.393E+00    2.668E+00    2.943E+00    3.220E+00    3.497E+00    3.775E+00    4.053E+00    4.331E+00    4.608E+00    4.885E+00
     5.162E+00    5.437E+00    5.711E+00    5.984E+00    6.255E+00    6.524E+00    6.791E+00    7.056E+00    7.319E+00    7.578E+00
     7.834E+00    8.088E+00    8.338E+00    8.584E+00    8.826E+00    9.065E+00    9.300E+00    9.530E+00    9.757E+00    9.978E+00
     1.020E+01    1.041E+01    1.061E+01    1.082E+01    1.101E+01    1.121E+01    1.139E+01    1.157E+01    1.174E+01    1.191E+01
     1.207E+01    1.223E+01    1.238E+01    1.252E+01    1.266E+01    1.278E+01    1.291E+01    1.302E+01    1.313E+01    1.322E+01
     1.332E+01    1.340E+01    1.347E+01    1.354E+01    1.360E+01    1.365E+01    1.370E+01    1.374E+01    1.377E+01    1.380E+01
     1.381E+01    1.383E+01    1.383E+01    1.383E+01    1.383E+01    1.382E+01    1.380E+01    1.378E+01    1.375E+01    1.372E+01
     1.368E+01    1.364E+01    1.359E+01    1.354E+01    1.348E+01    1.342E+01    1.336E+01    1.329E+01    1.322E+01    1.314E+01
     1.307E+01    1.299E+01    1.290E+01    1.281E+01    1.272E+01    1.263E+01    1.253E+01    1.243E+01    1.233E+01    1.223E+01
     1.212E+01    1.202E+01    1.191E+01    1.179E+01    1.168E+01    1.156E+01    1.145E+01    1.133E+01    1.121E+01    1.108E+01
     1.096E+01    1.084E+01    1.071E+01    1.059E+01    1.046E+01    1.033E+01    1.020E+01    1.007E+01    9.945E+00    9.815E+00
     9.685E+00    9.555E+00    9.425E+00    9.295E+00    9.165E+00    9.035E+00    8.905E+00    8.775E+00    8.645E+00    8.515E+00
     8.385E+00    8.255E+00    8.126E+00    7.997E+00    7.868E+00    7.739E+00    7.611E+00    7.483E+00    7.355E+00    7.228E+00
     7.101E+00    6.974E+00    6.848E+00    6.723E+00    6.598E+00    6.474E+00    6.350E+00    6.227E+00    6.105E+00    5.983E+00
     5.862E+00    5.742E+00    5.622E+00    5.504E+00    5.386E+00    5.270E+00    5.154E+00    5.040E+00    4.927E+00    4.816E+00
     4.706E+00    4.597E+00    4.490E+00    4.384E+00    4.281E+00    4.179E+00    4.079E+00    3.980E+00    3.884E+00    3.790E+00
     3.698E+00    3.609E+00    3.521E+00    3.436E+00    3.354E+00    3.274E+00    3.196E+00    3.121E+00    3.049E+00    2.980E+00
     2.914E+00    2.850E+00    2.789E+00    2.731E+00    2.674E+00    2.620E+00    2.567E+00    2.516E+00    2.466E+00    2.417E+00
     2.368E+00    2.320E+00    2.273E+00    2.225E+00    2.178E+00    2.130E+00    2.081E+00    2.032E+00    1.981E+00    1.930E+00
     1.876E+00    1.821E+00    1.764E+00    1.705E+00    1.644E+00    1.579E+00    1.512E+00    1.442E+00    1.368E+00    1.291E+00
     1.210E+00    1.125E+00    1.036E+00    9.433E-01    8.468E-01    7.467E-01    6.428E-01    5.352E-01    4.241E-01    3.093E-01
     1.910E-01    6.918E-02   -5.610E-02   -1.848E-01   -3.169E-01   -4.523E-01   -5.911E-01   -7.331E-01   -8.783E-01   -1.027E+00
    -1.178E+00   -1.333E+00   -1.491E+00   -1.651E+00   -1.815E+00   -1.982E+00   -2.152E+00   -2.324E+00   -2.499E+00   -2.677E+00
    -2.858E+00   -3.041E+00   -3.226E+00   -3.411E+00   -3.596E+00   -3.779E+00   -3.961E+00   -4.140E+00   -4.315E+00   -4.485E+00
    -4.650E+00   -4.809E+00   -4.961E+00   -5.105E+00   -5.240E+00   -5.366E+00   -5.481E+00   -5.585E+00   -5.677E+00   -5.755E+00
    -5.820E+00   -5.870E+00   -5.905E+00   -5.923E+00   -5.924E+00   -5.906E+00   -5.870E+00   -5.814E+00   -5.737E+00   -5.639E+00
    -5.519E+00   -5.376E+00   -5.213E+00   -5.028E+00   -4.824E+00   -4.600E+00   -4.358E+00   -4.099E+00   -3.823E+00   -3.531E+00
    -3.224E+00   -2.903E+00   -2.568E+00   -2.220E+00   -1.860E+00   -1.489E+00   -1.107E+00   -7.152E-01   -3.147E-01    9.399E-02
     5.101E-01    9.328E-01    1.361E+00    1.795E+00    2.233E+00    2.674E+00    3.118E+00    3.565E+00    4.012E+00    4.460E+00
     4.907E+00    5.354E+00    5.798E+00    6.241E+00    6.682E+00    7.119E+00    7.552E+00    7.982E+00    8.407E+00    8.826E+00
     9.240E+00    9.648E+00    1.005E+01    1.044E+01    1.083E+01    1.121E+01    1.157E+01    1.193E+01    1.228E+01    1.262E+01
     1.295E+01    1.326E+01    1.357E+01    1.386E+01    1.414E+01    1.440E+01    1.465E+01    1.489E+01    1.511E+01    1.531E+01
     1.550E+01    1.568E+01    1.583E+01    1.597E+01    1.610E+01    1.620E+01    1.630E+01    1.637E+01    1.643E+01    1.648E+01
     1.651E+01    1.653E+01    1.653E+01    1.651E+01    1.648E+01    1.644E+01    1.638E+01    1.631E+01    1.622E+01    1.612E+01
     1.601E+01    1.588E+01    1.574E+01    1.558E+01    1.541E+01    1.523E+01    1.503E+01    1.482E+01    1.460E+01    1.436E+01
     1.412E+01    1.386E+01    1.358E+01    1.330E+01    1.300E+01    1.270E+01    1.238E+01    1.206E+01    1.172E+01    1.138E+01
     1.103E+01    1.067E+01    1.030E+01    9.929E+00    9.550E+00    9.164E+00    8.773E+00    8.376E+00    7.975E+00    7.570E+00
     7.162E+00    6.750E+00    6.335E+00    5.918E+00    5.500E+00    5.080E+00    4.659E+00    4.238E+00    3.816E+00    3.396E+00
     2.976E+00    2.557E+00    2.139E+00    1.723E+00    1.308E+00    8.940E-01    4.819E-01    7.137E-02   -3.375E-01   -7.446E-01
    -1.150E+00   -1.553E+00   -1.955E+00   -2.354E+00   -2.751E+00   -3.146E+00   -3.538E+00   -3.929E+00   -4.316E+00   -4.701E+00
    -5.084E+00   -5.463E+00   -5.840E+00   -6.214E+00   -6.585E+00   -6.952E+00   -7.317E+00   -7.678E+00   -8.036E+00   -8.391E+00
    -8.742E+00   -9.089E+00   -9.434E+00   -9.775E+00   -1.011E+01   -1.045E+01   -1.078E+01   -1.111E+01   -1.144E+01   -1.177E+01
    -1.209E+01   -1.241E+01   -1.273E+01   -1.305E+01   -1.337E+01   -1.368E+01   -1.400E+01   -1.431E+01   -1.463E+01   -1.494E+01
    -1.525E+01   -1.556E+01   -1.587E+01   -1.618E+01   -1.649E+01   -1.680E+01   -1.711E+01   -1.742E+01   -1.774E+01   -1.805E+01
 Mac      Conc. = 2.35E-04
  -2.31635E+01 -2.33635E+01 -2.32916E+01 -2.30835E+01 -2.28054E+01 -2.30517E+01 -2.40919E+01 -2.56400E+01 -2.72278E+01 -2.85625E+01
  -2.92243E+01 -2.90949E+01 -2.87674E+01 -2.84667E+01 -2.89340E+01 -3.07611E+01 -3.35970E+01 -3.49128E+01 -3.12776E+01 -2.57013E+01
  -2.25881E+01 -1.92824E+01 -1.49921E+01 -1.27406E+01 -1.21896E+01 -1.14249E+01 -1.00863E+01 -8.53387E+00 -6.48744E+00 -4.20213E+00
  -2.46222E+00 -1.10758E+00  2.15676E-01  1.12151E+00  1.03519E+00  1.87206E-01 -9.03102E-02  1.34125E+00  4.40814E+00  7.44240E+00
   8.35984E+00  7.70303E+00  7.57843E+00  8.50471E+00  1.02787E+01  1.22547E+01  1.33753E+01  1.35432E+01  1.32417E+01  1.26161E+01
   1.14905E+01  1.03321E+01  9.73096E+00  9.34319E+00  9.02049E+00  8.83671E+00  8.62629E+00  9.40375E+00  1.14087E+01  1.27521E+01
   1.37579E+01  1.60092E+01  1.76265E+01  1.76587E+01  1.73175E+01  1.65735E+01  1.57759E+01  1.55084E+01  1.52063E+01  1.43218E+01
   1.42668E+01  1.67498E+01  2.01399E+01  2.23080E+01  2.36601E+01  2.45121E+01  2.47691E+01  2.44092E+01  2.36731E+01  2.31241E+01
   2.28613E+01  2.25559E+01  2.19781E+01  2.20245E+01  2.29536E+01  2.37142E+01  2.44312E+01  2.54656E+01  2.62873E+01  2.67824E+01
   2.72404E+01  2.79205E+01  2.84541E+01  2.87267E+01  2.90408E+01  2.83001E+01  2.64201E+01  2.44659E+01  2.22457E+01  1.99394E+01
   1.88204E+01  1.81316E+01  1.65306E+01  1.44740E+01  1.20164E+01  7.91255E+00  1.67184E+00 -5.76971E+00 -1.15116E+01 -1.37852E+01
