 
 $NMID
 ID=''
 FMTDAT='(2E13.5)'
 TRAMP=   1.00000E+0
 VOLUME=   1.00000E+0
 $END
   1.95988E+4  -1.11290E+4
   4.85410E+3  -9.62651E+3
  -4.18576E+3  -1.64837E+3
   6.75718E+3   4.40448E+3
   3.20705E+3   8.88205E+1
  -4.40069E+3  -2.81373E+2
   2.35298E+3  -1.10866E+3
   3.32264E+3  -2.98596E+3
  -1.71121E+2   2.08090E+3
   2.26030E+3   3.24639E+3
  -9.06266E+2  -1.18144E+3
  -3.78831E+3  -5.71034E+2
   1.79702E+3   1.07095E+3
   9.97677E+2  -2.40840E+1
  -3.49042E+3  -1.44907E+1
  -3.43651E+2  -1.98583E+3
   1.94988E+3  -1.83696E+3
   8.49590E+1   1.94513E+3
   1.51610E+2   4.49357E+2
   8.89993E+2  -1.36530E+3
  -7.09205E+2   1.20597E+3
   6.79703E+1   1.94228E+2
   8.09894E+2  -1.87809E+3
  -3.10390E+1   2.07875E+3
  -1.32445E+3   1.84540E+3
  -3.98792E+2  -2.78262E+3
   1.81562E+3  -6.27100E+2
   8.60761E+2   3.06246E+3
  -2.30852E+3   5.36267E+2
  -3.85918E+2  -1.59407E+3
   2.53657E+3  -1.52063E+1
  -4.24958E+1   1.26789E+3
  -1.83090E+3   6.71969E+2
  -5.82902E+2  -3.61456E+2
  -3.46921E+2  -3.48502E+2
  -2.27746E+2  -1.14004E+3
   1.60916E+3  -1.28179E+3
   1.40771E+3   3.19781E+2
   7.48725E+1   1.20545E+3
  -1.27156E+2   5.20308E+1
   2.13026E+2   1.92264E+2
  -3.69060E+2   6.76339E+2
  -9.67404E+2  -4.63471E+2
  -5.43483E+2  -1.17687E+3
  -2.73894E+1  -1.28682E+3
   1.32054E+3  -8.08970E+2
   1.51099E+3   9.92182E+2
  -4.87290E+0   1.81828E+3
  -1.48863E+3   9.53340E+2
  -1.00015E+3   5.79963E+1
  -9.63861E+1  -2.14341E+2
  -5.12028E+2  -3.85781E+2
  -3.11101E+2  -5.40018E+2
   5.86904E+2   9.09281E+1
   5.21599E+2  -6.69158E+1
   1.86764E+2  -9.43937E+1
  -1.07473E+2   5.34613E+2
  -8.45711E+2   7.29789E+2
  -1.16312E+3  -2.14469E+2
  -2.31085E+2  -9.95235E+2
   4.13503E+2  -3.31018E+2
   5.91281E+2  -4.46817E+2
   9.21758E+2  -2.56397E+2
   9.51790E+2   1.03000E+3
  -1.21610E+2   1.28440E+3
  -5.02416E+2   7.81060E+2
  -4.45579E+2   2.62953E+2
  -8.84551E+2  -8.26906E+1
  -6.12061E+2  -5.86483E+2
   4.89785E+2  -6.99802E+2
   7.46544E+2  -1.28431E+2
  -2.88130E+2   1.41418E+2
  -5.50345E+2  -5.82132E+2
   4.18261E+2  -8.54405E+2
   8.49600E+2   2.37392E+2
  -3.05403E+2   6.16862E+2
  -3.08304E+2  -2.10954E+1
   2.84494E+2  -4.75950E+2
   4.31265E+2  -1.65880E+2
   8.03393E+1   4.46494E+2
   8.42657E+1   1.97456E+2
   2.15440E+2  -1.68303E+2
  -9.50609E+1  -9.93105E+0
  -5.25012E+2   2.60453E+2
  -4.18344E+2   2.39482E+2
  -2.03173E+2  -6.10653E+1
  -2.56085E+2  -3.78490E+2
  -1.20620E+2  -5.13536E+2
   5.35220E+1  -2.99120E+2
   5.96592E+1  -8.27579E+1
   1.68274E+2   4.38582E+1
  -1.98179E+1  -4.71085E+2
   4.50955E+2  -2.10588E+2
   5.49480E+2   3.04617E+2
  -1.42918E+2   7.49163E+2
  -3.43172E+2   3.15565E+2
  -1.29682E+2  -2.56424E+2
   3.75568E+2  -2.34074E+2
  -2.26412E+2   1.57538E+2
  -3.46811E+2   3.44286E+1
   1.39054E+2  -2.74051E+2
   3.87411E+2  -1.82476E+2
   2.04237E+2   3.10312E+2
  -3.46681E+2   3.28590E+2
  -3.19002E+2   9.22952E+1
   1.25479E+0   1.14163E+2
   3.16583E+2  -2.76067E+2
   4.27083E+2   5.53557E+1
   3.04060E+2   4.43542E+2
  -4.56080E+2   6.15541E+2
  -4.05192E+2   6.43361E+1
  -2.12974E+2  -4.89482E+2
   7.94952E+1  -1.29396E+2
   2.08371E+2  -3.08540E-1
   1.50208E+2  -1.39710E+2
   1.67428E+1  -2.22873E+2
   5.42809E+2   3.77679E+1
   8.47412E+1   4.73137E+2
  -5.50651E+1   3.17924E+2
  -5.13996E+2   1.95313E+2
  -4.45863E+2  -1.74899E+2
  -8.06311E+1  -4.73750E+1
   1.02030E+2  -2.47313E+2
  -1.66266E+1  -3.61350E+2
   7.32157E+1  -2.23169E+2
   2.56207E+2   2.53207E+2
   1.24568E+2   3.87514E+2
  -1.91984E+2   1.52001E+2
  -1.19340E+2  -9.84131E+1
  -1.09925E+2  -2.44701E+2
   2.33195E+2  -1.29790E+2
   2.35068E+2   1.59892E+2
  -3.05061E+1   1.58212E+2
  -6.68808E+1   2.60862E+2
  -2.22547E+2  -1.71881E+2
  -8.73949E+1   2.29907E+2
  -1.71142E+2   1.73427E+2
  -3.37316E+2  -1.34254E+1
  -3.82205E+2  -7.70334E+1
   1.82158E+2  -6.66963E+1
   8.97276E+1   1.37316E+1
   5.46633E+1   2.27030E+2
  -1.26624E+1   1.70614E+2
  -2.54767E+2  -1.05194E+2
  -6.83480E+1  -1.31131E+1
   4.73151E+1  -1.47610E+1
  -9.97620E+0   1.27692E+2
  -4.66558E+1   4.78464E+1
   8.04977E+1   2.23897E+2
  -2.18781E+1   6.17439E+1
  -6.04949E+1   2.46918E+2
   1.82393E+2  -3.04218E+1
  -7.76382E+1   1.21622E+2
   9.93230E+1   2.17019E+2
  -1.84671E+2  -4.79484E+1
   2.16679E+1  -6.31244E+0
   1.57871E+2   5.60768E+1
   6.79062E+0   2.09928E+1
  -8.50654E+1  -1.22664E+2
   9.24113E+1   3.23399E+1
  -3.99377E+1   1.84948E+1
   8.69109E+1  -2.02379E+2
   1.40423E+2  -5.32500E+1
   6.40721E+1  -6.93731E+0
  -8.00349E+1  -2.58383E+2
  -9.69715E+1   9.72048E+1
  -1.12141E+2  -5.56924E+1
  -6.07645E+1   1.45595E+2
   5.19614E+0  -3.19947E+0
  -2.60632E+2  -6.00946E+1
  -7.48397E+0  -1.03839E+2
  -1.50246E+0   1.31785E+2
   5.96863E+1  -2.95793E+2
   3.88993E+1  -1.67425E+2
   7.27729E+1  -1.43672E+2
  -1.20110E+1  -1.77958E+2
  -8.75544E+1  -2.34288E+2
  -1.14603E+2  -6.43377E+1
   3.84752E+1   1.86989E+2
  -2.33632E+2  -6.19449E+0
  -6.58342E+1  -2.41431E+2
  -2.66260E+1  -1.15503E+2
   1.31009E+2  -1.24544E+2
  -1.46923E+2  -4.99654E+1
  -8.73253E+1  -8.33852E+1
  -1.29090E+2  -1.37722E+1
  -3.43407E+1   1.11585E+2
  -7.57848E+0   1.15595E+2
  -2.73961E+2   2.48456E+2
  -2.05462E+2  -3.07677E+2
   4.70331E+0   6.06725E+1
  -6.49625E+0  -6.06916E+1
   8.81821E+1  -1.68120E+1
  -6.78621E+1   2.07952E+2
   1.88512E+1   1.72011E+2
  -6.27547E+0  -9.55571E+1
  -1.98086E+2  -1.77465E+2
   1.78402E+2   1.07658E+2
   1.35395E+2  -9.38767E+1
   1.24063E+2  -6.80198E+1
   7.94988E+1   1.68297E+2
  -4.86132E+1   2.67233E+1
  -9.29688E+1   2.11362E+2
  -1.03995E+2   1.81942E+2
   2.11936E+2   3.85663E+1
  -5.18219E+1   3.38460E+1
   1.37539E+1   2.14702E+1
  -5.59788E+1  -1.40483E+2
   1.66937E+2  -5.06288E+1
   5.99405E+1  -4.81198E+1
  -9.28721E+1   1.20265E+2
  -4.53050E+1  -1.05756E+1
   1.02621E+2   1.27717E+2
   1.13587E+2   2.68699E+2
   1.03522E+2  -1.16400E+2
   8.56834E+1  -1.94367E+1
   2.71600E+1   7.07329E+1
  -2.18668E+2   1.21717E+2
  -1.17598E+2  -4.98397E+1
   2.64565E+2   1.01316E+2
  -1.57578E+2   2.15803E+2
  -6.83023E+1   1.06829E+2
   1.05229E+2   8.64232E+1
   9.87244E+1  -4.59276E-1
  -6.53167E+0  -2.25810E+1
  -2.19789E+2   1.53176E+2
   1.24761E+2  -2.29495E+2
  -2.91520E+2  -3.63249E+1
   1.86824E+2  -5.72093E+1
  -1.72493E+1   3.21641E+1
   3.67471E+1   1.17590E+2
   1.55200E+2   4.18529E+1
  -1.79936E+2   2.29868E+1
   2.17250E+2  -1.45360E+1
   1.81544E+1  -7.20209E+1
  -9.68617E+1  -1.48527E+2
  -9.57549E+1  -1.08479E+2
  -2.90708E+1  -5.22433E+1
   3.65398E+1   2.55486E+0
  -3.50607E+1   2.46762E+2
  -1.84773E+2  -1.61325E+2
   9.40278E+1   8.57034E+1
  -3.34583E+1   9.14525E+1
  -2.73627E+2   3.40168E+1
   1.01955E+2   1.55356E+1
   1.91107E+1   1.74511E+2
  -6.61537E+1   8.33112E+1
  -9.04118E+1  -2.68269E+1
  -6.62450E+1   6.82159E+1
  -2.97176E+2  -2.04613E+1
   3.29168E+2  -9.49254E+1
   1.36718E+2   4.25330E+1
  -3.25201E+1   5.90490E+1
  -3.39560E+1  -1.13567E+2
   8.75979E+1  -3.82417E+1
  -1.19031E+2   2.19577E+0
   2.51311E+1  -6.22727E+1
   1.84566E+2   6.50045E+1
   1.46592E+1   3.96784E+1
  -2.25301E+1  -1.82102E+2
  -1.42137E+1   5.65869E+1
  -4.71165E+1  -3.35402E+1
   6.96121E+1  -1.82841E+1
  -1.52391E+2  -1.49152E+2
   8.39720E+1   1.07679E+2
   1.24654E+2   1.04202E+1
   1.66979E+2   8.18351E+1
   4.00692E+1   1.11922E+2
  -1.22384E+1  -1.85537E+2
  -1.49871E+2   2.15066E+1
  -1.26504E+2  -2.90372E+2
  -8.84537E+1  -1.33159E+2
  -2.41105E+2  -1.12600E+2
   3.16738E+1  -1.00767E+2
   7.24929E+1   3.00981E+1
  -1.42427E+2   2.91308E+2
  -1.76686E+2  -9.44419E+0
   6.08573E+0   1.10010E+2
  -4.51522E+1  -1.71527E+2
   6.92236E+1  -1.25273E+2
   1.68448E+2  -7.19294E+1
   8.54322E+1   3.25391E+1
   4.37807E+1  -8.38585E+1
  -2.74216E+2   1.43986E+2
  -1.24486E+2  -6.36684E+1
  -2.90538E+2  -1.10277E+1
  -1.00814E+2   5.19571E+1
  -4.12475E+1  -2.32692E+2
  -1.76161E+2   8.56163E+1
   8.51935E+1   1.08055E+1
   3.25053E+1   1.09339E+2
   9.16473E+1  -1.76337E+2
  -1.21637E+2  -4.69397E+1
  -5.53602E+1  -1.12882E+1
  -1.53339E+2  -1.30323E+2
   5.90251E+1  -4.75716E+1
  -1.80930E+2   2.14331E+2
  -9.14828E+1  -6.33492E+1
   1.73398E+2   9.26401E+0
   2.11265E+0  -4.24286E+1
   1.95906E+2  -5.19685E+1
   8.70609E+1  -1.08646E+2
   8.62122E+1   1.46420E+2
  -3.63626E+1  -1.36178E+2
   6.94766E+1  -3.41908E+0
  -2.09052E+2   1.54315E+2
  -2.03060E+1  -1.93452E+2
  -1.95243E+1  -8.05746E+1
   1.47481E+2  -7.51921E+1
   4.80240E+1   2.09875E+2
  -1.95486E+2  -1.20925E+2
  -1.35074E+2  -3.20315E+1
   1.65138E+2   1.62106E+1
   2.55600E+2   5.97843E+1
   7.09928E+1  -1.14976E+2
   1.31536E+2  -1.74177E+2
  -7.30425E+1  -2.44344E+1
   5.07581E+1  -3.23565E+1
   7.02619E+1   1.09697E+1
  -1.84952E+1  -6.80778E+1
  -2.01754E+2   1.87217E+1
  -7.64000E+1  -1.69457E+2
   1.38910E+2  -6.03912E+1
  -6.55899E+1  -2.22511E+2
   7.28945E+1  -1.94727E+2
   7.23336E+1  -1.22546E+2
  -9.11932E+1   8.75103E+1
   3.80792E+1   1.31815E+2
  -1.20679E+2  -1.84231E+2
  -1.77492E+2   1.43959E+1
  -8.66870E+1   1.72159E+1
  -5.80464E+1  -1.51842E+2
  -1.93117E+2  -7.18934E+1
  -9.20767E+0  -4.09238E+1
  -2.89212E+2   2.40461E+2
   6.08742E+1   6.59298E+1
  -3.03244E+1  -5.66285E+1
   1.79395E+2  -1.02984E+2
   9.88542E+1   5.65896E+1
  -5.35511E+1  -2.63785E+1
  -4.43617E+0  -2.38791E+1
  -8.11999E+1  -2.14031E+2
  -2.47706E+1  -6.22021E+1
  -6.59372E+0   1.29693E+0
  -1.32127E+2   1.06339E+2
  -2.53006E+2  -1.61036E+2
  -9.36832E+1  -4.96175E+1
   6.96824E+1  -2.62983E+1
  -1.39516E+2  -1.74390E+2
   2.24959E+2  -1.51309E+1
  -1.21231E+2   2.27691E+2
  -4.32431E+1  -2.80254E+1
   2.96266E+1  -1.07216E+2
   6.55389E+1   8.56266E+1
  -6.15407E+1   1.51499E+2
  -3.95477E+1  -2.40478E+2
  -6.22831E+1  -7.98477E+0
  -1.99019E+1   1.00869E+1
  -1.98485E+2   1.73172E+1
  -1.67549E+2   7.87301E+1
  -8.45109E+1  -1.90016E+2
  -9.97682E+1  -2.05001E+1
  -3.89526E+1  -2.13153E+1
  -1.57996E+2   4.29623E+1
   8.69333E+1   2.34830E+2
  -1.14196E+1  -1.36504E+1
  -1.66306E+1   2.01058E+1
