 
 $NMID
 ID=''
 FMTDAT='(2E13.5)'
 TRAMP=   1.00000E+0
 VOLUME=   1.00000E+0
 $END
  -2.23021E+5   4.37430E+5
  -9.35239E+5   9.21668E+5
  -7.67859E+5   1.05533E+6
  -7.28024E+5   9.66661E+5
  -7.71006E+5   9.61407E+5
  -7.30021E+5   9.45514E+5
  -7.31392E+5   8.91206E+5
  -7.63599E+5   9.16741E+5
  -7.23435E+5   9.40357E+5
  -7.04458E+5   9.25818E+5
  -6.95592E+5   9.40575E+5
  -6.50486E+5   9.36352E+5
  -6.31702E+5   9.09661E+5
  -6.23764E+5   9.17094E+5
  -5.93185E+5   9.18580E+5
  -5.76150E+5   9.08954E+5
  -5.66200E+5   9.21948E+5
  -5.42432E+5   9.16743E+5
  -5.33605E+5   8.96822E+5
  -5.26996E+5   8.95445E+5
  -5.10176E+5   8.85922E+5
  -5.01713E+5   8.71855E+5
  -4.89942E+5   8.73494E+5
  -4.71311E+5   8.67568E+5
  -4.60382E+5   8.53755E+5
  -4.39104E+5   8.54504E+5
  -4.14318E+5   8.51236E+5
  -3.98619E+5   8.44541E+5
  -3.80345E+5   8.40616E+5
  -3.57303E+5   8.33604E+5
  -3.46285E+5   8.26394E+5
  -3.33252E+5   8.21869E+5
  -3.19444E+5   8.11103E+5
  -3.09446E+5   8.00761E+5
  -2.97627E+5   7.93816E+5
  -2.86082E+5   7.84311E+5
  -2.80477E+5   7.75527E+5
  -2.71888E+5   7.67542E+5
  -2.57581E+5   7.56961E+5
  -2.44858E+5   7.49231E+5
  -2.31771E+5   7.42196E+5
  -2.17136E+5   7.32514E+5
  -2.02001E+5   7.24075E+5
  -1.87657E+5   7.17880E+5
  -1.74541E+5   7.08340E+5
  -1.61984E+5   7.00131E+5
  -1.50600E+5   6.92704E+5
  -1.42737E+5   6.82422E+5
  -1.35272E+5   6.70490E+5
  -1.26287E+5   6.60127E+5
  -1.18082E+5   6.50652E+5
  -1.12275E+5   6.41036E+5
  -1.05566E+5   6.31179E+5
  -9.88254E+4   6.21254E+5
  -9.16189E+4   6.11328E+5
  -8.45314E+4   6.01311E+5
  -7.71094E+4   5.91291E+5
  -6.92956E+4   5.81006E+5
  -6.13669E+4   5.70967E+5
  -5.45395E+4   5.61649E+5
  -4.87148E+4   5.52435E+5
  -4.28706E+4   5.42594E+5
  -3.80648E+4   5.32920E+5
  -3.40585E+4   5.23093E+5
  -3.01911E+4   5.12120E+5
  -2.59019E+4   5.00989E+5
  -2.22457E+4   4.90407E+5
  -1.86216E+4   4.80318E+5
  -1.54551E+4   4.71403E+5
  -1.20150E+4   4.62352E+5
  -9.42661E+3   4.52909E+5
  -6.00448E+3   4.43596E+5
  -2.30872E+3   4.34541E+5
   3.08033E+2   4.25598E+5
   2.02777E+3   4.16097E+5
   4.18720E+3   4.06999E+5
   5.60908E+3   3.98069E+5
   6.75261E+3   3.89601E+5
   7.50284E+3   3.81066E+5
   8.18474E+3   3.72753E+5
   8.67962E+3   3.64181E+5
   9.14553E+3   3.55736E+5
   9.24149E+3   3.47610E+5
   9.34689E+3   3.39959E+5
   9.31154E+3   3.32626E+5
   9.97427E+3   3.25197E+5
   1.06734E+4   3.18121E+5
   1.08209E+4   3.11274E+5
   1.11038E+4   3.05002E+5
   1.14169E+4   2.98225E+5
   1.15878E+4   2.91384E+5
   1.14302E+4   2.85227E+5
   1.08470E+4   2.79189E+5
   1.06551E+4   2.72782E+5
   9.91800E+3   2.66492E+5
   9.68505E+3   2.60309E+5
   9.10847E+3   2.54670E+5
   8.13587E+3   2.48897E+5
   7.40077E+3   2.43586E+5
   7.01511E+3   2.38182E+5
   6.88228E+3   2.33269E+5
   6.12071E+3   2.28255E+5
   5.56994E+3   2.23031E+5
   5.02994E+3   2.18005E+5
   4.99286E+3   2.13450E+5
   5.11334E+3   2.08982E+5
   4.54454E+3   2.04744E+5
   4.06555E+3   2.00455E+5
   3.72455E+3   1.95764E+5
   3.87998E+3   1.91407E+5
   3.66663E+3   1.87426E+5
   3.18015E+3   1.83672E+5
   2.37095E+3   1.79898E+5
   1.81354E+3   1.75981E+5
   1.47088E+3   1.72114E+5
   1.01150E+3   1.68146E+5
   4.14364E+2   1.64733E+5
  -1.78753E+2   1.61159E+5
  -3.39132E+2   1.57349E+5
  -5.09399E+2   1.54014E+5
  -7.86243E+2   1.50672E+5
  -9.49491E+2   1.47602E+5
  -1.42363E+3   1.44748E+5
  -2.14189E+3   1.41737E+5
  -2.14547E+3   1.38490E+5
  -2.57235E+3   1.35356E+5
  -2.79257E+3   1.32490E+5
  -3.46305E+3   1.29403E+5
  -3.71312E+3   1.26526E+5
  -4.32619E+3   1.23868E+5
  -4.99970E+3   1.21250E+5
  -5.74799E+3   1.18476E+5
  -6.22989E+3   1.15929E+5
  -6.36544E+3   1.13039E+5
  -7.07795E+3   1.10904E+5
  -7.65051E+3   1.08182E+5
  -8.11329E+3   1.05720E+5
  -8.50387E+3   1.03430E+5
  -9.20687E+3   1.01174E+5
  -1.00635E+4   9.89664E+4
  -1.07028E+4   9.63571E+4
  -1.10630E+4   9.39831E+4
  -1.13541E+4   9.18300E+4
  -1.19161E+4   8.97596E+4
  -1.26459E+4   8.74244E+4
  -1.32332E+4   8.54333E+4
  -1.33205E+4   8.32468E+4
  -1.40301E+4   8.11945E+4
  -1.42655E+4   7.90694E+4
  -1.47803E+4   7.70511E+4
  -1.50071E+4   7.49651E+4
  -1.54298E+4   7.31246E+4
  -1.56155E+4   7.14463E+4
  -1.56457E+4   6.98127E+4
  -1.58633E+4   6.79298E+4
  -1.61988E+4   6.61620E+4
  -1.62761E+4   6.48988E+4
  -1.65239E+4   6.27120E+4
  -1.66111E+4   6.12776E+4
  -1.68967E+4   5.97347E+4
  -1.70441E+4   5.81814E+4
  -1.69089E+4   5.63217E+4
  -1.69625E+4   5.48957E+4
  -1.71331E+4   5.33502E+4
  -1.71298E+4   5.19481E+4
  -1.69009E+4   5.04567E+4
  -1.63805E+4   4.92030E+4
  -1.63828E+4   4.78896E+4
  -1.64594E+4   4.66008E+4
  -1.59853E+4   4.53751E+4
  -1.59195E+4   4.36484E+4
  -1.58487E+4   4.27104E+4
  -1.53888E+4   4.17658E+4
  -1.52590E+4   4.05002E+4
  -1.49913E+4   3.92014E+4
  -1.47387E+4   3.83700E+4
  -1.46890E+4   3.74339E+4
  -1.42258E+4   3.62709E+4
  -1.38812E+4   3.51048E+4
  -1.37376E+4   3.39799E+4
  -1.35380E+4   3.30674E+4
  -1.30605E+4   3.22457E+4
  -1.29460E+4   3.12902E+4
  -1.28858E+4   3.03272E+4
  -1.27414E+4   2.93419E+4
  -1.23673E+4   2.86744E+4
  -1.20310E+4   2.75843E+4
  -1.17401E+4   2.68549E+4
  -1.14753E+4   2.61856E+4
  -1.11090E+4   2.52337E+4
  -1.07791E+4   2.44962E+4
  -1.08299E+4   2.37565E+4
  -1.01754E+4   2.30311E+4
  -9.93171E+3   2.23408E+4
  -9.41593E+3   2.12591E+4
  -9.36485E+3   2.07921E+4
  -9.04028E+3   2.02038E+4
  -8.53284E+3   1.95842E+4
  -8.20899E+3   1.85823E+4
  -7.87078E+3   1.81107E+4
  -7.63036E+3   1.76514E+4
  -7.36868E+3   1.66765E+4
  -6.82367E+3   1.60545E+4
  -6.71876E+3   1.55521E+4
  -6.35465E+3   1.49121E+4
  -5.89584E+3   1.42260E+4
  -5.37286E+3   1.35078E+4
  -5.28619E+3   1.30153E+4
  -4.61158E+3   1.24334E+4
  -4.55453E+3   1.19703E+4
  -4.47108E+3   1.15174E+4
  -3.90909E+3   1.09459E+4
  -3.44384E+3   1.01864E+4
  -3.21681E+3   9.70881E+3
  -3.07111E+3   9.17800E+3
  -2.83142E+3   9.00898E+3
  -2.80304E+3   8.68466E+3
  -2.61057E+3   7.85596E+3
  -2.16671E+3   7.70336E+3
  -2.06628E+3   6.98835E+3
  -1.74230E+3   7.01002E+3
  -1.43292E+3   6.48475E+3
  -1.20573E+3   6.12367E+3
  -1.03902E+3   5.85295E+3
  -7.68369E+2   5.51182E+3
  -9.05042E+2   4.87959E+3
  -5.90663E+2   4.75109E+3
  -4.83844E+2   4.59285E+3
  -2.71998E+2   4.07593E+3
  -2.18117E+2   4.06239E+3
  -4.88763E+1   3.83598E+3
   2.88313E+2   3.47602E+3
   3.61776E+2   3.43660E+3
   4.90671E+2   3.26774E+3
   5.91481E+2   2.88839E+3
   5.33084E+2   2.97168E+3
   6.89429E+2   2.89799E+3
   1.00264E+3   2.79018E+3
   7.48230E+2   2.38324E+3
   1.22209E+3   2.37630E+3
   1.02166E+3   2.45170E+3
   9.97955E+2   2.20049E+3
   1.12000E+3   2.27491E+3
   1.23956E+3   2.14884E+3
   1.22240E+3   2.05264E+3
   1.22872E+3   1.88639E+3
   1.15593E+3   1.94521E+3
   1.30134E+3   1.82153E+3
   1.35042E+3   1.86357E+3
   1.15432E+3   2.05276E+3
   1.50888E+3   1.95487E+3
   1.35551E+3   2.11215E+3
   1.38475E+3   2.07514E+3
   1.75750E+3   2.03967E+3
   1.53216E+3   2.09473E+3
   1.40550E+3   2.10344E+3
   1.47268E+3   2.23347E+3
   1.42219E+3   2.34308E+3
   1.43892E+3   2.19408E+3
   1.48307E+3   2.23272E+3
   1.63236E+3   2.28173E+3
   1.36719E+3   2.33552E+3
   1.46900E+3   2.37010E+3
   1.36665E+3   2.36312E+3
   1.39644E+3   2.42047E+3
   1.54467E+3   2.59545E+3
   1.24360E+3   2.58650E+3
   1.41065E+3   2.62250E+3
   1.40199E+3   2.57449E+3
   1.58721E+3   2.64093E+3
   1.38022E+3   2.46132E+3
   1.12971E+3   2.80346E+3
   1.08672E+3   2.53319E+3
   1.21071E+3   2.89101E+3
   9.91899E+2   2.72791E+3
   1.18029E+3   2.65466E+3
   9.87069E+2   2.86617E+3
   8.00949E+2   2.65167E+3
   9.57320E+2   2.77138E+3
   7.82879E+2   2.69515E+3
   8.44790E+2   2.83401E+3
   2.92160E+2   2.55262E+3
   5.43646E+2   2.78631E+3
   1.95383E+2   2.75109E+3
   2.02500E+2   2.86602E+3
   1.59943E+2   2.72156E+3
  -3.09886E+2   2.50272E+3
  -4.61443E+2   2.47756E+3
  -5.12087E+2   2.60805E+3
  -6.96567E+2   2.63600E+3
  -8.14209E+2   2.71191E+3
  -6.82473E+2   2.28341E+3
  -1.20266E+3   2.45875E+3
  -1.32231E+3   2.53273E+3
  -1.68103E+3   2.18153E+3
  -1.71917E+3   2.55854E+3
  -1.86074E+3   2.21925E+3
  -2.01972E+3   2.25436E+3
  -2.16849E+3   2.38275E+3
  -2.55808E+3   1.95761E+3
  -2.63674E+3   2.04293E+3
  -2.82578E+3   2.31937E+3
  -3.41033E+3   1.98362E+3
  -3.46573E+3   2.10101E+3
  -3.82566E+3   2.07367E+3
  -3.54670E+3   1.92330E+3
  -4.06554E+3   1.78813E+3
  -4.11751E+3   1.73036E+3
  -4.21339E+3   1.58858E+3
  -4.45693E+3   1.58424E+3
  -4.41424E+3   1.80596E+3
  -4.57538E+3   1.48089E+3
  -4.79120E+3   1.62563E+3
  -5.20950E+3   1.33320E+3
  -5.03527E+3   1.28833E+3
  -5.21003E+3   1.04982E+3
  -5.54873E+3   1.06387E+3
  -5.62960E+3   8.41290E+2
  -5.55096E+3   8.28174E+2
  -5.65577E+3   8.08727E+2
  -5.95492E+3   7.17699E+2
  -6.14416E+3   3.31026E+2
  -6.21148E+3   3.24313E+2
  -6.36438E+3   1.95457E+2
  -6.57883E+3   1.71477E+2
  -6.59685E+3   4.52050E+1
  -6.65773E+3  -9.73689E+1
  -6.90472E+3  -2.21084E+2
  -6.98001E+3  -3.04796E+2
  -7.01316E+3  -5.04795E+2
  -7.23437E+3  -4.71543E+2
  -7.36897E+3  -9.45212E+2
  -7.18271E+3  -7.86538E+2
  -7.29393E+3  -8.49111E+2
  -7.52824E+3  -1.17896E+3
  -7.44349E+3  -9.82502E+2
  -7.58371E+3  -1.27520E+3
  -7.94167E+3  -1.22768E+3
  -7.85584E+3  -1.69087E+3
  -7.99946E+3  -1.76413E+3
  -7.97082E+3  -1.96799E+3
  -7.78200E+3  -2.01433E+3
  -7.94377E+3  -2.37410E+3
  -8.15560E+3  -2.49350E+3
  -8.08213E+3  -2.52872E+3
  -8.27733E+3  -2.57945E+3
  -8.46515E+3  -2.64269E+3
  -8.28960E+3  -2.83104E+3
  -8.48574E+3  -3.03314E+3
  -8.44339E+3  -3.30323E+3
  -8.44333E+3  -3.28405E+3
  -8.58079E+3  -3.28041E+3
  -8.45326E+3  -3.38561E+3
  -8.55712E+3  -3.85692E+3
  -8.51332E+3  -3.71048E+3
  -8.76613E+3  -4.17249E+3
  -8.53219E+3  -4.26568E+3
  -8.42074E+3  -4.30943E+3
  -8.58936E+3  -4.50268E+3
  -8.54293E+3  -4.64641E+3
  -8.70565E+3  -4.71810E+3
  -8.74324E+3  -4.60464E+3
  -8.56777E+3  -4.79459E+3
  -8.60470E+3  -5.03257E+3
  -8.44090E+3  -5.04163E+3
  -8.63465E+3  -5.14356E+3
  -8.47387E+3  -5.17023E+3
