 LCModel (Version 6.3-1N) Copyright: S.W. Provencher.          Ref.: Magn. Reson. Med. 30:672-679 (1993).                
 Slice_N1@24_17  28-Feb-2025 11:44:01
 27 lines in following concentration table = NCONC+1
    Conc.  %SD /Cr+PCr  Metabolite                                         
 2.49E-04   9%   0.000 Mac                                                 
    0.000 999%   0.000 Cr                                                  
    0.000 999%   0.000 PCr                                                 
    0.172 577%   0.000 Ins                                                 
    0.000 999%   0.000 NAA                                                 
    0.000 999%   0.000 Tau                                                 
    0.000 999%   0.000 PCho                                                
    0.000 999%   0.000 GPC                                                 
    4.138  32%   0.000 Glu                                                 
    3.558  30%   0.000 Gln                                                 
    0.000 999%   0.000 Ala                                                 
    0.000 999%   0.000 Asc                                                 
    0.293  79%   0.000 Asp                                                 
    0.105 134%   0.000 GABA                                                
    0.119 118%   0.000 Glc                                                 
    1.811  34%   0.000 GSH                                                 
   31.174   8%   0.000 Lac                                                 
    4.351  21%   0.000 NAAG                                                
    0.000 999%   0.000 PE                                                  
    0.000 999%   0.000 GPC+PCho                                            
    4.351  21%   0.000 NAA+NAAG                                            
    7.696  23%   0.000 Glu+Gln                                             
    0.000 999%   0.000 Cr+PCr                                              
    4.351  21%   0.000 NAA+NAAG                                            
    0.000 999%   0.000 Cr+PCr                                              
    7.696  23%   0.000 Glu+Gln                                             
   6 lines in following misc. output table
  FWHM = 0.130 ppm    S/N =   4                                            
  Data shift = 0.000 ppm                                                   
  Ph: -19 deg       0.0 deg/ppm                                            
  alphaB,S = 1.2E-01,   4.6E+01                                            
    9 spline knots.   Ns = 9(2)                                            
  (15) 3 infls.   (18) 2 extrs.                                            
  480 points on ppm-axis = NY
      4.100000     4.091866     4.083733     4.075600     4.067466     4.059333     4.051199     4.043066     4.034933     4.026799
      4.018666     4.010532     4.002399     3.994265     3.986132     3.977998     3.969864     3.961731     3.953597     3.945463
      3.937330     3.929196     3.921062     3.912929     3.904795     3.896662     3.888528     3.880394     3.872261     3.864127
      3.855993     3.847860     3.839726     3.831592     3.823459     3.815325     3.807191     3.799058     3.790924     3.782790
      3.774657     3.766523     3.758389     3.750256     3.742122     3.733989     3.725855     3.717721     3.709588     3.701454
      3.693320     3.685187     3.677053     3.668919     3.660786     3.652652     3.644518     3.636385     3.628251     3.620117
      3.611984     3.603850     3.595716     3.587583     3.579449     3.571316     3.563182     3.555048     3.546915     3.538781
      3.530647     3.522514     3.514380     3.506246     3.498113     3.489979     3.481845     3.473712     3.465578     3.457444
      3.449311     3.441177     3.433043     3.424910     3.416776     3.408643     3.400509     3.392375     3.384242     3.376108
      3.367974     3.359841     3.351707     3.343573     3.335440     3.327306     3.319172     3.311039     3.302905     3.294771
      3.286638     3.278504     3.270370     3.262237     3.254103     3.245970     3.237836     3.229702     3.221569     3.213435
      3.205301     3.197168     3.189034     3.180900     3.172767     3.164633     3.156499     3.148366     3.140232     3.132098
      3.123965     3.115831     3.107697     3.099564     3.091430     3.083297     3.075163     3.067029     3.058896     3.050762
      3.042628     3.034495     3.026361     3.018227     3.010094     3.001960     2.993826     2.985693     2.977559     2.969425
      2.961292     2.953158     2.945024     2.936891     2.928757     2.920624     2.912490     2.904356     2.896223     2.888089
      2.879955     2.871822     2.863688     2.855554     2.847421     2.839287     2.831153     2.823020     2.814886     2.806752
      2.798619     2.790485     2.782351     2.774218     2.766084     2.757951     2.749817     2.741683     2.733550     2.725416
      2.717282     2.709149     2.701015     2.692881     2.684748     2.676614     2.668480     2.660347     2.652213     2.644079
      2.635946     2.627812     2.619678     2.611545     2.603411     2.595278     2.587144     2.579010     2.570877     2.562743
      2.554609     2.546476     2.538342     2.530208     2.522075     2.513941     2.505807     2.497674     2.489540     2.481406
      2.473273     2.465139     2.457006     2.448872     2.440738     2.432605     2.424471     2.416337     2.408204     2.400070
      2.391936     2.383803     2.375669     2.367535     2.359402     2.351268     2.343134     2.335001     2.326867     2.318733
      2.310600     2.302466     2.294333     2.286199     2.278065     2.269932     2.261798     2.253664     2.245531     2.237397
      2.229263     2.221130     2.212996     2.204862     2.196729     2.188595     2.180461     2.172328     2.164194     2.156060
      2.147927     2.139793     2.131660     2.123526     2.115392     2.107259     2.099125     2.090991     2.082858     2.074724
      2.066590     2.058457     2.050323     2.042189     2.034056     2.025922     2.017788     2.009655     2.001521     1.993387
      1.985254     1.977120     1.968987     1.960853     1.952719     1.944586     1.936452     1.928318     1.920185     1.912051
      1.903917     1.895784     1.887650     1.879516     1.871383     1.863249     1.855115     1.846982     1.838848     1.830714
      1.822581     1.814447     1.806314     1.798180     1.790046     1.781913     1.773779     1.765645     1.757512     1.749378
      1.741244     1.733111     1.724977     1.716843     1.708710     1.700576     1.692442     1.684309     1.676175     1.668041
      1.659908     1.651774     1.643641     1.635507     1.627373     1.619240     1.611106     1.602972     1.594839     1.586705
      1.578571     1.570438     1.562304     1.554170     1.546037     1.537903     1.529769     1.521636     1.513502     1.505368
      1.497235     1.489101     1.480968     1.472834     1.464700     1.456567     1.448433     1.440299     1.432166     1.424032
      1.415898     1.407765     1.399631     1.391497     1.383364     1.375230     1.367096     1.358963     1.350829     1.342695
      1.334562     1.326428     1.318295     1.310161     1.302027     1.293894     1.285760     1.277626     1.269493     1.261359
      1.253225     1.245092     1.236958     1.228824     1.220691     1.212557     1.204423     1.196290     1.188156     1.180022
      1.171889     1.163755     1.155622     1.147488     1.139354     1.131221     1.123087     1.114953     1.106820     1.098686
      1.090552     1.082419     1.074285     1.066151     1.058018     1.049884     1.041750     1.033617     1.025483     1.017349
      1.009216     1.001082     0.992949     0.984815     0.976681     0.968548     0.960414     0.952280     0.944147     0.936013
      0.927879     0.919746     0.911612     0.903478     0.895345     0.887211     0.879077     0.870944     0.862810     0.854676
      0.846543     0.838409     0.830276     0.822142     0.814008     0.805875     0.797741     0.789607     0.781474     0.773340
      0.765206     0.757073     0.748939     0.740805     0.732672     0.724538     0.716404     0.708271     0.700137     0.692003
      0.683870     0.675736     0.667603     0.659469     0.651335     0.643202     0.635068     0.626934     0.618801     0.610667
      0.602533     0.594400     0.586266     0.578132     0.569999     0.561865     0.553731     0.545598     0.537464     0.529330
      0.521197     0.513063     0.504930     0.496796     0.488662     0.480529     0.472395     0.464261     0.456128     0.447994
      0.439861     0.431727     0.423593     0.415460     0.407326     0.399192     0.391059     0.382925     0.374792     0.366658
      0.358524     0.350391     0.342257     0.334124     0.325990     0.317856     0.309723     0.301589     0.293455     0.285322
      0.277188     0.269055     0.260921     0.252787     0.244654     0.236520     0.228386     0.220253     0.212119     0.203986
 NY phased data points follow
  -5.78278E+00 -1.41909E+01 -2.02376E+01 -1.02056E+01 -2.03752E+01 -1.24135E+01 -1.87548E+01 -1.76592E+01 -1.67027E+01 -2.62597E+01
  -9.25862E+00 -2.40161E+01 -4.19738E+01 -3.21724E+01 -2.36702E+01 -2.27874E+01 -3.88831E+01 -3.73126E+01 -2.79358E+01 -4.97965E+01
  -5.82482E+01 -5.66840E+01 -5.87208E+01 -6.99617E+01 -8.78326E+01 -7.66455E+01 -7.69496E+01 -7.81225E+01 -8.93974E+01 -8.65751E+01
  -7.44157E+01 -9.14596E+01 -7.98048E+01 -8.77779E+01 -1.00732E+02 -9.27107E+01 -9.08087E+01 -8.67243E+01 -1.03536E+02 -1.04696E+02
  -9.14626E+01 -8.93732E+01 -7.21974E+01 -8.08802E+01 -8.10198E+01 -7.04659E+01 -9.87009E+01 -7.96707E+01 -9.03207E+01 -8.86498E+01
  -5.94605E+01 -8.57331E+01 -6.98090E+01 -7.03527E+01 -7.10147E+01 -6.40597E+01 -5.98053E+01 -4.46946E+01 -5.15251E+01 -4.79703E+01
  -4.72432E+01 -3.99670E+01 -5.75451E+01 -6.56650E+01 -6.24238E+01 -5.91777E+01 -5.23496E+01 -6.42623E+01 -4.56741E+01 -3.96749E+01
  -3.70474E+01 -2.26428E+01 -2.78598E+01 -3.61392E+01 -2.72094E+01 -2.00062E+01 -3.81595E+01 -3.55651E+01 -2.85700E+01 -3.02460E+01
  -2.96289E+01 -4.52144E+01 -3.44615E+01 -2.18741E+01 -3.00082E+01 -1.10659E+01 -2.41950E+01 -2.17361E+01  8.80840E+00  3.88460E+00
   1.24070E+01  7.33283E-01  9.25164E+00  2.53448E+01  7.99716E+00  2.24507E+01  1.58211E+01  4.85865E+00  2.00536E+00 -7.23108E+00
   3.41354E+00 -1.42500E+01 -2.17145E+01 -3.36999E+01 -6.52293E+01 -6.43212E+01 -6.94017E+01 -7.40844E+01 -8.48540E+01 -6.47409E+01
  -6.72204E+01 -8.67358E+01 -3.72111E+01 -3.47550E+01 -4.33076E+01 -3.40731E+01 -3.74893E+01 -2.17281E+01 -1.46822E+00 -3.10636E+00
  -5.92223E+00  6.31478E+00 -6.92871E+00 -2.14750E+00  3.27252E+00 -2.66719E+00 -2.62526E+01 -3.53277E+01 -1.84510E+01 -4.57990E+01
  -4.08658E+01 -3.61139E+01 -6.69148E+01 -6.17010E+01 -2.92057E+01 -5.11525E+00 -2.32043E+01 -5.63010E+01 -4.99001E+01 -3.35148E+01
  -4.16231E+01 -6.48887E+01 -6.61963E+01 -5.04340E+01 -5.62113E+01 -5.20860E+01 -6.00562E+01 -4.61323E+01 -3.87795E+01 -5.76304E+01
  -5.03458E+01 -5.94437E+01 -5.15672E+01 -4.42811E+01 -4.65864E+01 -4.86459E+01 -1.83057E+01 -1.78426E+01 -5.96968E+01 -3.19066E+01
  -3.12594E+01 -4.10784E+01 -3.53085E+01 -3.37072E+01 -3.13779E+01 -4.25450E+01 -3.75532E+01 -3.93659E+01 -3.82487E+01 -3.32175E+01
  -4.39560E+01 -4.65719E+01 -4.43889E+01 -4.24617E+01 -3.93353E+01 -5.55843E+01 -4.85136E+01 -5.69268E+01 -6.39650E+01 -6.43485E+01
  -7.09857E+01 -4.05771E+01 -6.70853E+01 -5.94998E+01 -5.98416E+01 -7.21566E+01 -5.90347E+01 -7.64211E+01 -4.27517E+01 -5.31157E+01
  -6.07735E+01 -6.01754E+01 -6.32717E+01 -4.67137E+01 -5.71105E+01 -4.88484E+01 -5.42850E+01 -5.61386E+01 -5.90591E+01 -7.08619E+01
  -6.57378E+01 -4.09328E+01 -4.37848E+01 -5.32743E+01 -5.55377E+01 -6.00541E+01 -4.25875E+01 -5.87448E+01 -5.67744E+01 -4.65798E+01
  -4.36230E+01 -4.17012E+01 -4.10374E+01 -3.90372E+01 -6.02835E+01 -5.31996E+01 -4.23675E+01 -4.19579E+01 -5.19055E+01 -4.80077E+01
  -5.55961E+01 -5.31167E+01 -2.74547E+01 -3.95625E+01 -5.01029E+01 -6.88634E+01 -5.40138E+01 -5.54358E+01 -7.18945E+01 -6.26582E+01
  -7.14035E+01 -5.98830E+01 -6.46799E+01 -6.20789E+01 -7.16587E+01 -6.36237E+01 -5.69006E+01 -9.05411E+01 -6.04700E+01 -5.97823E+01
  -7.00968E+01 -6.93636E+01 -7.09546E+01 -5.43065E+01 -8.21872E+01 -8.57116E+01 -7.76677E+01 -8.95161E+01 -9.80748E+01 -7.18985E+01
  -5.18078E+01 -4.88118E+01 -2.25817E+01 -1.86098E+01 -5.29889E+00 -7.64656E+00  5.76519E+00  1.05349E+01  3.25149E+01  4.03455E+01
  -4.60306E+01 -6.00391E+00  2.68531E+01  1.84161E+01  3.74367E+01  1.90109E+01  3.53773E+01  1.50517E+01  2.51922E+01  3.19862E+01
   2.25848E+01  5.08102E+01  3.88079E+01  4.40859E+01  5.76200E+01  5.65179E+01  3.87220E+01  2.94087E+01  4.04062E+01  3.86862E+01
   4.93815E+01  5.64127E+01  3.85157E+01  1.54049E+01  2.36116E+01  3.35631E+01  2.42168E+01  3.58160E+01  2.93958E+01  2.49553E+01
   3.93317E+01  1.96713E+01  2.86126E+00  3.27243E+00  1.06761E+01  2.27563E+01  2.42028E+01  9.34364E+00  4.10181E+00  1.85136E+01
   2.37489E+01  2.37396E+01  1.46666E+00  9.66541E+00  3.63862E+01  1.48111E+01  1.39757E+01  2.06601E+01  5.32763E+00  1.16363E+01
   1.56843E+01  6.07656E+00  2.10068E+01  4.18048E+01  3.18942E+01  1.13616E+01  1.94783E+01  2.50877E+01  3.16774E+01  6.14296E+01
   5.82838E+01  4.80697E+01  4.85051E+01  5.16875E+01  6.02057E+01  6.25594E+01  6.15235E+01  5.83756E+01  7.24753E+01  7.85352E+01
   7.69453E+01  9.97186E+01  1.12504E+02  1.10715E+02  1.17998E+02  1.28726E+02  1.32128E+02  1.09469E+02  1.10206E+02  9.97400E+01
   8.35042E+01  1.04493E+02  5.51654E+01  4.09351E+01  3.72408E+01 -5.56912E+00 -1.15748E+01 -4.94165E+01 -7.08742E+01 -8.31048E+01
  -9.46176E+01 -9.73966E+01 -9.53660E+01 -1.00320E+02 -1.08206E+02 -1.00278E+02 -1.11387E+02 -7.90896E+01 -7.32565E+01 -9.57065E+01
  -8.67847E+01 -6.94702E+01 -6.12635E+01 -6.72669E+01 -3.79602E+01 -4.63383E+01 -4.94574E+01 -2.67950E+01 -3.76865E+01 -2.75072E+01
  -2.19879E+01 -2.45807E+01 -1.11176E+01  5.09523E+00  1.14305E+01  1.84499E+01  2.89010E+01  3.37381E+01  3.91910E+01  5.11712E+01
   4.81051E+01  3.61529E+01  5.85713E+01  6.31475E+01  6.27548E+01  8.08807E+01  6.16937E+01  6.17712E+01  7.53914E+01  6.79749E+01
   6.97302E+01  6.70280E+01  6.90033E+01  6.72314E+01  6.16008E+01  5.15816E+01  2.82171E+01  3.69830E+01  4.89561E+01  2.58643E+01
   8.72613E+00  1.31372E+01  9.23359E+00  3.17379E+00  2.17411E+00  1.67046E+00 -6.07389E+00 -2.75645E+01 -2.57326E+01 -2.07294E+01
  -1.33070E+01 -1.00157E+01 -1.91043E+01 -9.76268E+00 -2.25197E+01 -2.92025E+01 -2.33133E+01 -2.57838E+01 -2.01064E+01 -1.85834E+01
  -3.53076E+01 -3.46856E+01 -6.91060E+00 -2.74189E+01 -3.43161E+01 -1.76034E+01 -1.79539E+01 -2.33075E+01 -3.91533E+01 -3.20532E+01
  -3.89500E+01 -3.51844E+01 -2.87400E+01 -2.98011E+01 -2.49876E+01 -2.07536E+01 -1.56690E+01 -3.35528E+01 -1.88876E+01 -3.23937E+01
  -4.24403E+01 -2.65937E+01 -3.48931E+01 -2.07672E+01 -3.21141E+01 -4.09895E+01 -3.24430E+01 -2.67860E+01 -2.56349E+01 -1.46507E+01
  -1.81602E+01 -2.51201E+01 -2.16592E+01 -4.17028E+01 -2.21212E+01 -2.29024E+01 -2.72145E+01 -2.69125E+01 -3.45812E+01 -1.77191E+01
  -2.46458E+01 -1.38430E+01 -1.23563E+01 -2.73487E+01 -3.06369E+01 -2.72684E+01 -3.72329E+01 -2.55176E+01 -1.81630E+01 -3.33201E+01
  -1.72691E+01 -3.23628E+01 -3.18894E+01 -3.48989E+01 -3.29764E+01 -3.06165E+01 -4.69348E+01 -1.47234E+01 -1.14837E+01 -1.08087E+01
 NY points of the fit to the data follow
  -4.01147E+01 -3.00208E+01 -3.66170E+01 -2.66946E+01 -3.18522E+01 -2.40353E+01 -2.81725E+01 -2.35875E+01 -2.74443E+01 -2.58433E+01
  -2.97637E+01 -3.02372E+01 -3.40860E+01 -3.56876E+01 -3.91911E+01 -4.13345E+01 -4.42991E+01 -4.69098E+01 -4.92058E+01 -5.19854E+01
  -5.36275E+01 -5.56355E+01 -5.62962E+01 -5.78285E+01 -5.82226E+01 -5.95252E+01 -6.00191E+01 -6.13034E+01 -6.22399E+01 -6.37052E+01
  -6.53994E+01 -6.70286E+01 -6.97748E+01 -7.13706E+01 -7.50051E+01 -7.62418E+01 -8.01118E+01 -8.06207E+01 -8.39335E+01 -8.36967E+01
  -8.61719E+01 -8.51707E+01 -8.66920E+01 -8.49255E+01 -8.51680E+01 -8.27674E+01 -8.15960E+01 -7.88928E+01 -7.66783E+01 -7.40090E+01
  -7.14010E+01 -6.89768E+01 -6.64259E+01 -6.43721E+01 -6.20748E+01 -6.03400E+01 -5.82978E+01 -5.66854E+01 -5.47238E+01 -5.32467E+01
  -5.14048E+01 -5.01911E+01 -4.88346E+01 -4.76359E+01 -4.65207E+01 -4.52810E+01 -4.42891E+01 -4.29749E+01 -4.19951E+01 -4.06301E+01
  -3.96404E+01 -3.82764E+01 -3.72881E+01 -3.59489E+01 -3.49561E+01 -3.36240E+01 -3.25936E+01 -3.12297E+01 -3.01676E+01 -2.87776E+01
  -2.76489E+01 -2.62086E+01 -2.50247E+01 -2.35100E+01 -2.22891E+01 -2.06384E+01 -1.94285E+01 -1.77995E+01 -1.68466E+01 -1.54785E+01
  -1.49329E+01 -1.40401E+01 -1.40475E+01 -1.37585E+01 -1.44492E+01 -1.49131E+01 -1.63662E+01 -1.76386E+01 -1.97414E+01 -2.16924E+01
  -2.42087E+01 -2.65940E+01 -2.92390E+01 -3.17886E+01 -3.43506E+01 -3.68203E+01 -3.90610E+01 -4.09872E+01 -4.22724E+01 -4.32039E+01
  -4.34422E+01 -4.33141E+01 -4.25255E+01 -4.13678E+01 -3.96503E+01 -3.76914E+01 -3.53505E+01 -3.29273E+01 -3.03551E+01 -2.79741E+01
  -2.57450E+01 -2.38307E+01 -2.21924E+01 -2.09128E+01 -1.98885E+01 -1.95201E+01 -1.92397E+01 -1.98950E+01 -2.04792E+01 -2.21149E+01
  -2.34203E+01 -2.56994E+01 -2.73999E+01 -3.00122E+01 -3.18916E+01 -3.45769E+01 -3.65274E+01 -3.91069E+01 -4.10153E+01 -4.32968E+01
  -4.50102E+01 -4.69481E+01 -4.84476E+01 -4.99971E+01 -5.12040E+01 -5.22459E+01 -5.30325E+01 -5.36332E+01 -5.42410E+01 -5.45123E+01
  -5.47582E+01 -5.46919E+01 -5.47515E+01 -5.46349E+01 -5.45677E+01 -5.40465E+01 -5.36555E+01 -5.28367E+01 -5.22215E+01 -5.12509E+01
  -5.04514E+01 -4.93467E+01 -4.83788E+01 -4.72521E+01 -4.62680E+01 -4.53073E+01 -4.44991E+01 -4.38827E+01 -4.33982E+01 -4.32099E+01
  -4.32040E+01 -4.34287E+01 -4.39819E+01 -4.48245E+01 -4.55467E+01 -4.69940E+01 -4.79451E+01 -4.96259E+01 -5.07125E+01 -5.22439E+01
  -5.31927E+01 -5.44280E+01 -5.49265E+01 -5.56613E+01 -5.57725E+01 -5.60685E+01 -5.59967E+01 -5.57312E+01 -5.54635E+01 -5.48776E+01
  -5.43087E+01 -5.36602E+01 -5.27567E+01 -5.20355E+01 -5.08282E+01 -5.01554E+01 -4.89192E+01 -4.83904E+01 -4.74983E+01 -4.75396E+01
  -4.67870E+01 -4.77667E+01 -4.70835E+01 -4.86110E+01 -4.80603E+01 -4.98254E+01 -4.90682E+01 -5.07971E+01 -4.93927E+01 -5.08118E+01
  -4.85061E+01 -4.92993E+01 -4.61185E+01 -4.58643E+01 -4.21948E+01 -4.12453E+01 -3.72919E+01 -3.63250E+01 -3.30903E+01 -3.22243E+01
  -3.05929E+01 -3.05472E+01 -3.07619E+01 -3.21341E+01 -3.45929E+01 -3.71962E+01 -4.17298E+01 -4.51536E+01 -5.06876E+01 -5.45710E+01
  -5.99396E+01 -6.36595E+01 -6.79995E+01 -7.07828E+01 -7.28883E+01 -7.60083E+01 -7.79213E+01 -8.06248E+01 -8.12823E+01 -8.31018E+01
  -8.22657E+01 -8.30555E+01 -8.17569E+01 -8.11524E+01 -7.99523E+01 -7.72231E+01 -7.57027E+01 -7.03960E+01 -6.79515E+01 -6.01835E+01
  -5.66489E+01 -4.72729E+01 -4.31642E+01 -3.31173E+01 -2.88253E+01 -1.85492E+01 -1.41230E+01 -4.41152E+00  2.16742E-01  7.96848E+00
   1.20442E+01  1.74008E+01  2.02812E+01  2.35033E+01  2.52219E+01  2.68303E+01  2.78018E+01  2.83527E+01  2.88097E+01  2.89986E+01
   2.93289E+01  2.92518E+01  2.94258E+01  2.89550E+01  2.82935E+01  2.82482E+01  2.75977E+01  2.78208E+01  2.70491E+01  2.72487E+01
   2.62056E+01  2.60866E+01  2.47266E+01  2.41373E+01  2.25008E+01  2.14719E+01  1.96944E+01  1.83702E+01  1.66391E+01  1.52426E+01
   1.38024E+01  1.25594E+01  1.16078E+01  1.07222E+01  1.04277E+01  1.01061E+01  1.05501E+01  1.09955E+01  1.22166E+01  1.34397E+01
   1.53608E+01  1.73171E+01  1.98187E+01  2.23680E+01  2.52687E+01  2.82770E+01  3.15025E+01  3.48535E+01  3.82364E+01  4.16755E+01
   4.49792E+01  4.81376E+01  5.10142E+01  5.34422E+01  5.54865E+01  5.67643E+01  5.76349E+01  5.74578E+01  5.68268E+01  5.48924E+01
   5.22399E+01  4.77746E+01  4.22401E+01  4.26335E+01  3.91273E+01  4.53918E+01  4.95353E+01  5.70019E+01  6.47088E+01  7.29735E+01
   8.37816E+01  9.18851E+01  1.05740E+02  1.09801E+02  1.23221E+02  1.19450E+02  1.27333E+02  1.15144E+02  1.14481E+02  9.69723E+01
   8.85048E+01  6.86864E+01  5.47569E+01  3.35707E+01  1.49580E+01 -5.70472E+00 -2.78549E+01 -4.34447E+01 -6.48217E+01 -7.28444E+01
  -8.90015E+01 -9.05237E+01 -1.00575E+02 -9.79444E+01 -1.02895E+02 -9.79996E+01 -9.93640E+01 -9.37186E+01 -9.29535E+01 -8.63698E+01
  -8.39288E+01 -7.49418E+01 -6.93612E+01 -6.11286E+01 -5.38952E+01 -4.78610E+01 -4.19493E+01 -3.64907E+01 -3.06508E+01 -2.49683E+01
  -1.86886E+01 -1.24995E+01 -5.60714E+00  1.07055E+00  8.52589E+00  1.55680E+01  2.33829E+01  3.04110E+01  3.81086E+01  4.45798E+01
   5.15007E+01  5.68040E+01  6.23905E+01  6.60781E+01  6.98852E+01  7.16455E+01  7.33456E+01  7.30347E+01  7.24944E+01  7.01967E+01
   6.75471E+01  6.36393E+01  5.93240E+01  5.43849E+01  4.89583E+01  4.35064E+01  3.74997E+01  3.19912E+01  2.58577E+01  2.05721E+01
   1.47446E+01  9.98237E+00  4.80961E+00  7.97902E-01 -3.46699E+00 -6.61396E+00 -9.89595E+00 -1.22752E+01 -1.47196E+01 -1.64952E+01
  -1.82535E+01 -1.95320E+01 -2.07539E+01 -2.15867E+01 -2.24057E+01 -2.28932E+01 -2.34378E+01 -2.36901E+01 -2.40679E+01 -2.41922E+01
  -2.44667E+01 -2.45350E+01 -2.47295E+01 -2.48062E+01 -2.49042E+01 -2.50170E+01 -2.50465E+01 -2.51902E+01 -2.51719E+01 -2.53445E+01
  -2.52778E+01 -2.54625E+01 -2.54012E+01 -2.55875E+01 -2.55483E+01 -2.57207E+01 -2.57052E+01 -2.58674E+01 -2.58781E+01 -2.60196E+01
  -2.60543E+01 -2.61652E+01 -2.62316E+01 -2.62910E+01 -2.64014E+01 -2.64058E+01 -2.65746E+01 -2.65218E+01 -2.67352E+01 -2.65935E+01
  -2.68535E+01 -2.66142E+01 -2.69387E+01 -2.66361E+01 -2.69915E+01 -2.66405E+01 -2.70151E+01 -2.66103E+01 -2.69639E+01 -2.65528E+01
  -2.68686E+01 -2.64825E+01 -2.67853E+01 -2.64444E+01 -2.67366E+01 -2.64374E+01 -2.67018E+01 -2.64414E+01 -2.66670E+01 -2.64237E+01
  -2.66545E+01 -2.64304E+01 -2.66390E+01 -2.63836E+01 -2.65657E+01 -2.63001E+01 -2.64755E+01 -2.62426E+01 -2.64671E+01 -2.64262E+01
 NY background values follow
     4.675E+00    9.222E-03   -4.493E+00   -8.835E+00   -1.302E+01   -1.705E+01   -2.092E+01   -2.464E+01   -2.822E+01   -3.165E+01
    -3.493E+01   -3.807E+01   -4.108E+01   -4.394E+01   -4.667E+01   -4.927E+01   -5.174E+01   -5.409E+01   -5.631E+01   -5.840E+01
    -6.038E+01   -6.223E+01   -6.398E+01   -6.560E+01   -6.712E+01   -6.853E+01   -6.984E+01   -7.104E+01   -7.214E+01   -7.314E+01
    -7.404E+01   -7.485E+01   -7.557E+01   -7.620E+01   -7.675E+01   -7.720E+01   -7.758E+01   -7.788E+01   -7.810E+01   -7.824E+01
    -7.831E+01   -7.832E+01   -7.825E+01   -7.812E+01   -7.792E+01   -7.767E+01   -7.735E+01   -7.699E+01   -7.656E+01   -7.609E+01
    -7.557E+01   -7.500E+01   -7.438E+01   -7.373E+01   -7.304E+01   -7.231E+01   -7.154E+01   -7.074E+01   -6.992E+01   -6.906E+01
    -6.818E+01   -6.728E+01   -6.636E+01   -6.542E+01   -6.447E+01   -6.350E+01   -6.252E+01   -6.153E+01   -6.054E+01   -5.954E+01
    -5.855E+01   -5.755E+01   -5.656E+01   -5.557E+01   -5.459E+01   -5.363E+01   -5.267E+01   -5.173E+01   -5.081E+01   -4.991E+01
    -4.904E+01   -4.818E+01   -4.735E+01   -4.655E+01   -4.577E+01   -4.501E+01   -4.428E+01   -4.357E+01   -4.288E+01   -4.221E+01
    -4.157E+01   -4.094E+01   -4.034E+01   -3.976E+01   -3.920E+01   -3.866E+01   -3.814E+01   -3.765E+01   -3.717E+01   -3.671E+01
    -3.627E+01   -3.585E+01   -3.545E+01   -3.506E+01   -3.470E+01   -3.435E+01   -3.402E+01   -3.370E+01   -3.340E+01   -3.312E+01
    -3.286E+01   -3.261E+01   -3.238E+01   -3.216E+01   -3.196E+01   -3.177E+01   -3.160E+01   -3.144E+01   -3.130E+01   -3.117E+01
    -3.105E+01   -3.095E+01   -3.086E+01   -3.078E+01   -3.071E+01   -3.066E+01   -3.062E+01   -3.058E+01   -3.056E+01   -3.056E+01
    -3.056E+01   -3.057E+01   -3.059E+01   -3.062E+01   -3.066E+01   -3.071E+01   -3.077E+01   -3.084E+01   -3.091E+01   -3.100E+01
    -3.109E+01   -3.119E+01   -3.129E+01   -3.140E+01   -3.152E+01   -3.165E+01   -3.178E+01   -3.191E+01   -3.206E+01   -3.220E+01
    -3.236E+01   -3.251E+01   -3.267E+01   -3.284E+01   -3.301E+01   -3.318E+01   -3.335E+01   -3.353E+01   -3.371E+01   -3.389E+01
    -3.408E+01   -3.426E+01   -3.445E+01   -3.464E+01   -3.483E+01   -3.502E+01   -3.521E+01   -3.540E+01   -3.560E+01   -3.579E+01
    -3.599E+01   -3.619E+01   -3.638E+01   -3.658E+01   -3.678E+01   -3.697E+01   -3.717E+01   -3.737E+01   -3.756E+01   -3.776E+01
    -3.796E+01   -3.815E+01   -3.835E+01   -3.854E+01   -3.873E+01   -3.892E+01   -3.911E+01   -3.930E+01   -3.949E+01   -3.967E+01
    -3.986E+01   -4.004E+01   -4.022E+01   -4.040E+01   -4.057E+01   -4.075E+01   -4.092E+01   -4.109E+01   -4.125E+01   -4.142E+01
    -4.158E+01   -4.173E+01   -4.189E+01   -4.204E+01   -4.219E+01   -4.233E+01   -4.247E+01   -4.261E+01   -4.274E+01   -4.287E+01
    -4.300E+01   -4.312E+01   -4.323E+01   -4.335E+01   -4.345E+01   -4.356E+01   -4.366E+01   -4.375E+01   -4.384E+01   -4.392E+01
    -4.400E+01   -4.407E+01   -4.414E+01   -4.420E+01   -4.426E+01   -4.431E+01   -4.435E+01   -4.439E+01   -4.442E+01   -4.445E+01
    -4.447E+01   -4.448E+01   -4.449E+01   -4.449E+01   -4.448E+01   -4.447E+01   -4.444E+01   -4.442E+01   -4.438E+01   -4.434E+01
    -4.429E+01   -4.423E+01   -4.416E+01   -4.409E+01   -4.401E+01   -4.392E+01   -4.382E+01   -4.372E+01   -4.361E+01   -4.350E+01
    -4.337E+01   -4.324E+01   -4.310E+01   -4.296E+01   -4.281E+01   -4.265E+01   -4.248E+01   -4.231E+01   -4.214E+01   -4.195E+01
    -4.176E+01   -4.156E+01   -4.136E+01   -4.115E+01   -4.094E+01   -4.072E+01   -4.049E+01   -4.025E+01   -4.002E+01   -3.977E+01
    -3.952E+01   -3.926E+01   -3.900E+01   -3.873E+01   -3.846E+01   -3.818E+01   -3.790E+01   -3.761E+01   -3.732E+01   -3.702E+01
    -3.671E+01   -3.640E+01   -3.609E+01   -3.577E+01   -3.544E+01   -3.511E+01   -3.478E+01   -3.444E+01   -3.410E+01   -3.375E+01
    -3.340E+01   -3.304E+01   -3.268E+01   -3.232E+01   -3.195E+01   -3.158E+01   -3.120E+01   -3.082E+01   -3.043E+01   -3.004E+01
    -2.965E+01   -2.925E+01   -2.885E+01   -2.845E+01   -2.804E+01   -2.763E+01   -2.722E+01   -2.680E+01   -2.638E+01   -2.595E+01
    -2.552E+01   -2.509E+01   -2.466E+01   -2.422E+01   -2.378E+01   -2.334E+01   -2.290E+01   -2.245E+01   -2.200E+01   -2.154E+01
    -2.109E+01   -2.063E+01   -2.017E+01   -1.971E+01   -1.924E+01   -1.878E+01   -1.831E+01   -1.784E+01   -1.737E+01   -1.691E+01
    -1.644E+01   -1.597E+01   -1.550E+01   -1.503E+01   -1.456E+01   -1.409E+01   -1.362E+01   -1.316E+01   -1.269E+01   -1.223E+01
    -1.177E+01   -1.131E+01   -1.086E+01   -1.040E+01   -9.951E+00   -9.503E+00   -9.058E+00   -8.616E+00   -8.178E+00   -7.744E+00
    -7.314E+00   -6.889E+00   -6.468E+00   -6.051E+00   -5.640E+00   -5.234E+00   -4.833E+00   -4.438E+00   -4.049E+00   -3.666E+00
    -3.289E+00   -2.919E+00   -2.555E+00   -2.199E+00   -1.850E+00   -1.508E+00   -1.174E+00   -8.472E-01   -5.290E-01   -2.191E-01
     8.228E-02    3.749E-01    6.585E-01    9.329E-01    1.198E+00    1.453E+00    1.699E+00    1.934E+00    2.159E+00    2.373E+00
     2.577E+00    2.770E+00    2.951E+00    3.121E+00    3.280E+00    3.426E+00    3.561E+00    3.683E+00    3.792E+00    3.889E+00
     3.973E+00    4.043E+00    4.101E+00    4.144E+00    4.174E+00    4.189E+00    4.190E+00    4.177E+00    4.149E+00    4.105E+00
     4.047E+00    3.974E+00    3.886E+00    3.785E+00    3.669E+00    3.541E+00    3.400E+00    3.247E+00    3.082E+00    2.906E+00
     2.718E+00    2.521E+00    2.313E+00    2.096E+00    1.870E+00    1.635E+00    1.392E+00    1.141E+00    8.824E-01    6.173E-01
     3.457E-01    6.813E-02   -2.150E-01   -5.032E-01   -7.961E-01   -1.093E+00   -1.394E+00   -1.698E+00   -2.005E+00   -2.315E+00
    -2.626E+00   -2.939E+00   -3.254E+00   -3.568E+00   -3.883E+00   -4.198E+00   -4.512E+00   -4.825E+00   -5.137E+00   -5.446E+00
    -5.753E+00   -6.057E+00   -6.358E+00   -6.655E+00   -6.948E+00   -7.236E+00   -7.519E+00   -7.796E+00   -8.067E+00   -8.332E+00
    -8.590E+00   -8.841E+00   -9.084E+00   -9.319E+00   -9.544E+00   -9.761E+00   -9.969E+00   -1.017E+01   -1.035E+01   -1.053E+01
    -1.069E+01   -1.085E+01   -1.099E+01   -1.111E+01   -1.123E+01   -1.133E+01   -1.142E+01   -1.149E+01   -1.155E+01   -1.159E+01
    -1.162E+01   -1.163E+01   -1.162E+01   -1.160E+01   -1.156E+01   -1.150E+01   -1.142E+01   -1.132E+01   -1.121E+01   -1.107E+01
 Mac      Conc. = 2.49E-04
  -1.13895E+01 -1.70161E+01 -2.25411E+01 -2.79897E+01 -3.33081E+01 -3.85071E+01 -4.35583E+01 -4.83993E+01 -5.30631E+01 -5.73366E+01
  -6.14301E+01 -6.49993E+01 -6.83876E+01 -7.11992E+01 -7.38278E+01 -7.59068E+01 -7.78470E+01 -7.92824E+01 -8.05865E+01 -8.13828E+01
  -8.20845E+01 -8.24095E+01 -8.26764E+01 -8.27446E+01 -8.27514E+01 -8.26602E+01 -8.24829E+01 -8.22407E+01 -8.19001E+01 -8.14933E+01
  -8.10067E+01 -8.04361E+01 -7.98418E+01 -7.91735E+01 -7.85348E+01 -7.78416E+01 -7.72218E+01 -7.64969E+01 -7.59015E+01 -7.52339E+01
  -7.47297E+01 -7.41439E+01 -7.37430E+01 -7.32367E+01 -7.28829E+01 -7.24442E+01 -7.21076E+01 -7.16709E+01 -7.12646E+01 -7.08013E+01
  -7.03481E+01 -6.98328E+01 -6.92896E+01 -6.87129E+01 -6.80604E+01 -6.73980E+01 -6.66096E+01 -6.57814E+01 -6.48706E+01 -6.38895E+01
  -6.28595E+01 -6.17219E+01 -6.05841E+01 -5.92991E+01 -5.80803E+01 -5.66655E+01 -5.54382E+01 -5.39266E+01 -5.27239E+01 -5.11820E+01
  -4.99956E+01 -4.84655E+01 -4.72996E+01 -4.58106E+01 -4.46599E+01 -4.32056E+01 -4.20456E+01 -4.05889E+01 -3.94171E+01 -3.79594E+01
  -3.67323E+01 -3.52299E+01 -3.39601E+01 -3.23879E+01 -3.10889E+01 -2.93973E+01 -2.81176E+01 -2.64723E+01 -2.54639E+01 -2.40980E+01
  -2.35113E+01 -2.26175E+01 -2.25847E+01 -2.22946E+01 -2.29369E+01 -2.33868E+01 -2.47824E+01 -2.60255E+01 -2.80641E+01 -2.99608E+01
  -3.24095E+01 -3.47160E+01 -3.72856E+01 -3.97413E+01 -4.22228E+01 -4.45933E+01 -4.67576E+01 -4.85827E+01 -4.98016E+01 -5.06377E+01
