 LCModel (Version 6.3-1N) Copyright: S.W. Provencher.          Ref.: Magn. Reson. Med. 30:672-679 (1993).                
 Slice_N1@17_9  28-Feb-2025 11:37:56
 27 lines in following concentration table = NCONC+1
    Conc.  %SD /Cr+PCr  Metabolite                                         
 2.84E-04   5% 2.8E-04 Mac                                                 
    6.173  46%   6.008 Cr                                                  
    2.046 137%   1.992 PCr                                                 
    4.732  23%   4.605 Ins                                                 
   11.000  11%  10.707 NAA                                                 
    5.069  25%   4.934 Tau                                                 
    1.860  16%   1.811 PCho                                                
    0.000 999%   0.000 GPC                                                 
   10.218  12%   9.946 Glu                                                 
    3.234  29%   3.148 Gln                                                 
    2.103  42%   2.047 Ala                                                 
    0.669 228%   0.651 Asc                                                 
    2.929  42%   2.851 Asp                                                 
    0.348 193%   0.339 GABA                                                
    0.949  87%   0.923 Glc                                                 
    1.397  42%   1.360 GSH                                                 
    0.000 999%   0.000 Lac                                                 
    4.366  23%   4.249 NAAG                                                
    0.000 999%   0.000 PE                                                  
    1.860  16%   1.811 GPC+PCho                                            
   15.366   7%  14.956 NAA+NAAG                                            
   13.452  11%  13.094 Glu+Gln                                             
    8.219  11%   8.000 Cr+PCr                                              
   15.366   7%  14.956 NAA+NAAG                                            
    8.219  11%   8.000 Cr+PCr                                              
   13.452  11%  13.094 Glu+Gln                                             
   6 lines in following misc. output table
  FWHM = 0.049 ppm    S/N =   3                                            
  Data shift =-0.016 ppm                                                   
  Ph:-169 deg       0.0 deg/ppm                                            
  alphaB,S = 1.6E-01,   5.1E+01                                            
   19 spline knots.   Ns = 8(1)                                            
  ( 5) 2 infls.   ( 3) 1 extrs.                                            
  480 points on ppm-axis = NY
      4.100000     4.091866     4.083733     4.075600     4.067466     4.059333     4.051199     4.043066     4.034933     4.026799
      4.018666     4.010532     4.002399     3.994265     3.986132     3.977998     3.969864     3.961731     3.953597     3.945463
      3.937330     3.929196     3.921062     3.912929     3.904795     3.896662     3.888528     3.880394     3.872261     3.864127
      3.855993     3.847860     3.839726     3.831592     3.823459     3.815325     3.807191     3.799058     3.790924     3.782790
      3.774657     3.766523     3.758389     3.750256     3.742122     3.733989     3.725855     3.717721     3.709588     3.701454
      3.693320     3.685187     3.677053     3.668919     3.660786     3.652652     3.644518     3.636385     3.628251     3.620117
      3.611984     3.603850     3.595716     3.587583     3.579449     3.571316     3.563182     3.555048     3.546915     3.538781
      3.530647     3.522514     3.514380     3.506246     3.498113     3.489979     3.481845     3.473712     3.465578     3.457444
      3.449311     3.441177     3.433043     3.424910     3.416776     3.408643     3.400509     3.392375     3.384242     3.376108
      3.367974     3.359841     3.351707     3.343573     3.335440     3.327306     3.319172     3.311039     3.302905     3.294771
      3.286638     3.278504     3.270370     3.262237     3.254103     3.245970     3.237836     3.229702     3.221569     3.213435
      3.205301     3.197168     3.189034     3.180900     3.172767     3.164633     3.156499     3.148366     3.140232     3.132098
      3.123965     3.115831     3.107697     3.099564     3.091430     3.083297     3.075163     3.067029     3.058896     3.050762
      3.042628     3.034495     3.026361     3.018227     3.010094     3.001960     2.993826     2.985693     2.977559     2.969425
      2.961292     2.953158     2.945024     2.936891     2.928757     2.920624     2.912490     2.904356     2.896223     2.888089
      2.879955     2.871822     2.863688     2.855554     2.847421     2.839287     2.831153     2.823020     2.814886     2.806752
      2.798619     2.790485     2.782351     2.774218     2.766084     2.757951     2.749817     2.741683     2.733550     2.725416
      2.717282     2.709149     2.701015     2.692881     2.684748     2.676614     2.668480     2.660347     2.652213     2.644079
      2.635946     2.627812     2.619678     2.611545     2.603411     2.595278     2.587144     2.579010     2.570877     2.562743
      2.554609     2.546476     2.538342     2.530208     2.522075     2.513941     2.505807     2.497674     2.489540     2.481406
      2.473273     2.465139     2.457006     2.448872     2.440738     2.432605     2.424471     2.416337     2.408204     2.400070
      2.391936     2.383803     2.375669     2.367535     2.359402     2.351268     2.343134     2.335001     2.326867     2.318733
      2.310600     2.302466     2.294333     2.286199     2.278065     2.269932     2.261798     2.253664     2.245531     2.237397
      2.229263     2.221130     2.212996     2.204862     2.196729     2.188595     2.180461     2.172328     2.164194     2.156060
      2.147927     2.139793     2.131660     2.123526     2.115392     2.107259     2.099125     2.090991     2.082858     2.074724
      2.066590     2.058457     2.050323     2.042189     2.034056     2.025922     2.017788     2.009655     2.001521     1.993387
      1.985254     1.977120     1.968987     1.960853     1.952719     1.944586     1.936452     1.928318     1.920185     1.912051
      1.903917     1.895784     1.887650     1.879516     1.871383     1.863249     1.855115     1.846982     1.838848     1.830714
      1.822581     1.814447     1.806314     1.798180     1.790046     1.781913     1.773779     1.765645     1.757512     1.749378
      1.741244     1.733111     1.724977     1.716843     1.708710     1.700576     1.692442     1.684309     1.676175     1.668041
      1.659908     1.651774     1.643641     1.635507     1.627373     1.619240     1.611106     1.602972     1.594839     1.586705
      1.578571     1.570438     1.562304     1.554170     1.546037     1.537903     1.529769     1.521636     1.513502     1.505368
      1.497235     1.489101     1.480968     1.472834     1.464700     1.456567     1.448433     1.440299     1.432166     1.424032
      1.415898     1.407765     1.399631     1.391497     1.383364     1.375230     1.367096     1.358963     1.350829     1.342695
      1.334562     1.326428     1.318295     1.310161     1.302027     1.293894     1.285760     1.277626     1.269493     1.261359
      1.253225     1.245092     1.236958     1.228824     1.220691     1.212557     1.204423     1.196290     1.188156     1.180022
      1.171889     1.163755     1.155622     1.147488     1.139354     1.131221     1.123087     1.114953     1.106820     1.098686
      1.090552     1.082419     1.074285     1.066151     1.058018     1.049884     1.041750     1.033617     1.025483     1.017349
      1.009216     1.001082     0.992949     0.984815     0.976681     0.968548     0.960414     0.952280     0.944147     0.936013
      0.927879     0.919746     0.911612     0.903478     0.895345     0.887211     0.879077     0.870944     0.862810     0.854676
      0.846543     0.838409     0.830276     0.822142     0.814008     0.805875     0.797741     0.789607     0.781474     0.773340
      0.765206     0.757073     0.748939     0.740805     0.732672     0.724538     0.716404     0.708271     0.700137     0.692003
      0.683870     0.675736     0.667603     0.659469     0.651335     0.643202     0.635068     0.626934     0.618801     0.610667
      0.602533     0.594400     0.586266     0.578132     0.569999     0.561865     0.553731     0.545598     0.537464     0.529330
      0.521197     0.513063     0.504930     0.496796     0.488662     0.480529     0.472395     0.464261     0.456128     0.447994
      0.439861     0.431727     0.423593     0.415460     0.407326     0.399192     0.391059     0.382925     0.374792     0.366658
      0.358524     0.350391     0.342257     0.334124     0.325990     0.317856     0.309723     0.301589     0.293455     0.285322
      0.277188     0.269055     0.260921     0.252787     0.244654     0.236520     0.228386     0.220253     0.212119     0.203986
 NY phased data points follow
  -6.57947E+01 -4.46539E+01 -5.98285E+01 -6.42000E+01 -7.37756E+01 -8.18416E+01 -7.75559E+01 -6.98663E+01 -8.00222E+01 -9.41782E+01
  -8.21561E+01 -7.99850E+01 -8.90679E+01 -1.01441E+02 -9.98816E+01 -1.07811E+02 -1.11691E+02 -1.13886E+02 -1.25553E+02 -1.31419E+02
  -1.23930E+02 -1.11258E+02 -1.11748E+02 -1.02465E+02 -1.02700E+02 -8.56409E+01 -7.13694E+01 -6.71031E+01 -6.61380E+01 -6.91180E+01
  -5.13049E+01 -5.70267E+01 -5.43718E+01 -5.29239E+01 -6.13313E+01 -6.61945E+01 -5.69199E+01 -5.76270E+01 -7.70124E+01 -7.84087E+01
  -1.04186E+02 -1.01685E+02 -8.86009E+01 -9.07007E+01 -7.06909E+01 -6.46364E+01 -7.03863E+01 -4.87459E+01 -1.70652E+01 -2.04052E+01
  -2.55466E+01 -3.65692E+01 -3.43548E+01 -2.49107E+01 -3.30599E+01 -2.07371E+01 -3.14645E+01 -5.33334E+01 -4.32793E+01 -4.66904E+01
  -5.27071E+01 -3.61205E+01 -3.74821E+01 -3.81911E+01 -3.21930E+01 -2.87567E+01 -3.15083E+01 -4.28206E+01 -4.75655E+01 -6.24879E+01
  -5.45306E+01 -4.93042E+01 -6.17156E+01 -5.52289E+01 -3.77495E+01 -2.20998E+01 -2.54470E+01 -1.82913E+01 -1.70138E+01 -3.63848E+01
  -3.40522E+01 -1.76412E+01 -1.08410E+01 -2.24873E+01 -3.98503E+01 -3.86168E+01 -3.90971E+01 -3.74741E+01 -2.87392E+01 -3.73035E+01
  -2.19284E+01 -2.95304E+00 -8.64699E+00  5.89424E+00  1.70958E+01  1.79975E+01  3.18455E+01  2.00481E+01  6.19532E+00  1.32734E+01
   5.10673E+00 -5.04127E+00 -1.33750E+01 -2.19531E+01 -3.87334E+01 -4.61163E+01 -5.20038E+01 -7.57695E+01 -8.83176E+01 -9.91053E+01
  -1.14733E+02 -1.31255E+02 -1.26276E+02 -1.10394E+02 -9.47139E+01 -1.08466E+02 -1.11018E+02 -7.26848E+01 -8.11930E+01 -6.66396E+01
  -4.17536E+01 -4.12936E+01 -3.41237E+01 -2.42927E+01 -1.20558E+01 -1.91384E+01  1.24506E+01  1.49746E+01 -4.81999E+00  1.44109E+01
   1.33465E+01  5.07791E-01 -1.91193E+01 -3.62634E+01 -7.85489E+01 -9.61835E+01 -8.65140E+01 -1.22719E+02 -1.34574E+02 -1.30918E+02
  -1.23646E+02 -1.13609E+02 -1.20735E+02 -1.09675E+02 -1.09646E+02 -1.05258E+02 -1.04028E+02 -1.11948E+02 -9.06797E+01 -8.84633E+01
  -9.53650E+01 -8.90671E+01 -8.60237E+01 -8.62292E+01 -8.61713E+01 -8.91391E+01 -9.46162E+01 -8.74548E+01 -6.69856E+01 -6.16737E+01
  -8.12242E+01 -7.13356E+01 -7.23405E+01 -8.31165E+01 -6.08237E+01 -5.49523E+01 -5.96400E+01 -6.19975E+01 -5.60813E+01 -5.64014E+01
  -4.90226E+01 -4.28063E+01 -4.07022E+01 -2.43925E+01 -3.37184E+01 -3.67928E+01 -3.42739E+01 -3.26352E+01 -3.24395E+01 -4.64181E+01
  -5.73868E+01 -8.07257E+01 -9.49620E+01 -8.61374E+01 -9.76079E+01 -1.04322E+02 -8.53434E+01 -8.98138E+01 -8.26607E+01 -7.16852E+01
  -6.73285E+01 -6.68351E+01 -8.49177E+01 -6.89661E+01 -5.72088E+01 -6.59777E+01 -6.17894E+01 -3.95603E+01 -4.44526E+01 -6.62380E+01
  -5.39605E+01 -5.58795E+01 -7.19034E+01 -7.32143E+01 -6.37843E+01 -7.43587E+01 -7.42749E+01 -6.56142E+01 -7.29887E+01 -7.36211E+01
  -9.31987E+01 -8.38704E+01 -5.89524E+01 -6.69526E+01 -6.66606E+01 -5.46276E+01 -5.10784E+01 -3.55234E+01 -1.86487E+01 -2.92552E+01
  -3.59829E+01 -4.52994E+01 -5.99851E+01 -5.62520E+01 -4.98595E+01 -5.30656E+01 -4.71423E+01 -5.04853E+01 -5.80203E+01 -6.18217E+01
  -7.49847E+01 -6.05641E+01 -7.07607E+01 -8.54653E+01 -8.32952E+01 -1.04763E+02 -1.11205E+02 -1.24911E+02 -1.20462E+02 -1.03070E+02
  -1.13078E+02 -1.15120E+02 -1.07970E+02 -9.78158E+01 -9.35594E+01 -9.74290E+01 -9.80673E+01 -1.07077E+02 -1.16456E+02 -1.06557E+02
  -1.06853E+02 -1.24926E+02 -1.36194E+02 -1.29187E+02 -1.13469E+02 -9.98542E+01 -7.64669E+01 -4.40274E+01  1.52802E+00  4.19372E+01
   6.33956E+01  7.87720E+01  8.38671E+01  8.12041E+01  6.80881E+01  5.90508E+01  6.17452E+01  4.45252E+01  3.86761E+01  4.77551E+01
   2.80668E+01  3.50818E+01  5.36196E+01  3.92814E+01  2.81377E+01  3.00004E+01  3.92766E+01  2.24290E+01  1.72464E+01  3.57395E+01
   2.57029E+01  2.76282E+01  3.18134E+01  2.54503E+01  2.48660E+01  1.22107E+01  9.64071E+00  1.25083E+01  7.98660E+00  1.37726E+00
  -5.98185E+00 -9.36631E+00 -8.25291E+00 -5.07893E+00 -1.06860E+01 -1.05470E+01 -1.21975E+01 -2.06806E+01 -3.24426E+01 -3.55182E+01
  -2.79898E+01 -3.78946E+01 -3.16496E+01 -3.24424E+01 -3.69686E+01 -2.76124E+01 -2.32555E+01 -1.90025E+01 -4.38779E+01 -3.18903E+01
  -1.71324E+01 -4.12235E+01 -3.06449E+01 -1.60540E+01 -6.47444E+00  7.44073E-01 -5.62565E+00 -9.24217E+00 -1.73946E+01 -1.02601E+01
   2.34732E+01  8.83274E+00 -9.17631E+00 -1.47327E+01 -5.38574E+01 -5.14282E+01 -6.55883E+01 -8.08124E+01 -6.96289E+01 -7.43638E+01
  -7.04388E+01 -7.13654E+01 -5.27661E+01 -5.41897E+01 -4.62045E+01 -1.96766E+01 -1.49035E+01 -4.98004E+00 -1.67691E+01 -3.93393E+00
   2.01082E+01  1.96034E+01  1.87736E+01  6.98283E+00  3.18298E+00  1.25156E+01 -3.35785E+00 -7.45501E+00  1.38812E+01  2.41964E+00
   6.01687E+00  6.50124E+00 -1.10637E+01 -1.30017E+01 -9.76183E+00 -8.10847E+00 -2.61302E+01 -2.18969E+01 -2.22245E+01 -2.74080E+01
  -2.79129E+01 -2.85766E+01 -1.19885E+01 -1.06776E+01 -3.09124E+00 -5.55714E+00 -1.55177E+00  1.20532E+01  1.81978E+01  2.20302E+00
  -3.68790E+00  3.04749E+01  1.69975E+01  1.77749E+01  3.72844E+01  3.85535E+01  2.36781E+01  3.11615E+01  5.63769E+01  3.18654E+01
   5.51784E+01  6.38173E+01  7.59741E+01  8.88979E+01  7.59239E+01  1.19289E+02  1.02392E+02  9.80902E+01  1.09984E+02  9.42725E+01
   1.04858E+02  9.97090E+01  8.83018E+01  8.03741E+01  7.83127E+01  5.94883E+01  6.08053E+01  5.08117E+01  2.94156E+01  3.42881E+01
   1.63531E+01  6.17192E+00 -5.20197E+00 -5.31356E+00  2.48642E-02 -1.23863E+01 -2.24733E+01 -2.27766E+01 -2.17281E+01 -3.45350E+01
  -3.46368E+01 -3.26031E+01 -3.02673E+01 -2.84246E+01 -3.57851E+01 -4.30491E+01 -3.35168E+01 -3.14464E+01 -4.14404E+01 -4.57088E+01
  -5.66938E+01 -3.13178E+01 -3.83166E+01 -4.91938E+01 -1.88126E+01 -2.34634E+01 -2.82576E+01 -3.42009E+01 -3.40811E+01 -4.19969E+01
  -3.04103E+01 -2.86098E+01 -5.22872E+01 -3.29703E+01 -3.62859E+01 -2.90884E+01 -3.57044E+01 -3.64081E+01 -1.72029E+01 -2.99224E+01
  -2.69682E+01 -4.53841E+01 -2.81617E+01 -1.91244E+01 -3.55214E+01 -2.95250E+01 -3.22770E+01 -2.31488E+01 -4.07830E+01 -2.82953E+01
  -2.60098E+01 -4.00972E+01 -2.89668E+01 -3.40340E+01 -2.00916E+01 -3.01092E+01 -2.50412E+01 -2.10122E+01 -3.56060E+01 -1.87591E+01
  -1.82957E+01 -2.99531E+01 -3.77098E+01 -2.23719E+01 -1.91742E+01 -2.37079E+01 -1.74852E+01 -2.35330E+01 -2.36553E+01 -3.16469E+01
  -3.29494E+01 -3.45666E+01 -3.72528E+01 -2.36398E+01 -1.65773E+01 -1.66864E+01 -1.20908E+01 -1.67781E+01 -1.80914E+01 -1.42660E+01
 NY points of the fit to the data follow
  -8.16014E+01 -8.28405E+01 -8.44712E+01 -8.60718E+01 -8.70451E+01 -8.69726E+01 -8.59269E+01 -8.44931E+01 -8.34527E+01 -8.33713E+01
  -8.43040E+01 -8.60715E+01 -8.85266E+01 -9.16031E+01 -9.51338E+01 -9.90618E+01 -1.03588E+02 -1.08645E+02 -1.13559E+02 -1.17286E+02
  -1.19150E+02 -1.18366E+02 -1.13757E+02 -1.04720E+02 -9.20648E+01 -7.78047E+01 -6.43661E+01 -5.34963E+01 -4.56813E+01 -4.08067E+01
  -3.87336E+01 -3.90807E+01 -4.07014E+01 -4.29336E+01 -4.63168E+01 -5.11196E+01 -5.72258E+01 -6.42585E+01 -7.18756E+01 -7.93883E+01
  -8.54739E+01 -8.85428E+01 -8.74563E+01 -8.20259E+01 -7.31520E+01 -6.23679E+01 -5.13119E+01 -4.15663E+01 -3.43534E+01 -3.02525E+01
  -2.89735E+01 -2.98249E+01 -3.23178E+01 -3.59810E+01 -4.03569E+01 -4.47093E+01 -4.84249E+01 -5.11753E+01 -5.26094E+01 -5.24852E+01
  -5.08674E+01 -4.78699E+01 -4.39063E+01 -3.98610E+01 -3.64312E+01 -3.39377E+01 -3.27914E+01 -3.36484E+01 -3.63425E+01 -3.96271E+01
  -4.24210E+01 -4.37648E+01 -4.29657E+01 -4.01655E+01 -3.58622E+01 -3.06357E+01 -2.55075E+01 -2.17059E+01 -2.00450E+01 -2.05061E+01
  -2.29561E+01 -2.72607E+01 -3.26204E+01 -3.78714E+01 -4.19155E+01 -4.38354E+01 -4.31480E+01 -3.99984E+01 -3.50385E+01 -2.91587E+01
  -2.31725E+01 -1.76171E+01 -1.28686E+01 -8.94414E+00 -5.80843E+00 -3.14745E+00 -8.81223E-01  8.31215E-01  1.70101E+00  1.46453E+00
  -3.20178E-01 -3.57405E+00 -8.32841E+00 -1.53204E+01 -2.53613E+01 -3.78445E+01 -5.14616E+01 -6.58983E+01 -8.13005E+01 -9.67856E+01
  -1.10114E+02 -1.18566E+02 -1.20544E+02 -1.16950E+02 -1.09910E+02 -1.00496E+02 -8.97148E+01 -7.91728E+01 -7.03289E+01 -6.26051E+01
  -5.51268E+01 -4.75233E+01 -3.96668E+01 -3.15567E+01 -2.25600E+01 -1.20556E+01 -8.92851E-01  8.49810E+00  1.43756E+01  1.63358E+01
   1.30899E+01  2.33090E+00 -1.68025E+01 -4.19392E+01 -6.79094E+01 -8.95299E+01 -1.04735E+02 -1.14114E+02 -1.18308E+02 -1.17862E+02
  -1.14890E+02 -1.12383E+02 -1.10879E+02 -1.09653E+02 -1.08419E+02 -1.06987E+02 -1.05262E+02 -1.03230E+02 -1.00930E+02 -9.84612E+01
  -9.59159E+01 -9.33675E+01 -9.08685E+01 -8.84646E+01 -8.61350E+01 -8.38356E+01 -8.16338E+01 -7.96924E+01 -7.81011E+01 -7.67161E+01
  -7.53474E+01 -7.40140E+01 -7.29545E+01 -7.23143E+01 -7.18529E+01 -7.10390E+01 -6.94753E+01 -6.72323E+01 -6.45265E+01 -6.11940E+01
  -5.68638E+01 -5.18104E+01 -4.71543E+01 -4.40078E+01 -4.26774E+01 -4.26745E+01 -4.36717E+01 -4.59898E+01 -5.00475E+01 -5.55682E+01
  -6.16954E+01 -6.77476E+01 -7.34335E+01 -7.84153E+01 -8.21143E+01 -8.42291E+01 -8.50348E+01 -8.49495E+01 -8.39936E+01 -8.20096E+01
  -7.92809E+01 -7.60333E+01 -7.21070E+01 -6.75624E+01 -6.28437E+01 -5.85157E+01 -5.49653E+01 -5.22136E+01 -5.02287E+01 -4.92029E+01
  -4.93388E+01 -5.04729E+01 -5.20914E+01 -5.41336E+01 -5.70315E+01 -6.07955E+01 -6.51217E+01 -6.97882E+01 -7.45179E+01 -7.88052E+01
  -8.16428E+01 -8.20304E+01 -7.95163E+01 -7.37289E+01 -6.48866E+01 -5.40723E+01 -4.28121E+01 -3.27497E+01 -2.53216E+01 -2.13023E+01
  -2.06018E+01 -2.25176E+01 -2.60614E+01 -3.04760E+01 -3.52742E+01 -4.06391E+01 -4.69311E+01 -5.41651E+01 -6.26808E+01 -7.22976E+01
  -8.24857E+01 -9.25173E+01 -1.01665E+02 -1.09199E+02 -1.14621E+02 -1.17782E+02 -1.18793E+02 -1.17889E+02 -1.15646E+02 -1.12693E+02
  -1.09482E+02 -1.06336E+02 -1.03453E+02 -1.00978E+02 -9.90420E+01 -9.82592E+01 -9.94837E+01 -1.02572E+02 -1.06659E+02 -1.12062E+02
  -1.19368E+02 -1.26799E+02 -1.29948E+02 -1.26328E+02 -1.16470E+02 -1.00449E+02 -7.72868E+01 -4.69001E+01 -1.20447E+01  2.08431E+01
   4.52986E+01  6.00385E+01  6.73233E+01  6.82600E+01  6.30734E+01  5.48276E+01  4.76376E+01  4.17142E+01  3.67150E+01  3.25692E+01
   2.92719E+01  2.68207E+01  2.51553E+01  2.41393E+01  2.35844E+01  2.32729E+01  2.30197E+01  2.26779E+01  2.21256E+01  2.12741E+01
   2.00785E+01  1.85696E+01  1.67796E+01  1.47358E+01  1.24768E+01  1.00162E+01  7.37076E+00  4.52312E+00  1.46146E+00 -1.78074E+00
  -5.10864E+00 -8.36590E+00 -1.13683E+01 -1.39090E+01 -1.57742E+01 -1.67989E+01 -1.69213E+01 -1.62000E+01 -1.47714E+01 -1.28001E+01
  -1.04623E+01 -7.91768E+00 -5.27771E+00 -2.62238E+00  2.25360E-03  2.58837E+00  5.15028E+00  7.70141E+00  1.02336E+01  1.27105E+01
   1.50779E+01  1.72953E+01  1.93137E+01  2.10808E+01  2.25749E+01  2.37604E+01  2.44499E+01  2.43966E+01  2.33134E+01  2.09639E+01
   1.70517E+01  1.14416E+01  4.21828E+00 -4.28954E+00 -1.34180E+01 -2.23539E+01 -3.04947E+01 -3.75086E+01 -4.32545E+01 -4.77863E+01
  -5.12155E+01 -5.35719E+01 -5.47561E+01 -5.47158E+01 -5.35585E+01 -5.12918E+01 -4.82141E+01 -4.46726E+01 -4.09456E+01 -3.71943E+01
  -3.34823E+01 -2.98087E+01 -2.61661E+01 -2.26059E+01 -1.92795E+01 -1.63846E+01 -1.40999E+01 -1.25788E+01 -1.19070E+01 -1.20990E+01
  -1.31040E+01 -1.48101E+01 -1.70158E+01 -1.94425E+01 -2.17733E+01 -2.36630E+01 -2.48077E+01 -2.50265E+01 -2.42696E+01 -2.25860E+01
  -2.01124E+01 -1.70521E+01 -1.36140E+01 -9.97170E+00 -6.25517E+00 -2.56682E+00  1.05018E+00  4.58923E+00  8.07925E+00  1.15759E+01
   1.51264E+01  1.87827E+01  2.26295E+01  2.67569E+01  3.12305E+01  3.61007E+01  4.14227E+01  4.72317E+01  5.35149E+01  6.02159E+01
   6.72010E+01  7.42239E+01  8.09289E+01  8.68365E+01  9.13901E+01  9.40630E+01  9.44734E+01  9.24331E+01  8.80557E+01  8.17804E+01
   7.42367E+01  6.60612E+01  5.77564E+01  4.96159E+01  4.17061E+01  3.39591E+01  2.62513E+01  1.85161E+01  1.08465E+01  3.47306E+00
  -3.33355E+00 -9.33942E+00 -1.43845E+01 -1.84388E+01 -2.15823E+01 -2.39492E+01 -2.56974E+01 -2.70082E+01 -2.80242E+01 -2.88044E+01
  -2.93795E+01 -2.97817E+01 -3.00510E+01 -3.02025E+01 -3.02474E+01 -3.02176E+01 -3.01543E+01 -3.00769E+01 -2.99794E+01 -2.98511E+01
  -2.97031E+01 -2.95610E+01 -2.94351E+01 -2.93022E+01 -2.91541E+01 -2.90078E+01 -2.88730E+01 -2.87275E+01 -2.85546E+01 -2.83831E+01
  -2.82416E+01 -2.81347E+01 -2.80400E+01 -2.79394E+01 -2.78228E+01 -2.76736E+01 -2.74802E+01 -2.72560E+01 -2.70354E+01 -2.68379E+01
  -2.66773E+01 -2.65617E+01 -2.64899E+01 -2.64509E+01 -2.64234E+01 -2.63867E+01 -2.63189E+01 -2.62207E+01 -2.61018E+01 -2.59727E+01
  -2.58329E+01 -2.56851E+01 -2.55268E+01 -2.53472E+01 -2.51472E+01 -2.49409E+01 -2.47436E+01 -2.45625E+01 -2.44054E+01 -2.42827E+01
  -2.41925E+01 -2.41167E+01 -2.40383E+01 -2.39345E+01 -2.37916E+01 -2.36082E+01 -2.33906E+01 -2.31546E+01 -2.29328E+01 -2.27636E+01
  -2.26604E+01 -2.26027E+01 -2.25637E+01 -2.25276E+01 -2.24791E+01 -2.24012E+01 -2.22889E+01 -2.21279E+01 -2.19098E+01 -2.16152E+01
 NY background values follow
    -6.165E+01   -6.154E+01   -6.144E+01   -6.133E+01   -6.123E+01   -6.112E+01   -6.101E+01   -6.090E+01   -6.079E+01   -6.068E+01
    -6.057E+01   -6.046E+01   -6.034E+01   -6.023E+01   -6.011E+01   -5.999E+01   -5.987E+01   -5.974E+01   -5.962E+01   -5.949E+01
    -5.936E+01   -5.923E+01   -5.909E+01   -5.895E+01   -5.881E+01   -5.867E+01   -5.852E+01   -5.837E+01   -5.821E+01   -5.806E+01
    -5.789E+01   -5.773E+01   -5.756E+01   -5.739E+01   -5.721E+01   -5.703E+01   -5.685E+01   -5.666E+01   -5.647E+01   -5.628E+01
    -5.608E+01   -5.589E+01   -5.569E+01   -5.548E+01   -5.528E+01   -5.507E+01   -5.486E+01   -5.465E+01   -5.444E+01   -5.423E+01
    -5.401E+01   -5.379E+01   -5.357E+01   -5.336E+01   -5.313E+01   -5.291E+01   -5.269E+01   -5.247E+01   -5.225E+01   -5.202E+01
    -5.180E+01   -5.157E+01   -5.135E+01   -5.113E+01   -5.090E+01   -5.068E+01   -5.046E+01   -5.023E+01   -5.001E+01   -4.979E+01
    -4.957E+01   -4.935E+01   -4.913E+01   -4.892E+01   -4.870E+01   -4.849E+01   -4.828E+01   -4.806E+01   -4.786E+01   -4.765E+01
    -4.744E+01   -4.724E+01   -4.704E+01   -4.684E+01   -4.665E+01   -4.645E+01   -4.626E+01   -4.607E+01   -4.589E+01   -4.571E+01
    -4.553E+01   -4.535E+01   -4.518E+01   -4.501E+01   -4.485E+01   -4.468E+01   -4.452E+01   -4.437E+01   -4.421E+01   -4.406E+01
    -4.392E+01   -4.377E+01   -4.363E+01   -4.349E+01   -4.335E+01   -4.322E+01   -4.309E+01   -4.296E+01   -4.284E+01   -4.272E+01
    -4.260E+01   -4.248E+01   -4.237E+01   -4.225E+01   -4.214E+01   -4.204E+01   -4.193E+01   -4.183E+01   -4.173E+01   -4.164E+01
    -4.154E+01   -4.145E+01   -4.136E+01   -4.127E+01   -4.119E+01   -4.111E+01   -4.103E+01   -4.095E+01   -4.088E+01   -4.080E+01
    -4.074E+01   -4.067E+01   -4.060E+01   -4.054E+01   -4.048E+01   -4.043E+01   -4.037E+01   -4.032E+01   -4.027E+01   -4.023E+01
    -4.018E+01   -4.014E+01   -4.010E+01   -4.007E+01   -4.004E+01   -4.001E+01   -3.998E+01   -3.996E+01   -3.994E+01   -3.992E+01
    -3.990E+01   -3.989E+01   -3.988E+01   -3.988E+01   -3.987E+01   -3.987E+01   -3.987E+01   -3.988E+01   -3.989E+01   -3.990E+01
    -3.991E+01   -3.992E+01   -3.994E+01   -3.996E+01   -3.999E+01   -4.001E+01   -4.004E+01   -4.008E+01   -4.011E+01   -4.015E+01
    -4.019E+01   -4.023E+01   -4.027E+01   -4.032E+01   -4.037E+01   -4.042E+01   -4.047E+01   -4.053E+01   -4.059E+01   -4.065E+01
    -4.072E+01   -4.078E+01   -4.085E+01   -4.092E+01   -4.099E+01   -4.107E+01   -4.114E+01   -4.122E+01   -4.130E+01   -4.138E+01
    -4.147E+01   -4.155E+01   -4.163E+01   -4.172E+01   -4.181E+01   -4.189E+01   -4.198E+01   -4.207E+01   -4.216E+01   -4.225E+01
    -4.234E+01   -4.244E+01   -4.253E+01   -4.262E+01   -4.271E+01   -4.280E+01   -4.289E+01   -4.298E+01   -4.307E+01   -4.316E+01
    -4.325E+01   -4.334E+01   -4.343E+01   -4.352E+01   -4.360E+01   -4.369E+01   -4.378E+01   -4.386E+01   -4.395E+01   -4.403E+01
    -4.412E+01   -4.420E+01   -4.429E+01   -4.437E+01   -4.446E+01   -4.454E+01   -4.463E+01   -4.472E+01   -4.480E+01   -4.489E+01
    -4.498E+01   -4.507E+01   -4.515E+01   -4.524E+01   -4.533E+01   -4.542E+01   -4.552E+01   -4.561E+01   -4.570E+01   -4.580E+01
    -4.589E+01   -4.599E+01   -4.609E+01   -4.619E+01   -4.629E+01   -4.639E+01   -4.649E+01   -4.659E+01   -4.670E+01   -4.680E+01
    -4.691E+01   -4.701E+01   -4.712E+01   -4.723E+01   -4.733E+01   -4.744E+01   -4.755E+01   -4.766E+01   -4.777E+01   -4.788E+01
    -4.799E+01   -4.810E+01   -4.821E+01   -4.832E+01   -4.843E+01   -4.854E+01   -4.866E+01   -4.877E+01   -4.888E+01   -4.899E+01
    -4.910E+01   -4.921E+01   -4.932E+01   -4.943E+01   -4.954E+01   -4.964E+01   -4.975E+01   -4.985E+01   -4.994E+01   -5.003E+01
    -5.012E+01   -5.020E+01   -5.027E+01   -5.034E+01   -5.040E+01   -5.046E+01   -5.051E+01   -5.054E+01   -5.057E+01   -5.060E+01
    -5.061E+01   -5.061E+01   -5.060E+01   -5.058E+01   -5.055E+01   -5.050E+01   -5.045E+01   -5.038E+01   -5.030E+01   -5.020E+01
    -5.009E+01   -4.996E+01   -4.982E+01   -4.967E+01   -4.950E+01   -4.932E+01   -4.912E+01   -4.892E+01   -4.870E+01   -4.846E+01
    -4.822E+01   -4.796E+01   -4.769E+01   -4.741E+01   -4.712E+01   -4.681E+01   -4.650E+01   -4.618E+01   -4.584E+01   -4.550E+01
    -4.514E+01   -4.478E+01   -4.440E+01   -4.402E+01   -4.363E+01   -4.323E+01   -4.282E+01   -4.241E+01   -4.198E+01   -4.155E+01
    -4.111E+01   -4.066E+01   -4.021E+01   -3.975E+01   -3.929E+01   -3.882E+01   -3.834E+01   -3.787E+01   -3.738E+01   -3.690E+01
    -3.641E+01   -3.592E+01   -3.543E+01   -3.493E+01   -3.444E+01   -3.394E+01   -3.345E+01   -3.295E+01   -3.246E+01   -3.196E+01
    -3.147E+01   -3.098E+01   -3.049E+01   -3.001E+01   -2.953E+01   -2.905E+01   -2.858E+01   -2.812E+01   -2.765E+01   -2.720E+01
    -2.675E+01   -2.631E+01   -2.587E+01   -2.544E+01   -2.502E+01   -2.460E+01   -2.419E+01   -2.379E+01   -2.340E+01   -2.301E+01
    -2.264E+01   -2.227E+01   -2.190E+01   -2.155E+01   -2.120E+01   -2.087E+01   -2.054E+01   -2.022E+01   -1.991E+01   -1.960E+01
    -1.931E+01   -1.903E+01   -1.875E+01   -1.849E+01   -1.823E+01   -1.799E+01   -1.775E+01   -1.753E+01   -1.731E+01   -1.711E+01
    -1.691E+01   -1.673E+01   -1.656E+01   -1.639E+01   -1.624E+01   -1.610E+01   -1.596E+01   -1.584E+01   -1.572E+01   -1.561E+01
    -1.552E+01   -1.543E+01   -1.534E+01   -1.527E+01   -1.520E+01   -1.515E+01   -1.509E+01   -1.505E+01   -1.502E+01   -1.499E+01
    -1.496E+01   -1.495E+01   -1.494E+01   -1.493E+01   -1.494E+01   -1.494E+01   -1.496E+01   -1.498E+01   -1.500E+01   -1.503E+01
    -1.506E+01   -1.510E+01   -1.515E+01   -1.519E+01   -1.524E+01   -1.530E+01   -1.536E+01   -1.542E+01   -1.549E+01   -1.556E+01
    -1.563E+01   -1.570E+01   -1.578E+01   -1.586E+01   -1.594E+01   -1.603E+01   -1.612E+01   -1.620E+01   -1.630E+01   -1.639E+01
    -1.648E+01   -1.657E+01   -1.667E+01   -1.676E+01   -1.686E+01   -1.696E+01   -1.705E+01   -1.715E+01   -1.725E+01   -1.734E+01
    -1.744E+01   -1.753E+01   -1.763E+01   -1.772E+01   -1.782E+01   -1.791E+01   -1.800E+01   -1.810E+01   -1.819E+01   -1.828E+01
    -1.837E+01   -1.847E+01   -1.856E+01   -1.865E+01   -1.874E+01   -1.883E+01   -1.892E+01   -1.901E+01   -1.910E+01   -1.919E+01
    -1.928E+01   -1.937E+01   -1.946E+01   -1.955E+01   -1.964E+01   -1.972E+01   -1.981E+01   -1.990E+01   -1.999E+01   -2.008E+01
 Mac      Conc. = 2.84E-04
  -8.18929E+01 -8.23176E+01 -8.27951E+01 -8.33840E+01 -8.41235E+01 -8.50094E+01 -8.60109E+01 -8.70615E+01 -8.80859E+01 -8.90397E+01
  -8.99017E+01 -9.06301E+01 -9.11808E+01 -9.15387E+01 -9.16655E+01 -9.14074E+01 -9.05430E+01 -8.89444E+01 -8.66519E+01 -8.38615E+01
  -8.08428E+01 -7.78274E+01 -7.50058E+01 -7.25166E+01 -7.03910E+01 -6.85113E+01 -6.67229E+01 -6.49845E+01 -6.33306E+01 -6.17949E+01
  -6.04268E+01 -5.92550E+01 -5.82538E+01 -5.73796E+01 -5.65708E+01 -5.57371E+01 -5.47648E+01 -5.36151E+01 -5.23600E+01 -5.11224E+01
  -4.99917E+01 -4.89749E+01 -4.80477E+01 -4.72155E+01 -4.65329E+01 -4.60526E+01 -4.58110E+01 -4.58439E+01 -4.61635E+01 -4.67240E+01
  -4.74089E+01 -4.80711E+01 -4.85795E+01 -4.88626E+01 -4.88710E+01 -4.85497E+01 -4.78968E+01 -4.69816E+01 -4.59164E+01 -4.48188E+01
  -4.37976E+01 -4.29579E+01 -4.23963E+01 -4.21641E+01 -4.21876E+01 -4.23016E+01 -4.23586E+01 -4.22512E+01 -4.18682E+01 -4.11209E+01
  -4.00124E+01 -3.86447E+01 -3.72024E+01 -3.58907E+01 -3.48431E+01 -3.41381E+01 -3.37970E+01 -3.37755E+01 -3.39404E+01 -3.41497E+01
  -3.42892E+01 -3.42831E+01 -3.40755E+01 -3.36496E+01 -3.30347E+01 -3.22881E+01 -3.14821E+01 -3.06733E+01 -2.99161E+01 -2.92774E+01
  -2.88202E+01 -2.85960E+01 -2.86656E+01 -2.90824E+01 -2.98669E+01 -3.10272E+01 -3.25308E+01 -3.43089E+01 -3.62746E+01 -3.84162E+01
  -4.08006E+01 -4.35295E+01 -4.66794E+01 -5.02694E+01 -5.42348E+01 -5.83977E+01 -6.24402E+01 -6.59316E+01 -6.84731E+01 -6.98321E+01
