 
 $NMID
 ID=''
 FMTDAT='(2E13.5)'
 TRAMP=   1.00000E+0
 VOLUME=   1.00000E+0
 $END
  -2.25349E+4  -6.78383E+3
  -8.42226E+3   1.49056E+4
   2.03378E+4   9.32853E+1
   6.29428E+1  -1.56290E+4
  -1.76329E+4   6.90705E+3
   8.37314E+3   7.59719E+3
   9.84629E+3  -1.28597E+4
  -9.64988E+3   3.21617E+2
   2.20986E+3   1.02678E+4
   9.73862E+3  -5.40971E+3
  -7.87243E+3  -1.02983E+3
  -5.37453E+3   8.94261E+3
   6.14666E+3  -2.64141E+3
  -1.12788E+3  -3.67617E+3
  -3.96644E+3   4.82115E+3
   1.33546E+3  -2.23688E+3
   3.12869E+2  -4.72762E+3
   2.58800E+2   3.12202E+3
   1.90696E+3   1.43873E+3
  -9.24633E+2  -1.43575E+3
  -1.27504E+3  -1.82006E+2
   1.22841E+3  -1.30481E+3
   1.82772E+3   8.18270E+1
   2.27986E+2   2.58962E+3
  -1.44724E+3  -1.06854E+3
   5.72016E+2  -3.08196E+3
   2.82770E+3   1.10080E+3
  -1.25822E+3   2.05968E+3
  -3.50989E+3  -1.31126E+3
   1.35910E+3  -1.81121E+3
   2.19603E+3   1.49163E+3
  -2.04180E+3   2.31712E+3
  -2.17322E+3  -3.92522E+2
  -2.82844E+2  -1.43600E+3
  -4.08660E+2  -5.67564E+2
   7.04411E+2  -1.33631E+3
   1.59153E+3  -3.06352E+2
   8.25512E+2   1.40600E+3
   2.28952E+1   6.41221E+2
  -6.36642E+2   3.25511E+1
  -5.91449E+2   5.69355E+2
  -5.63244E+2  -1.31808E+2
  -3.99704E+2  -1.37424E+3
   6.29025E+2  -9.40026E+2
   1.52465E+3  -8.42389E+2
   1.27338E+3   9.26874E+2
   2.26803E+2   2.43379E+3
  -1.29787E+3   1.32335E+3
  -2.23717E+3  -6.92162E+2
  -8.11038E+2  -4.47413E+2
   1.05415E+2  -4.59074E+2
  -4.06237E+2  -8.94886E+2
   2.05201E+2  -8.31728E+1
   1.28692E+3   3.21743E+2
   8.53463E+2   9.99243E+1
  -1.58077E+2   7.07090E+2
  -4.03063E+2   8.96020E+2
  -6.76141E+2  -5.97564E+2
  -2.16857E+2  -1.37165E+3
   1.32392E+3  -4.42573E+2
   1.05502E+3   2.63775E+2
   1.65401E+2   1.72941E+2
   7.28907E+2   1.09323E+3
   1.61620E+2   1.80797E+3
  -1.29697E+3   1.10436E+3
  -1.35289E+3  -1.46831E+2
  -3.89897E+2  -1.32188E+3
   3.03155E+2  -9.87464E+2
   6.90412E+2  -3.83435E+2
   8.14820E+2   3.16196E+2
   8.31661E+1   3.77633E+1
  -1.08368E+2  -4.88260E+2
   6.70879E+2  -5.19614E+2
   8.05243E+2   4.86849E+2
   1.38579E+1   6.23598E+2
  -3.36549E+2   1.81305E+2
   1.99322E+2  -3.93870E+2
   5.27707E+2   2.42598E+2
   4.38642E+2   7.37788E+2
  -1.06224E+2   5.71343E+2
  -5.67813E+2  -1.25453E+1
  -4.58690E+2  -4.19830E+2
  -5.45962E+1  -3.59427E+2
  -2.33530E+2   7.98116E+1
  -3.18161E+2   1.70146E+2
  -1.30898E+2  -4.99473E+2
   4.21611E+2  -7.51376E+2
   3.69643E+2   2.15902E+2
   1.32962E+2   2.41923E+2
   1.02814E+2   5.56358E+1
   5.55740E+2  -3.53174E+2
   6.85024E+2   2.93992E+2
  -1.51598E+2   7.47925E+2
  -8.81337E+2   8.41121E+2
  -3.95966E+2  -1.29733E+2
  -2.14164E+2  -5.88470E+2
   1.44721E+2  -2.68118E+2
   3.99086E+1   6.58065E+1
  -8.02245E+1  -3.03408E+2
   3.28855E+2  -1.94913E+2
   8.30676E+2  -2.55149E+2
   8.97588E+1   5.43384E+2
  -4.27745E+2   4.44235E+2
  -3.98935E+2   1.62270E+2
  -7.31553E+1  -3.01419E+2
   6.34542E+2  -1.96693E+2
   6.69024E+2   3.97842E+2
  -3.26573E+2   6.13880E+2
  -1.21389E+3  -6.15334E+0
  -2.77964E+2  -6.88642E+2
   9.43497E+2  -7.38242E+2
   8.76225E+2   1.93112E+2
  -1.46916E+1   6.07332E+2
  -6.86627E+1   2.86327E+2
   3.96990E+2   2.81853E+2
   4.90348E+2   6.95754E+2
  -4.43833E+2   7.61673E+2
  -8.40983E+2   1.28095E+0
  -4.02351E+2  -5.81382E+2
   4.94931E+1  -8.00187E+2
   7.03197E+2  -5.30719E+2
   6.61489E+2   8.21148E+1
   5.26305E+2   6.66435E+1
   3.95717E+2   5.16443E+1
   9.56106E+1   4.97925E+2
  -2.02106E+2   1.54171E+2
   8.06873E+1  -3.61683E+2
   2.89228E+2  -2.68551E+2
   9.38997E+1  -3.22319E+2
   4.47996E+2   7.29678E+1
   1.53779E+2   2.80505E+2
  -3.87576E+2   2.55470E+2
  -4.24405E+2  -2.48939E+2
  -7.49869E+1  -6.35075E+2
   7.21311E+1   1.96861E+1
   8.55825E+1  -2.35246E+2
  -5.59431E+1  -2.86935E+2
   5.65611E+2  -2.77406E+2
   4.88620E+2   2.71385E+2
  -5.45302E+1   3.56189E+2
  -3.56363E+2   1.97037E+2
  -4.14574E+2  -7.89071E+1
   1.01330E+2  -6.07223E+2
   4.25856E+2  -2.25394E+2
   1.55464E+2   2.32927E+2
  -1.96309E+2   4.41478E+2
  -2.38676E+2  -9.80483E+1
  -2.06541E+2   2.02508E+2
  -2.03980E+2   2.61058E+1
  -5.04435E+2  -3.81462E+1
  -1.51455E+2  -3.44447E+2
  -1.64829E+2  -4.27432E+2
   2.90073E+2  -6.10713E+2
   1.09630E+2   3.26374E+2
   6.16836E+0   1.36447E+2
  -2.65105E+2  -1.64840E+2
   1.27968E+2  -2.08110E+2
  -7.58267E+1   1.46205E+2
  -1.59234E+1   3.20870E+2
  -1.51522E+2   1.10875E+2
  -1.28446E+2   2.23900E+2
  -2.59088E+2   7.15628E+1
  -2.69464E+2   1.80267E+2
  -4.45870E+2  -3.36046E+1
  -1.55145E+2  -1.62103E+2
  -2.43855E+1  -2.15887E+2
   1.39224E+2   2.59877E+2
  -1.05963E+2   2.33277E+2
   1.47238E+2   1.82677E+2
  -1.40963E+2   3.83505E+1
   7.18071E+1  -1.53983E+2
   4.17358E+2   4.59220E+1
   3.32814E+1   2.10163E+2
  -1.41798E+2   2.13639E+2
   1.99454E+1  -1.67937E+2
   2.39462E+1   1.51165E+2
   2.85464E+2   5.52893E+2
  -2.81704E+2   2.86801E+2
  -1.65236E+2  -3.04369E+2
  -1.48907E+2  -4.91665E+2
   3.25656E+2   1.58801E+2
   1.89978E+2   3.08565E+2
  -2.19500E+2   2.63899E+2
  -4.88280E+1   5.52459E+1
  -3.02734E+2   1.22888E+2
  -1.78728E+2   1.58033E+2
  -1.83316E+1  -3.61812E+2
  -5.23707E+1  -3.63045E+2
   2.88127E+2  -2.43932E+2
   4.41633E+2   2.06438E+2
   3.49814E+2   1.79284E+2
  -1.23609E+2   1.73631E+2
  -3.71029E+2   2.36526E+2
  -1.86959E+2   1.03466E+2
  -5.01501E+1  -7.21728E+1
   9.87326E+1  -1.03007E+2
   4.55682E+1  -1.13966E+2
  -7.47411E+1  -1.25231E+2
   4.15240E+1   2.26186E+1
   8.10077E+1   1.78157E+2
  -2.52083E+2   3.12185E+2
  -3.67205E+2   1.01968E+2
  -1.32982E+2  -2.38386E+2
  -3.32202E+1  -9.27703E+1
  -4.99379E+0  -4.97350E+1
  -2.39394E+1   5.73684E+1
  -1.78648E+1   1.98147E+2
  -1.68461E+2   1.99428E+1
  -3.69560E+1   3.29636E+2
   4.38334E+1  -1.61821E+2
  -4.78082E+1  -8.20250E+1
  -2.41952E+1  -4.31842E+0
   1.71629E+2  -3.95376E+2
   2.43603E+2   1.41092E+2
   1.50478E+2   3.22670E+2
  -4.54723E+2   2.98217E+1
  -1.17249E+2  -1.82240E+2
  -1.28573E+2  -1.95740E+2
  -6.73189E+0   1.50445E+2
   1.84864E+1  -1.11979E+2
  -7.81361E+1  -1.41660E+2
  -1.19974E+2  -1.17448E+2
   2.97310E+1  -1.10232E+2
   1.27009E+2   1.10593E+2
  -2.19530E+2   3.70232E+1
  -1.62512E+2  -2.90639E+2
   2.20483E+2  -5.81558E+1
   1.67928E+2  -6.84468E+1
   1.78130E+2   1.82689E+2
  -7.77013E+1   9.03943E+0
  -1.75248E+2  -2.30087E+2
   5.67776E+1  -6.49849E+1
   6.50521E+1   1.06729E+2
   2.19167E+1  -6.96226E+1
  -2.81217E+2   6.44544E+0
  -1.55695E+2  -9.53091E+1
  -1.83653E+1  -8.58865E+1
  -2.26303E+1   2.95167E+2
  -1.81723E+2   2.15245E+1
  -9.84944E+1  -5.71510E+1
  -8.45065E+1  -5.60633E+1
   1.20506E+2  -1.07773E+2
   1.39348E+2  -7.19798E+1
  -2.03392E+2   3.65115E+0
  -2.51875E+2  -1.39067E+2
  -5.44643E+0  -2.57402E+1
   2.92627E+1  -2.11266E+2
  -1.40756E+2   8.61161E+1
  -1.88939E+2  -7.44749E+1
  -1.18650E+1  -2.18062E+2
   5.41609E+1   6.43243E+1
  -2.78584E+1   1.39101E+2
  -2.84956E+2  -8.84762E+1
  -3.78977E+2  -4.47250E+1
  -5.93645E+1  -1.71129E+2
   3.01948E+2  -3.59072E+2
   1.32933E+2  -1.56141E+2
  -1.15971E+2  -8.18360E+1
  -1.36647E+2  -7.36784E+1
   6.19327E+1  -7.53834E+1
  -4.51166E+1   9.75135E+0
  -2.37676E+2   8.12804E+1
  -2.64968E+2  -7.20630E+1
   1.34664E+2  -3.38971E+2
   1.93713E+2  -2.24415E+2
   1.28882E+2   2.24440E+2
  -1.38685E+2   5.76574E+1
  -2.73701E+2   9.79669E+0
  -6.15183E+1  -2.07821E+2
  -1.78954E+2  -9.59543E+1
  -1.70170E+2   1.34310E+2
   5.39916E+1  -1.04771E+2
   1.30199E+2  -1.19528E+2
  -2.20174E+1  -1.67609E+2
   2.06275E+2  -1.26769E+1
  -1.93543E+2   1.86584E+2
  -1.13733E+2  -5.46156E+1
  -1.44181E+2  -7.55748E+1
  -1.96504E+1  -3.87855E+2
  -7.89852E+1  -1.31962E+2
  -3.43270E+1  -2.39538E+1
   9.31829E+1  -1.45557E+2
  -1.40488E+2  -1.67300E+2
   3.64250E+1  -7.86750E+1
   2.92855E+1   7.99860E+0
  -4.29046E+2   3.55198E+1
  -8.29760E+1  -2.36549E+2
   1.99092E+2  -9.93761E+1
   2.23771E+2  -1.20453E+2
   1.42797E+2   2.76952E+1
   4.43310E+1  -1.43169E+2
  -1.66611E+2   2.23753E+2
  -2.34011E+2   4.71619E+1
  -3.86884E+1   1.54241E+2
  -2.54635E+2  -7.55975E+1
  -2.27562E+2   1.11939E+2
  -2.15817E+2  -1.78018E+1
   2.95293E+1  -2.15240E+2
  -1.74284E+2   9.49046E+1
   2.68349E+1  -8.73645E+1
   3.96332E+1  -9.06213E+1
  -5.47029E+1  -3.76041E+2
   1.83110E+1  -2.61483E+1
   5.55919E+1   7.45926E+1
  -7.20182E+1   8.23260E+1
  -3.08881E+2  -1.21352E+2
  -2.52313E+2  -7.71732E+1
   1.35337E+1  -3.26214E+2
   1.20925E+1  -9.92991E+0
  -6.05935E+1  -1.10646E+2
  -1.08528E+2   1.26145E+2
  -3.65098E+1   9.68420E+1
  -1.71657E+2   2.03063E+2
  -5.46650E+1   2.17057E+1
  -2.45624E+2  -2.21777E+2
  -2.02176E+2  -7.77411E+1
  -2.43730E+2  -1.51383E+2
   1.21333E+0  -6.40112E+0
  -1.55804E+2   2.19384E+2
  -2.47876E+2  -9.25921E+1
  -1.14243E+2  -1.33918E+2
  -1.93987E+2   4.76419E+0
  -2.96903E+2  -3.69223E+0
  -6.37528E+0  -2.10865E+2
  -9.66346E+1  -9.90048E+1
  -9.21963E+1   7.93747E+1
   6.79591E+0  -8.56344E+1
   6.43794E+1   6.29325E+1
  -1.29004E+2  -1.99956E+1
  -5.25502E+1  -1.64448E+2
  -1.23263E+2   1.47434E+1
   3.77919E+1   1.37241E+1
  -6.76149E+1  -1.20191E+2
   1.54222E+2  -1.42101E+2
  -4.90027E+1   7.78522E+1
  -3.48022E+1   7.48234E+1
  -9.54542E+1  -1.14057E+2
  -2.04272E+2   4.38582E+1
  -8.46036E+1  -1.36379E+2
   2.15513E+2  -7.07751E+1
  -1.39273E+2  -1.36025E+2
   3.42528E+2  -1.31722E+1
  -5.05211E+1   2.41361E+1
  -5.04869E+1  -3.59975E+0
   1.35486E+2  -1.01275E+1
  -2.50841E+2   7.09751E+1
  -1.03475E+2  -3.97799E+2
   1.38766E+2  -9.58690E+1
  -5.05262E+1  -1.07622E+2
   2.15615E+2   1.34540E+2
   3.06199E+1   1.20665E+2
  -9.69739E+1  -2.28133E+2
   1.11823E+2  -1.63987E+2
  -2.48102E+1   3.69618E+1
  -2.83621E+2  -3.16532E+0
   2.02755E+2  -3.24440E+1
   8.40886E+0   1.20589E+2
   1.78721E+2  -1.72334E+1
   6.84543E+1   1.34296E+2
   2.22613E+2   3.61380E+1
  -1.25131E+2  -1.04559E+1
  -3.93076E+2  -1.67966E+2
   1.42293E+2   1.53561E+1
   2.38978E+2  -6.16430E+1
   1.21863E+2  -3.66676E+1
   1.14373E+2  -6.85490E+1
   1.71629E+2  -5.31059E+1
