 
 $NMID
 ID=''
 FMTDAT='(2E13.5)'
 TRAMP=   1.00000E+0
 VOLUME=   1.00000E+0
 $END
  -4.47038E+5   5.48809E+5
  -1.58778E+6   9.04337E+5
  -1.45186E+6   1.01302E+6
  -1.48035E+6   8.72151E+5
  -1.57313E+6   9.12028E+5
  -1.46715E+6   9.13767E+5
  -1.44846E+6   7.82631E+5
  -1.54418E+6   7.74834E+5
  -1.51352E+6   8.16250E+5
  -1.47445E+6   7.71333E+5
  -1.48345E+6   7.38994E+5
  -1.46945E+6   7.10644E+5
  -1.47852E+6   6.77235E+5
  -1.48016E+6   6.90646E+5
  -1.43802E+6   6.76597E+5
  -1.43288E+6   6.29773E+5
  -1.45263E+6   6.20281E+5
  -1.43526E+6   6.03732E+5
  -1.42857E+6   5.65311E+5
  -1.43054E+6   5.47236E+5
  -1.41537E+6   5.18260E+5
  -1.41420E+6   4.85979E+5
  -1.41299E+6   4.76175E+5
  -1.39762E+6   4.52822E+5
  -1.39104E+6   4.19134E+5
  -1.38278E+6   4.12905E+5
  -1.37053E+6   3.99319E+5
  -1.36611E+6   3.78905E+5
  -1.35475E+6   3.66821E+5
  -1.33776E+6   3.52848E+5
  -1.33632E+6   3.29793E+5
  -1.32958E+6   3.12320E+5
  -1.31523E+6   2.90906E+5
  -1.30755E+6   2.71742E+5
  -1.29831E+6   2.55163E+5
  -1.28829E+6   2.33301E+5
  -1.28349E+6   2.12127E+5
  -1.27385E+6   1.95459E+5
  -1.26011E+6   1.76642E+5
  -1.25277E+6   1.60121E+5
  -1.24230E+6   1.47901E+5
  -1.22919E+6   1.34198E+5
  -1.21861E+6   1.22197E+5
  -1.20881E+6   1.11400E+5
  -1.19691E+6   9.93013E+4
  -1.18838E+6   8.76197E+4
  -1.17837E+6   7.31201E+4
  -1.16667E+6   5.49458E+4
  -1.15382E+6   4.01061E+4
  -1.14254E+6   2.69870E+4
  -1.13203E+6   1.10484E+4
  -1.12172E+6  -5.06575E+3
  -1.11064E+6  -1.85911E+4
  -1.10045E+6  -3.22937E+4
  -1.08931E+6  -4.62561E+4
  -1.07734E+6  -5.95765E+4
  -1.06590E+6  -7.12162E+4
  -1.05420E+6  -8.15241E+4
  -1.04193E+6  -9.14072E+4
  -1.03116E+6  -1.02237E+5
  -1.02002E+6  -1.12683E+5
  -1.00878E+6  -1.22985E+5
  -9.97704E+5  -1.34345E+5
  -9.85561E+5  -1.46133E+5
  -9.72400E+5  -1.56643E+5
  -9.58983E+5  -1.65996E+5
  -9.46619E+5  -1.76547E+5
  -9.34533E+5  -1.86086E+5
  -9.23824E+5  -1.94602E+5
  -9.12459E+5  -2.04108E+5
  -8.99559E+5  -2.13346E+5
  -8.86924E+5  -2.21255E+5
  -8.76329E+5  -2.27388E+5
  -8.65455E+5  -2.35387E+5
  -8.52422E+5  -2.43440E+5
  -8.39652E+5  -2.50595E+5
  -8.28644E+5  -2.57006E+5
  -8.17165E+5  -2.64824E+5
  -8.03971E+5  -2.72848E+5
  -7.90692E+5  -2.80353E+5
  -7.78470E+5  -2.87042E+5
  -7.66611E+5  -2.93963E+5
  -7.54298E+5  -3.00214E+5
  -7.41862E+5  -3.06286E+5
  -7.29690E+5  -3.12657E+5
  -7.17970E+5  -3.17617E+5
  -7.06295E+5  -3.22329E+5
  -6.94929E+5  -3.26754E+5
  -6.83839E+5  -3.30424E+5
  -6.72638E+5  -3.33943E+5
  -6.61795E+5  -3.37539E+5
  -6.51208E+5  -3.41160E+5
  -6.39938E+5  -3.45156E+5
  -6.27808E+5  -3.49275E+5
  -6.16275E+5  -3.52363E+5
  -6.05730E+5  -3.55458E+5
  -5.95350E+5  -3.59013E+5
  -5.84250E+5  -3.62691E+5
  -5.73006E+5  -3.65781E+5
  -5.63029E+5  -3.67931E+5
  -5.53514E+5  -3.70330E+5
  -5.43773E+5  -3.73244E+5
  -5.32700E+5  -3.74896E+5
  -5.22635E+5  -3.75702E+5
  -5.13684E+5  -3.76693E+5
  -5.05157E+5  -3.77786E+5
  -4.96035E+5  -3.79327E+5
  -4.86422E+5  -3.80346E+5
  -4.76738E+5  -3.80669E+5
  -4.68015E+5  -3.80675E+5
  -4.59732E+5  -3.81196E+5
  -4.51345E+5  -3.82736E+5
  -4.42222E+5  -3.84296E+5
  -4.33044E+5  -3.84755E+5
  -4.24354E+5  -3.85352E+5
  -4.15800E+5  -3.86115E+5
  -4.07221E+5  -3.86526E+5
  -3.98433E+5  -3.86424E+5
  -3.90225E+5  -3.85406E+5
  -3.82842E+5  -3.84939E+5
  -3.75542E+5  -3.84546E+5
  -3.68122E+5  -3.84280E+5
  -3.60191E+5  -3.84138E+5
  -3.52608E+5  -3.83937E+5
  -3.45004E+5  -3.83446E+5
  -3.37196E+5  -3.82485E+5
  -3.30137E+5  -3.81180E+5
  -3.22754E+5  -3.80440E+5
  -3.15652E+5  -3.79785E+5
  -3.08335E+5  -3.79434E+5
  -3.00616E+5  -3.78822E+5
  -2.92798E+5  -3.78024E+5
  -2.85553E+5  -3.76742E+5
  -2.78569E+5  -3.75749E+5
  -2.71574E+5  -3.74918E+5
  -2.64396E+5  -3.73484E+5
  -2.57753E+5  -3.72603E+5
  -2.51244E+5  -3.71574E+5
  -2.44663E+5  -3.70642E+5
  -2.37556E+5  -3.69586E+5
  -2.30665E+5  -3.68171E+5
  -2.24376E+5  -3.66171E+5
  -2.18249E+5  -3.64457E+5
  -2.12118E+5  -3.63442E+5
  -2.06032E+5  -3.62331E+5
  -1.99727E+5  -3.60552E+5
  -1.93708E+5  -3.58532E+5
  -1.87761E+5  -3.57118E+5
  -1.82010E+5  -3.54931E+5
  -1.76308E+5  -3.52969E+5
  -1.71041E+5  -3.51298E+5
  -1.65926E+5  -3.49237E+5
  -1.61131E+5  -3.47380E+5
  -1.56043E+5  -3.45723E+5
  -1.50792E+5  -3.43511E+5
  -1.45899E+5  -3.41482E+5
  -1.41100E+5  -3.39659E+5
  -1.36162E+5  -3.37914E+5
  -1.31401E+5  -3.35419E+5
  -1.26966E+5  -3.33169E+5
  -1.22177E+5  -3.30877E+5
  -1.17971E+5  -3.28747E+5
  -1.13165E+5  -3.26657E+5
  -1.08793E+5  -3.24233E+5
  -1.04782E+5  -3.21812E+5
  -1.00762E+5  -3.19628E+5
  -9.71822E+4  -3.17887E+5
  -9.30627E+4  -3.16080E+5
  -8.89050E+4  -3.13367E+5
  -8.55234E+4  -3.11361E+5
  -8.19065E+4  -3.09127E+5
  -7.83985E+4  -3.06781E+5
  -7.48634E+4  -3.04429E+5
  -7.15813E+4  -3.02485E+5
  -6.79889E+4  -3.00414E+5
  -6.46406E+4  -2.98395E+5
  -6.14794E+4  -2.96532E+5
  -5.75895E+4  -2.94181E+5
  -5.42444E+4  -2.91405E+5
  -5.13147E+4  -2.89254E+5
  -4.84517E+4  -2.87641E+5
  -4.49129E+4  -2.85460E+5
  -4.13461E+4  -2.83656E+5
  -3.82147E+4  -2.81079E+5
  -3.55768E+4  -2.79235E+5
  -3.21444E+4  -2.76851E+5
  -2.94922E+4  -2.74689E+5
  -2.70740E+4  -2.72431E+5
  -2.47607E+4  -2.70523E+5
  -2.22237E+4  -2.68502E+5
  -1.89863E+4  -2.66742E+5
  -1.59736E+4  -2.64683E+5
  -1.28305E+4  -2.62211E+5
  -1.05675E+4  -2.59869E+5
  -7.88356E+3  -2.57544E+5
  -5.47430E+3  -2.55271E+5
  -2.51678E+3  -2.53360E+5
   2.28079E+2  -2.51123E+5
   2.65584E+3  -2.48958E+5
   5.64784E+3  -2.46578E+5
   8.22934E+3  -2.44496E+5
   1.06546E+4  -2.41905E+5
   1.29614E+4  -2.39192E+5
   1.54619E+4  -2.37348E+5
   1.76695E+4  -2.35120E+5
   2.00165E+4  -2.32857E+5
   2.24951E+4  -2.30337E+5
   2.49269E+4  -2.27799E+5
   2.67889E+4  -2.25537E+5
   2.94341E+4  -2.23212E+5
   3.14633E+4  -2.20575E+5
   3.34898E+4  -2.18243E+5
   3.54881E+4  -2.15951E+5
   3.76332E+4  -2.13686E+5
   3.99870E+4  -2.11188E+5
   4.17942E+4  -2.08338E+5
   4.35230E+4  -2.05774E+5
   4.51712E+4  -2.03371E+5
   4.67707E+4  -2.00901E+5
   4.88147E+4  -1.98553E+5
   5.02137E+4  -1.96190E+5
   5.16609E+4  -1.93713E+5
   5.32806E+4  -1.91302E+5
   5.49242E+4  -1.89078E+5
   5.66189E+4  -1.86222E+5
   5.78026E+4  -1.83526E+5
   5.88986E+4  -1.81190E+5
   6.01976E+4  -1.78928E+5
   6.17910E+4  -1.76710E+5
   6.27964E+4  -1.74164E+5
   6.39128E+4  -1.71595E+5
   6.48244E+4  -1.69170E+5
   6.58394E+4  -1.66917E+5
   6.70657E+4  -1.64676E+5
   6.78193E+4  -1.62249E+5
   6.85365E+4  -1.59889E+5
   6.93786E+4  -1.57734E+5
   7.00239E+4  -1.55754E+5
   7.09328E+4  -1.53321E+5
   7.15318E+4  -1.51149E+5
   7.21147E+4  -1.48898E+5
   7.28454E+4  -1.46902E+5
   7.36338E+4  -1.44850E+5
   7.40706E+4  -1.42606E+5
   7.44555E+4  -1.40275E+5
   7.50408E+4  -1.38194E+5
   7.54208E+4  -1.36345E+5
   7.60442E+4  -1.33980E+5
   7.62375E+4  -1.31984E+5
   7.66890E+4  -1.29810E+5
   7.69943E+4  -1.28057E+5
   7.76698E+4  -1.25968E+5
   7.78640E+4  -1.23688E+5
   7.82098E+4  -1.21788E+5
   7.84045E+4  -1.19526E+5
   7.86196E+4  -1.18120E+5
   7.89105E+4  -1.16218E+5
   7.94009E+4  -1.13979E+5
   7.98454E+4  -1.11888E+5
   8.02393E+4  -1.10021E+5
   8.03454E+4  -1.08304E+5
   8.05198E+4  -1.06023E+5
   8.07290E+4  -1.03962E+5
   8.08283E+4  -1.02290E+5
   8.09811E+4  -1.00359E+5
   8.13539E+4  -9.87650E+4
   8.15098E+4  -9.69618E+4
   8.16116E+4  -9.49371E+4
   8.15904E+4  -9.29119E+4
   8.14777E+4  -9.14490E+4
   8.18235E+4  -8.93596E+4
   8.16719E+4  -8.75941E+4
   8.15701E+4  -8.58564E+4
   8.15962E+4  -8.43156E+4
   8.16609E+4  -8.27889E+4
   8.18546E+4  -8.05300E+4
   8.17565E+4  -7.88713E+4
   8.15051E+4  -7.68356E+4
   8.12661E+4  -7.51309E+4
   8.13091E+4  -7.37797E+4
   8.12338E+4  -7.20411E+4
   8.11986E+4  -7.03006E+4
   8.07976E+4  -6.86417E+4
   8.05790E+4  -6.72617E+4
   8.07314E+4  -6.58161E+4
   8.02077E+4  -6.37509E+4
   7.99129E+4  -6.23433E+4
   7.92536E+4  -6.09397E+4
   7.92356E+4  -5.96276E+4
   7.89514E+4  -5.81037E+4
   7.88872E+4  -5.67241E+4
   7.83627E+4  -5.52930E+4
   7.80717E+4  -5.35310E+4
   7.77081E+4  -5.21663E+4
   7.71334E+4  -5.08591E+4
   7.69867E+4  -4.94774E+4
   7.64089E+4  -4.82241E+4
   7.59643E+4  -4.67997E+4
   7.56270E+4  -4.55911E+4
   7.54556E+4  -4.42339E+4
   7.48824E+4  -4.27902E+4
   7.41878E+4  -4.16386E+4
   7.36314E+4  -4.05590E+4
   7.33425E+4  -3.94485E+4
   7.26651E+4  -3.80777E+4
   7.22057E+4  -3.68963E+4
   7.14756E+4  -3.57372E+4
   7.10431E+4  -3.49549E+4
   7.06742E+4  -3.37596E+4
   7.00829E+4  -3.26344E+4
   6.96106E+4  -3.15581E+4
   6.91378E+4  -3.03685E+4
   6.84474E+4  -2.93401E+4
   6.80332E+4  -2.81662E+4
   6.73636E+4  -2.71924E+4
   6.66285E+4  -2.64399E+4
   6.62407E+4  -2.55702E+4
   6.58335E+4  -2.45361E+4
   6.48142E+4  -2.34963E+4
   6.43400E+4  -2.27930E+4
   6.38812E+4  -2.17906E+4
   6.32604E+4  -2.09024E+4
   6.26103E+4  -2.00799E+4
   6.19173E+4  -1.92249E+4
   6.12109E+4  -1.83774E+4
   6.06887E+4  -1.79006E+4
   6.01882E+4  -1.68736E+4
   5.97418E+4  -1.56919E+4
   5.87685E+4  -1.53525E+4
   5.81496E+4  -1.43431E+4
   5.73505E+4  -1.38601E+4
   5.70448E+4  -1.31356E+4
   5.62460E+4  -1.24174E+4
   5.59100E+4  -1.15765E+4
   5.52984E+4  -1.11998E+4
   5.47973E+4  -1.04556E+4
   5.40732E+4  -9.77241E+3
   5.31509E+4  -8.89254E+3
   5.26000E+4  -8.20426E+3
   5.18979E+4  -8.01525E+3
   5.14266E+4  -7.42510E+3
   5.11043E+4  -6.62024E+3
   5.01908E+4  -6.13528E+3
   4.94136E+4  -5.50357E+3
   4.91476E+4  -5.00393E+3
   4.81026E+4  -4.42272E+3
   4.76018E+4  -3.89075E+3
   4.71920E+4  -3.34627E+3
   4.68397E+4  -3.02984E+3
   4.62060E+4  -2.54474E+3
   4.54813E+4  -1.90661E+3
   4.48712E+4  -1.61354E+3
   4.44331E+4  -9.39725E+2
   4.38576E+4  -7.43870E+2
   4.32058E+4  -3.09271E+2
   4.26858E+4   2.36325E+2
   4.21746E+4   4.99223E+2
   4.13748E+4   8.08122E+2
   4.11426E+4   1.28943E+3
   4.05629E+4   1.73970E+3
   4.01460E+4   2.35802E+3
   3.93151E+4   2.58364E+3
   3.87956E+4   3.03156E+3
   3.86486E+4   3.08850E+3
   3.78891E+4   3.55941E+3
   3.74611E+4   3.92641E+3
   3.69433E+4   4.37755E+3
