 LCModel (Version 6.3-1N) Copyright: S.W. Provencher.          Ref.: Magn. Reson. Med. 30:672-679 (1993).                
 Slice_N1@22_14  28-Feb-2025 11:41:58
 27 lines in following concentration table = NCONC+1
    Conc.  %SD /Cr+PCr  Metabolite                                         
 2.90E-04   4% 4.3E-04 Mac                                                 
    5.452  15%   8.000 Cr                                                  
    0.000 999%   0.000 PCr                                                 
    5.678  19%   8.332 Ins                                                 
    4.940  19%   7.249 NAA                                                 
    3.525  36%   5.173 Tau                                                 
    1.728  16%   2.536 PCho                                                
    0.000 999%   0.000 GPC                                                 
   10.442  12%  15.322 Glu                                                 
    4.147  22%   6.085 Gln                                                 
    0.000 999%   0.000 Ala                                                 
    1.354 102%   1.987 Asc                                                 
    1.019  79%   1.495 Asp                                                 
    0.914  51%   1.341 GABA                                                
    0.285 182%   0.419 Glc                                                 
    1.539  37%   2.258 GSH                                                 
    5.237  16%   7.684 Lac                                                 
    4.120  19%   6.045 NAAG                                                
    0.000 999%   0.000 PE                                                  
    1.728  16%   2.536 GPC+PCho                                            
    9.060  10%  13.294 NAA+NAAG                                            
   14.589  10%  21.407 Glu+Gln                                             
    5.452  15%   8.000 Cr+PCr                                              
    9.060  10%  13.294 NAA+NAAG                                            
    5.452  15%   8.000 Cr+PCr                                              
   14.589  10%  21.407 Glu+Gln                                             
   6 lines in following misc. output table
  FWHM = 0.065 ppm    S/N =   3                                            
  Data shift =-0.016 ppm                                                   
  Ph:-117 deg       0.0 deg/ppm                                            
  alphaB,S = 1.5E-01,   4.6E+01                                            
   19 spline knots.   Ns =10(1)                                            
  (10) 4 infls.   ( 7) 1 extrs.                                            
  480 points on ppm-axis = NY
      4.100000     4.091866     4.083733     4.075600     4.067466     4.059333     4.051199     4.043066     4.034933     4.026799
      4.018666     4.010532     4.002399     3.994265     3.986132     3.977998     3.969864     3.961731     3.953597     3.945463
      3.937330     3.929196     3.921062     3.912929     3.904795     3.896662     3.888528     3.880394     3.872261     3.864127
      3.855993     3.847860     3.839726     3.831592     3.823459     3.815325     3.807191     3.799058     3.790924     3.782790
      3.774657     3.766523     3.758389     3.750256     3.742122     3.733989     3.725855     3.717721     3.709588     3.701454
      3.693320     3.685187     3.677053     3.668919     3.660786     3.652652     3.644518     3.636385     3.628251     3.620117
      3.611984     3.603850     3.595716     3.587583     3.579449     3.571316     3.563182     3.555048     3.546915     3.538781
      3.530647     3.522514     3.514380     3.506246     3.498113     3.489979     3.481845     3.473712     3.465578     3.457444
      3.449311     3.441177     3.433043     3.424910     3.416776     3.408643     3.400509     3.392375     3.384242     3.376108
      3.367974     3.359841     3.351707     3.343573     3.335440     3.327306     3.319172     3.311039     3.302905     3.294771
      3.286638     3.278504     3.270370     3.262237     3.254103     3.245970     3.237836     3.229702     3.221569     3.213435
      3.205301     3.197168     3.189034     3.180900     3.172767     3.164633     3.156499     3.148366     3.140232     3.132098
      3.123965     3.115831     3.107697     3.099564     3.091430     3.083297     3.075163     3.067029     3.058896     3.050762
      3.042628     3.034495     3.026361     3.018227     3.010094     3.001960     2.993826     2.985693     2.977559     2.969425
      2.961292     2.953158     2.945024     2.936891     2.928757     2.920624     2.912490     2.904356     2.896223     2.888089
      2.879955     2.871822     2.863688     2.855554     2.847421     2.839287     2.831153     2.823020     2.814886     2.806752
      2.798619     2.790485     2.782351     2.774218     2.766084     2.757951     2.749817     2.741683     2.733550     2.725416
      2.717282     2.709149     2.701015     2.692881     2.684748     2.676614     2.668480     2.660347     2.652213     2.644079
      2.635946     2.627812     2.619678     2.611545     2.603411     2.595278     2.587144     2.579010     2.570877     2.562743
      2.554609     2.546476     2.538342     2.530208     2.522075     2.513941     2.505807     2.497674     2.489540     2.481406
      2.473273     2.465139     2.457006     2.448872     2.440738     2.432605     2.424471     2.416337     2.408204     2.400070
      2.391936     2.383803     2.375669     2.367535     2.359402     2.351268     2.343134     2.335001     2.326867     2.318733
      2.310600     2.302466     2.294333     2.286199     2.278065     2.269932     2.261798     2.253664     2.245531     2.237397
      2.229263     2.221130     2.212996     2.204862     2.196729     2.188595     2.180461     2.172328     2.164194     2.156060
      2.147927     2.139793     2.131660     2.123526     2.115392     2.107259     2.099125     2.090991     2.082858     2.074724
      2.066590     2.058457     2.050323     2.042189     2.034056     2.025922     2.017788     2.009655     2.001521     1.993387
      1.985254     1.977120     1.968987     1.960853     1.952719     1.944586     1.936452     1.928318     1.920185     1.912051
      1.903917     1.895784     1.887650     1.879516     1.871383     1.863249     1.855115     1.846982     1.838848     1.830714
      1.822581     1.814447     1.806314     1.798180     1.790046     1.781913     1.773779     1.765645     1.757512     1.749378
      1.741244     1.733111     1.724977     1.716843     1.708710     1.700576     1.692442     1.684309     1.676175     1.668041
      1.659908     1.651774     1.643641     1.635507     1.627373     1.619240     1.611106     1.602972     1.594839     1.586705
      1.578571     1.570438     1.562304     1.554170     1.546037     1.537903     1.529769     1.521636     1.513502     1.505368
      1.497235     1.489101     1.480968     1.472834     1.464700     1.456567     1.448433     1.440299     1.432166     1.424032
      1.415898     1.407765     1.399631     1.391497     1.383364     1.375230     1.367096     1.358963     1.350829     1.342695
      1.334562     1.326428     1.318295     1.310161     1.302027     1.293894     1.285760     1.277626     1.269493     1.261359
      1.253225     1.245092     1.236958     1.228824     1.220691     1.212557     1.204423     1.196290     1.188156     1.180022
      1.171889     1.163755     1.155622     1.147488     1.139354     1.131221     1.123087     1.114953     1.106820     1.098686
      1.090552     1.082419     1.074285     1.066151     1.058018     1.049884     1.041750     1.033617     1.025483     1.017349
      1.009216     1.001082     0.992949     0.984815     0.976681     0.968548     0.960414     0.952280     0.944147     0.936013
      0.927879     0.919746     0.911612     0.903478     0.895345     0.887211     0.879077     0.870944     0.862810     0.854676
      0.846543     0.838409     0.830276     0.822142     0.814008     0.805875     0.797741     0.789607     0.781474     0.773340
      0.765206     0.757073     0.748939     0.740805     0.732672     0.724538     0.716404     0.708271     0.700137     0.692003
      0.683870     0.675736     0.667603     0.659469     0.651335     0.643202     0.635068     0.626934     0.618801     0.610667
      0.602533     0.594400     0.586266     0.578132     0.569999     0.561865     0.553731     0.545598     0.537464     0.529330
      0.521197     0.513063     0.504930     0.496796     0.488662     0.480529     0.472395     0.464261     0.456128     0.447994
      0.439861     0.431727     0.423593     0.415460     0.407326     0.399192     0.391059     0.382925     0.374792     0.366658
      0.358524     0.350391     0.342257     0.334124     0.325990     0.317856     0.309723     0.301589     0.293455     0.285322
      0.277188     0.269055     0.260921     0.252787     0.244654     0.236520     0.228386     0.220253     0.212119     0.203986
 NY phased data points follow
  -4.88643E+01 -5.79996E+01 -6.06241E+01 -5.40875E+01 -4.83748E+01 -5.55185E+01 -5.52737E+01 -6.93488E+01 -5.11786E+01 -4.09887E+01
  -7.29032E+01 -4.59484E+01 -5.29104E+01 -6.48285E+01 -6.87934E+01 -8.13926E+01 -6.90880E+01 -8.67800E+01 -8.84593E+01 -8.84224E+01
  -8.79444E+01 -8.81862E+01 -9.26362E+01 -8.38250E+01 -6.71375E+01 -5.87083E+01 -6.66609E+01 -4.80716E+01 -5.23204E+01 -5.00723E+01
  -5.43011E+01 -6.73849E+01 -5.44038E+01 -7.42190E+01 -7.38714E+01 -7.76142E+01 -8.29170E+01 -9.51793E+01 -9.31269E+01 -7.21355E+01
  -1.03093E+02 -9.06917E+01 -8.45236E+01 -9.58362E+01 -8.79616E+01 -7.05060E+01 -4.98662E+01 -6.47287E+01 -4.95978E+01 -4.10797E+01
  -3.86763E+01 -3.88566E+01 -4.57966E+01 -4.93545E+01 -6.17985E+01 -4.63165E+01 -5.12964E+01 -5.73884E+01 -7.18692E+01 -6.78297E+01
  -4.66430E+01 -6.57707E+01 -5.83692E+01 -5.14187E+01 -5.47997E+01 -5.47244E+01 -5.67723E+01 -6.31803E+01 -6.51996E+01 -6.57066E+01
  -6.34036E+01 -4.48250E+01 -6.30011E+01 -4.14440E+01 -1.96702E+01 -5.15224E+01 -3.06916E+01 -1.74539E+01 -2.31411E+01 -1.37713E+01
  -1.26835E+01 -1.85893E+01 -2.66625E+01 -2.31211E+01 -2.45146E+01 -2.30827E+01 -2.90785E+01 -4.67402E+01 -2.84515E+01 -1.48563E+01
  -2.10793E+01 -8.10916E+00 -1.16955E+01 -1.37488E+01 -5.66974E+00 -8.18389E+00  8.94432E+00  1.27446E+01 -8.26041E+00 -1.23286E+01
  -3.05217E+00 -1.31524E+01 -2.19118E+01 -2.58917E+01 -4.82080E+01 -5.54146E+01 -6.60024E+01 -8.80929E+01 -1.02923E+02 -1.08073E+02
  -1.15451E+02 -1.33595E+02 -1.28362E+02 -1.18754E+02 -1.15770E+02 -9.55366E+01 -8.03063E+01 -8.09955E+01 -6.40358E+01 -5.54555E+01
  -5.72344E+01 -4.65556E+01 -3.88897E+01 -2.38166E+01 -2.61409E+01 -1.69177E+01 -7.73979E+00 -1.07116E+01  1.44118E+00 -1.45517E+01
  -2.40236E+01 -1.74378E+01 -3.26349E+01 -5.00930E+01 -5.92212E+01 -9.71063E+01 -1.12336E+02 -1.00516E+02 -1.21390E+02 -1.21905E+02
  -1.09837E+02 -1.15944E+02 -1.33268E+02 -1.24415E+02 -1.15516E+02 -1.18808E+02 -1.00328E+02 -9.91293E+01 -1.04945E+02 -1.07161E+02
  -9.44708E+01 -9.04973E+01 -8.81947E+01 -8.02766E+01 -8.84355E+01 -7.89863E+01 -7.74140E+01 -6.62073E+01 -5.54355E+01 -7.98439E+01
  -7.62569E+01 -5.29793E+01 -7.45396E+01 -7.84142E+01 -5.60325E+01 -7.34707E+01 -8.10060E+01 -6.84550E+01 -5.23132E+01 -5.57008E+01
  -6.20994E+01 -5.10305E+01 -5.69315E+01 -4.57129E+01 -4.27131E+01 -4.83191E+01 -4.64988E+01 -6.27234E+01 -5.10348E+01 -4.79384E+01
  -7.16712E+01 -7.39497E+01 -7.68613E+01 -7.79148E+01 -7.39429E+01 -7.99412E+01 -8.38463E+01 -7.12757E+01 -6.64858E+01 -8.31606E+01
  -8.25883E+01 -7.03084E+01 -6.23181E+01 -6.05046E+01 -5.83518E+01 -5.42903E+01 -6.04134E+01 -5.76132E+01 -5.76826E+01 -6.52604E+01
  -5.52671E+01 -5.66967E+01 -6.68204E+01 -5.36084E+01 -5.69669E+01 -7.03622E+01 -6.54128E+01 -6.15638E+01 -7.38206E+01 -7.65302E+01
  -6.01303E+01 -7.40910E+01 -6.71899E+01 -4.83091E+01 -5.02764E+01 -3.27933E+01 -3.32485E+01 -2.82723E+01 -2.66456E+01 -3.20985E+01
  -1.59703E+01 -2.06532E+01 -2.87516E+01 -3.39529E+01 -2.91665E+01 -2.36117E+01 -4.06843E+01 -3.13114E+01 -2.20125E+01 -4.11995E+01
  -5.66771E+01 -6.34865E+01 -5.89839E+01 -6.67640E+01 -7.49045E+01 -6.65145E+01 -7.86656E+01 -8.20334E+01 -7.96497E+01 -1.03417E+02
  -9.65052E+01 -9.23125E+01 -9.83370E+01 -7.28107E+01 -7.21617E+01 -8.19751E+01 -6.81750E+01 -5.63059E+01 -7.11696E+01 -7.20150E+01
  -5.81717E+01 -5.83919E+01 -6.08166E+01 -6.44402E+01 -4.06199E+01 -2.37615E+01 -9.25128E+00  6.13623E-01  5.86229E+00  2.90706E+01
   6.43949E+01  9.01824E+01  5.48240E+01  5.80793E+01  7.45988E+01  5.72648E+01  4.74143E+01  3.96201E+01  4.69322E+01  3.51403E+01
   3.71586E+01  4.78206E+01  4.20896E+01  2.79787E+01  3.86261E+01  4.31217E+01  3.29634E+01  4.90411E+01  3.43752E+01  3.13200E+01
   4.24552E+01  5.22408E+01  4.27252E+01  1.36776E+01  1.38993E+01  1.87462E+01  2.17183E+01  2.11108E+01  1.90908E+01  1.15317E+01
   1.87002E+01  1.02544E+01  5.03077E+00  1.63535E+01  5.15382E+00  1.28022E+01  1.14276E+01  9.86259E+00  5.11779E+00 -3.08512E+00
   7.38766E+00 -1.13222E+00  5.48852E+00  1.31903E+01 -9.44431E+00  9.67138E-01  1.73757E+01  1.33352E+01  2.17180E+01  4.89030E+00
   7.85336E+00  2.28184E+01  6.65809E+00  2.58244E+01  4.45188E+01  3.57037E+01  4.37458E+01  4.69887E+01  5.24758E+01  6.30969E+01
   5.44101E+01  6.43205E+01  6.49593E+01  6.92328E+01  7.56321E+01  4.72030E+01  4.76937E+01  3.57949E+01  1.35133E+01  1.17847E+01
  -6.65064E+00 -2.13042E+01 -4.04438E+01 -6.31335E+01 -6.52083E+01 -6.51206E+01 -5.49726E+01 -3.74582E+01 -4.34665E+01 -4.31866E+01
  -4.12566E+01 -4.47505E+01 -3.47939E+01 -3.13264E+01 -2.80744E+01 -2.63940E+01 -2.87024E+01 -3.58806E+01 -5.10166E+01 -5.51661E+01
  -6.92200E+01 -6.71478E+01 -5.22351E+01 -6.76462E+01 -6.29777E+01 -6.72421E+01 -7.67545E+01 -6.81407E+01 -6.05567E+01 -5.72063E+01
  -6.83288E+01 -5.39149E+01 -5.61563E+01 -6.37315E+01 -5.93507E+01 -4.69613E+01 -2.93403E+01 -2.86917E+01 -2.29515E+01 -4.24086E+01
  -3.00799E+01 -2.02542E+01 -2.28821E+01 -8.02175E+00 -1.37460E+01 -5.08865E+00 -1.09747E+01 -8.75069E+00 -1.26379E+01 -8.47146E-01
   2.97220E+01  1.94192E+01  2.62895E+01  3.62918E+01  4.50008E+01  4.99159E+01  5.09643E+01  5.94205E+01  4.40541E+01  4.53040E+01
   5.47425E+01  3.97411E+01  2.73067E+01  1.67175E+01  2.29150E+00 -4.80306E+00 -3.50456E+00 -2.01315E+01 -3.19267E+01 -2.81697E+01
  -4.27387E+01 -6.03829E+01 -5.92666E+01 -4.64162E+01 -6.38006E+01 -6.98692E+01 -6.74519E+01 -7.35113E+01 -6.01846E+01 -6.49166E+01
  -6.13757E+01 -6.30515E+01 -6.73244E+01 -7.95967E+01 -7.52278E+01 -5.26403E+01 -5.86534E+01 -3.98587E+01 -5.53467E+01 -7.06856E+01
  -4.88941E+01 -4.87938E+01 -5.23125E+01 -5.60334E+01 -5.23350E+01 -4.88269E+01 -5.30392E+01 -5.11451E+01 -4.52124E+01 -5.41968E+01
  -5.13805E+01 -5.56417E+01 -5.86030E+01 -4.57756E+01 -4.64533E+01 -4.40835E+01 -5.84240E+01 -5.92476E+01 -5.18763E+01 -4.83065E+01
  -4.95290E+01 -5.10782E+01 -3.54811E+01 -4.74712E+01 -4.61068E+01 -4.86864E+01 -6.44144E+01 -5.03113E+01 -4.50824E+01 -4.34571E+01
  -4.86959E+01 -4.78531E+01 -4.07097E+01 -5.28121E+01 -4.99246E+01 -5.37714E+01 -5.22839E+01 -4.35094E+01 -5.28188E+01 -4.20399E+01
  -4.21425E+01 -4.23189E+01 -4.08694E+01 -4.95057E+01 -3.75140E+01 -3.66483E+01 -4.25566E+01 -4.45586E+01 -4.96660E+01 -4.86424E+01
  -3.79930E+01 -3.30572E+01 -4.39605E+01 -4.02285E+01 -3.60740E+01 -4.85239E+01 -3.81128E+01 -3.92878E+01 -4.26472E+01 -3.69715E+01
 NY points of the fit to the data follow
  -7.60391E+01 -7.39213E+01 -7.16111E+01 -6.95735E+01 -6.78883E+01 -6.62942E+01 -6.46667E+01 -6.32751E+01 -6.25864E+01 -6.29446E+01
  -6.42793E+01 -6.62219E+01 -6.85096E+01 -7.15237E+01 -7.52640E+01 -7.92665E+01 -8.32749E+01 -8.70578E+01 -8.98320E+01 -9.08411E+01
  -9.02348E+01 -8.86936E+01 -8.61799E+01 -8.18664E+01 -7.53555E+01 -6.71437E+01 -5.86065E+01 -5.12282E+01 -4.53631E+01 -4.08917E+01
  -3.83306E+01 -3.81673E+01 -3.99130E+01 -4.29178E+01 -4.69759E+01 -5.25181E+01 -5.92609E+01 -6.63368E+01 -7.30024E+01 -7.88853E+01
  -8.35951E+01 -8.64631E+01 -8.67732E+01 -8.40506E+01 -7.84265E+01 -7.06140E+01 -6.16064E+01 -5.25953E+01 -4.48523E+01 -3.95447E+01
  -3.72225E+01 -3.74748E+01 -3.95831E+01 -4.31781E+01 -4.77066E+01 -5.23383E+01 -5.63043E+01 -5.91793E+01 -6.06135E+01 -6.03064E+01
  -5.86357E+01 -5.61475E+01 -5.31641E+01 -5.04757E+01 -4.88256E+01 -4.79875E+01 -4.77530E+01 -4.85071E+01 -5.03502E+01 -5.27386E+01
  -5.48042E+01 -5.57480E+01 -5.50584E+01 -5.25570E+01 -4.85960E+01 -4.36022E+01 -3.82096E+01 -3.36948E+01 -3.09547E+01 -2.99388E+01
  -3.02412E+01 -3.15273E+01 -3.35013E+01 -3.57024E+01 -3.75673E+01 -3.86830E+01 -3.87302E+01 -3.74569E+01 -3.48533E+01 -3.11514E+01
  -2.68392E+01 -2.24053E+01 -1.82063E+01 -1.45339E+01 -1.16659E+01 -9.48995E+00 -7.98941E+00 -7.37701E+00 -7.28911E+00 -7.49485E+00
  -8.65018E+00 -1.14275E+01 -1.62226E+01 -2.36846E+01 -3.42471E+01 -4.69362E+01 -5.99814E+01 -7.26968E+01 -8.53644E+01 -9.76811E+01
  -1.08448E+02 -1.15823E+02 -1.18321E+02 -1.16329E+02 -1.11362E+02 -1.04031E+02 -9.48210E+01 -8.52491E+01 -7.67335E+01 -6.95061E+01
  -6.29096E+01 -5.63984E+01 -4.89020E+01 -4.02769E+01 -3.12612E+01 -2.24127E+01 -1.45144E+01 -9.22640E+00 -7.84509E+00 -9.99461E+00
  -1.45467E+01 -2.15140E+01 -3.17609E+01 -4.53440E+01 -6.09123E+01 -7.58093E+01 -8.77482E+01 -9.67246E+01 -1.03245E+02 -1.06565E+02
  -1.06772E+02 -1.05653E+02 -1.04672E+02 -1.04308E+02 -1.03882E+02 -1.03181E+02 -1.02161E+02 -1.00809E+02 -9.91230E+01 -9.71449E+01
  -9.49887E+01 -9.27863E+01 -9.06447E+01 -8.86217E+01 -8.67353E+01 -8.49864E+01 -8.33527E+01 -8.17986E+01 -8.02948E+01 -7.88399E+01
  -7.74266E+01 -7.60578E+01 -7.47811E+01 -7.35737E+01 -7.23059E+01 -7.07886E+01 -6.88723E+01 -6.67154E+01 -6.46990E+01 -6.30631E+01
  -6.16956E+01 -6.02555E+01 -5.86503E+01 -5.72811E+01 -5.66927E+01 -5.70942E+01 -5.82568E+01 -5.98282E+01 -6.17617E+01 -6.40849E+01
  -6.66505E+01 -6.92140E+01 -7.14703E+01 -7.33539E+01 -7.49632E+01 -7.60923E+01 -7.63505E+01 -7.56918E+01 -7.44089E+01 -7.26832E+01
  -7.05267E+01 -6.81251E+01 -6.57987E+01 -6.36729E+01 -6.17022E+01 -5.98773E+01 -5.82864E+01 -5.70502E+01 -5.60611E+01 -5.50674E+01
  -5.40992E+01 -5.34472E+01 -5.32857E+01 -5.36853E+01 -5.45471E+01 -5.62169E+01 -5.89042E+01 -6.20670E+01 -6.51286E+01 -6.73935E+01
  -6.82322E+01 -6.71790E+01 -6.40092E+01 -5.88545E+01 -5.19319E+01 -4.35519E+01 -3.44163E+01 -2.53824E+01 -1.73023E+01 -1.11804E+01
  -7.60011E+00 -6.55815E+00 -7.83962E+00 -1.08950E+01 -1.49243E+01 -1.97534E+01 -2.54495E+01 -3.20202E+01 -3.96165E+01 -4.81933E+01
  -5.75820E+01 -6.71080E+01 -7.61738E+01 -8.41724E+01 -9.06569E+01 -9.53024E+01 -9.79588E+01 -9.86236E+01 -9.72803E+01 -9.42896E+01
  -9.02852E+01 -8.56298E+01 -8.07480E+01 -7.63829E+01 -7.32875E+01 -7.14313E+01 -7.03688E+01 -6.98219E+01 -6.98697E+01 -6.94850E+01
  -6.79979E+01 -6.56584E+01 -6.19897E+01 -5.49518E+01 -4.32253E+01 -2.78201E+01 -1.13337E+01  4.43008E+00  1.94215E+01  3.40306E+01
   4.70599E+01  5.60419E+01  6.03365E+01  6.17586E+01  6.14453E+01  5.89049E+01  5.41950E+01  4.89861E+01  4.46153E+01  4.14532E+01
   3.90514E+01  3.73391E+01  3.63129E+01  3.59205E+01  3.60380E+01  3.64747E+01  3.70040E+01  3.74261E+01  3.76131E+01  3.74631E+01
   3.69084E+01  3.59464E+01  3.46050E+01  3.29352E+01  3.09477E+01  2.86460E+01  2.60539E+01  2.31978E+01  2.01284E+01  1.69056E+01
   1.36250E+01  1.04236E+01  7.44495E+00  4.83470E+00  2.72860E+00  1.26151E+00  5.50931E-01  6.20864E-01  1.39587E+00  2.76204E+00
   4.58114E+00  6.71421E+00  9.03649E+00  1.14380E+01  1.38425E+01  1.62059E+01  1.85069E+01  2.07497E+01  2.29443E+01  2.50725E+01
   2.70760E+01  2.89004E+01  3.04891E+01  3.17783E+01  3.26970E+01  3.31875E+01  3.32167E+01  3.27608E+01  3.17999E+01  3.02913E+01
   2.81632E+01  2.53533E+01  2.17973E+01  1.74560E+01  1.23541E+01  6.57801E+00  2.47832E-01 -6.45226E+00 -1.32226E+01 -1.96690E+01
  -2.53898E+01 -3.00256E+01 -3.29488E+01 -3.39234E+01 -3.28819E+01 -3.00308E+01 -2.61821E+01 -2.24780E+01 -1.98358E+01 -1.86978E+01
  -1.91362E+01 -2.11612E+01 -2.47676E+01 -2.98729E+01 -3.62136E+01 -4.29106E+01 -4.87957E+01 -5.31853E+01 -5.57511E+01 -5.64714E+01
  -5.59462E+01 -5.49382E+01 -5.40283E+01 -5.38308E+01 -5.43939E+01 -5.54645E+01 -5.64462E+01 -5.68681E+01 -5.65683E+01 -5.55033E+01
  -5.36988E+01 -5.12627E+01 -4.83612E+01 -4.51638E+01 -4.18168E+01 -3.84393E+01 -3.50896E+01 -3.18029E+01 -2.85744E+01 -2.53517E+01
  -2.20612E+01 -1.86393E+01 -1.50348E+01 -1.11593E+01 -6.91521E+00 -2.23809E+00  2.93974E+00  8.68556E+00  1.50178E+01  2.18586E+01
   2.90076E+01  3.61252E+01  4.28021E+01  4.86188E+01  5.31711E+01  5.61130E+01  5.72344E+01  5.64212E+01  5.36461E+01  4.90275E+01
   4.28435E+01  3.54919E+01  2.74131E+01  1.90223E+01  1.06279E+01  2.42409E+00 -5.51148E+00 -1.31966E+01 -2.06667E+01 -2.78694E+01
  -3.46562E+01 -4.08600E+01 -4.63215E+01 -5.09206E+01 -5.46267E+01 -5.74996E+01 -5.96397E+01 -6.11800E+01 -6.22769E+01 -6.30780E+01
  -6.36605E+01 -6.40464E+01 -6.42722E+01 -6.43712E+01 -6.43573E+01 -6.42272E+01 -6.40033E+01 -6.37286E+01 -6.34375E+01 -6.31311E+01
  -6.27973E+01 -6.24347E+01 -6.20582E+01 -6.16743E+01 -6.12648E+01 -6.08306E+01 -6.04041E+01 -6.00047E+01 -5.96072E+01 -5.91825E+01
  -5.87330E+01 -5.82896E+01 -5.78571E+01 -5.74137E+01 -5.69533E+01 -5.64840E+01 -5.60043E+01 -5.55063E+01 -5.49967E+01 -5.44940E+01
  -5.40078E+01 -5.35371E+01 -5.30924E+01 -5.26789E+01 -5.22927E+01 -5.19268E+01 -5.15574E+01 -5.11647E+01 -5.07410E+01 -5.02955E+01
  -4.98332E+01 -4.93588E+01 -4.88746E+01 -4.83886E+01 -4.78993E+01 -4.74040E+01 -4.69223E+01 -4.64635E+01 -4.60290E+01 -4.56154E+01
  -4.52178E+01 -4.48266E+01 -4.44343E+01 -4.40373E+01 -4.36368E+01 -4.32321E+01 -4.28290E+01 -4.24270E+01 -4.20180E+01 -4.16135E+01
  -4.12506E+01 -4.09445E+01 -4.06946E+01 -4.04893E+01 -4.03140E+01 -4.01412E+01 -3.99406E+01 -3.96907E+01 -3.93789E+01 -3.89995E+01
 NY background values follow
    -4.720E+01   -4.743E+01   -4.765E+01   -4.788E+01   -4.811E+01   -4.833E+01   -4.856E+01   -4.879E+01   -4.902E+01   -4.924E+01
    -4.947E+01   -4.969E+01   -4.991E+01   -5.013E+01   -5.034E+01   -5.056E+01   -5.077E+01   -5.098E+01   -5.118E+01   -5.138E+01
    -5.158E+01   -5.177E+01   -5.196E+01   -5.214E+01   -5.232E+01   -5.249E+01   -5.266E+01   -5.282E+01   -5.297E+01   -5.312E+01
    -5.326E+01   -5.339E+01   -5.352E+01   -5.364E+01   -5.375E+01   -5.386E+01   -5.396E+01   -5.405E+01   -5.413E+01   -5.421E+01
    -5.429E+01   -5.435E+01   -5.441E+01   -5.446E+01   -5.451E+01   -5.455E+01   -5.458E+01   -5.461E+01   -5.463E+01   -5.465E+01
    -5.466E+01   -5.466E+01   -5.466E+01   -5.465E+01   -5.464E+01   -5.462E+01   -5.459E+01   -5.456E+01   -5.452E+01   -5.448E+01
    -5.443E+01   -5.438E+01   -5.432E+01   -5.425E+01   -5.419E+01   -5.411E+01   -5.403E+01   -5.395E+01   -5.387E+01   -5.378E+01
    -5.368E+01   -5.358E+01   -5.348E+01   -5.338E+01   -5.327E+01   -5.316E+01   -5.305E+01   -5.293E+01   -5.282E+01   -5.270E+01
    -5.257E+01   -5.245E+01   -5.233E+01   -5.220E+01   -5.207E+01   -5.194E+01   -5.181E+01   -5.168E+01   -5.155E+01   -5.142E+01
    -5.129E+01   -5.116E+01   -5.103E+01   -5.090E+01   -5.077E+01   -5.064E+01   -5.051E+01   -5.038E+01   -5.024E+01   -5.011E+01
    -4.998E+01   -4.984E+01   -4.971E+01   -4.957E+01   -4.944E+01   -4.930E+01   -4.916E+01   -4.902E+01   -4.888E+01   -4.874E+01
    -4.860E+01   -4.846E+01   -4.831E+01   -4.817E+01   -4.802E+01   -4.787E+01   -4.772E+01   -4.757E+01   -4.741E+01   -4.726E+01
    -4.710E+01   -4.694E+01   -4.678E+01   -4.661E+01   -4.645E+01   -4.628E+01   -4.611E+01   -4.594E+01   -4.577E+01   -4.559E+01
    -4.542E+01   -4.524E+01   -4.506E+01   -4.488E+01   -4.470E+01   -4.452E+01   -4.434E+01   -4.415E+01   -4.396E+01   -4.378E+01
    -4.359E+01   -4.340E+01   -4.321E+01   -4.301E+01   -4.282E+01   -4.263E+01   -4.243E+01   -4.223E+01   -4.204E+01   -4.184E+01
    -4.164E+01   -4.144E+01   -4.124E+01   -4.104E+01   -4.084E+01   -4.064E+01   -4.043E+01   -4.023E+01   -4.003E+01   -3.983E+01
    -3.962E+01   -3.942E+01   -3.922E+01   -3.902E+01   -3.881E+01   -3.861E+01   -3.841E+01   -3.821E+01   -3.801E+01   -3.781E+01
    -3.762E+01   -3.742E+01   -3.722E+01   -3.703E+01   -3.684E+01   -3.664E+01   -3.645E+01   -3.627E+01   -3.608E+01   -3.589E+01
    -3.571E+01   -3.553E+01   -3.535E+01   -3.517E+01   -3.499E+01   -3.481E+01   -3.464E+01   -3.447E+01   -3.430E+01   -3.413E+01
    -3.396E+01   -3.379E+01   -3.363E+01   -3.346E+01   -3.330E+01   -3.314E+01   -3.297E+01   -3.281E+01   -3.265E+01   -3.250E+01
    -3.234E+01   -3.218E+01   -3.203E+01   -3.187E+01   -3.172E+01   -3.156E+01   -3.141E+01   -3.126E+01   -3.110E+01   -3.095E+01
    -3.080E+01   -3.065E+01   -3.050E+01   -3.035E+01   -3.020E+01   -3.005E+01   -2.990E+01   -2.975E+01   -2.961E+01   -2.947E+01
    -2.932E+01   -2.918E+01   -2.905E+01   -2.891E+01   -2.878E+01   -2.864E+01   -2.852E+01   -2.839E+01   -2.827E+01   -2.814E+01
    -2.803E+01   -2.791E+01   -2.780E+01   -2.769E+01   -2.759E+01   -2.749E+01   -2.739E+01   -2.730E+01   -2.721E+01   -2.713E+01
    -2.705E+01   -2.697E+01   -2.690E+01   -2.684E+01   -2.677E+01   -2.672E+01   -2.666E+01   -2.662E+01   -2.657E+01   -2.653E+01
    -2.650E+01   -2.647E+01   -2.645E+01   -2.643E+01   -2.641E+01   -2.640E+01   -2.639E+01   -2.639E+01   -2.639E+01   -2.640E+01
    -2.641E+01   -2.643E+01   -2.645E+01   -2.648E+01   -2.651E+01   -2.654E+01   -2.659E+01   -2.663E+01   -2.668E+01   -2.674E+01
    -2.679E+01   -2.686E+01   -2.693E+01   -2.700E+01   -2.708E+01   -2.716E+01   -2.725E+01   -2.735E+01   -2.744E+01   -2.755E+01
    -2.766E+01   -2.777E+01   -2.789E+01   -2.801E+01   -2.813E+01   -2.827E+01   -2.840E+01   -2.854E+01   -2.869E+01   -2.884E+01
    -2.900E+01   -2.916E+01   -2.933E+01   -2.950E+01   -2.967E+01   -2.985E+01   -3.004E+01   -3.023E+01   -3.043E+01   -3.063E+01
    -3.083E+01   -3.104E+01   -3.126E+01   -3.148E+01   -3.170E+01   -3.193E+01   -3.217E+01   -3.240E+01   -3.265E+01   -3.289E+01
    -3.315E+01   -3.340E+01   -3.366E+01   -3.393E+01   -3.420E+01   -3.447E+01   -3.475E+01   -3.503E+01   -3.531E+01   -3.560E+01
    -3.589E+01   -3.619E+01   -3.649E+01   -3.679E+01   -3.710E+01   -3.741E+01   -3.772E+01   -3.804E+01   -3.836E+01   -3.868E+01
    -3.901E+01   -3.934E+01   -3.967E+01   -4.001E+01   -4.034E+01   -4.068E+01   -4.102E+01   -4.135E+01   -4.169E+01   -4.203E+01
    -4.237E+01   -4.270E+01   -4.304E+01   -4.337E+01   -4.369E+01   -4.402E+01   -4.434E+01   -4.466E+01   -4.497E+01   -4.528E+01
    -4.559E+01   -4.589E+01   -4.618E+01   -4.646E+01   -4.674E+01   -4.702E+01   -4.728E+01   -4.753E+01   -4.778E+01   -4.802E+01
    -4.825E+01   -4.847E+01   -4.868E+01   -4.888E+01   -4.907E+01   -4.925E+01   -4.942E+01   -4.958E+01   -4.973E+01   -4.987E+01
    -5.001E+01   -5.013E+01   -5.024E+01   -5.034E+01   -5.043E+01   -5.052E+01   -5.059E+01   -5.065E+01   -5.070E+01   -5.074E+01
    -5.077E+01   -5.079E+01   -5.081E+01   -5.081E+01   -5.080E+01   -5.078E+01   -5.074E+01   -5.070E+01   -5.065E+01   -5.059E+01
    -5.052E+01   -5.043E+01   -5.034E+01   -5.024E+01   -5.012E+01   -5.000E+01   -4.987E+01   -4.973E+01   -4.958E+01   -4.943E+01
    -4.926E+01   -4.909E+01   -4.891E+01   -4.872E+01   -4.853E+01   -4.833E+01   -4.812E+01   -4.791E+01   -4.769E+01   -4.747E+01
    -4.724E+01   -4.700E+01   -4.676E+01   -4.652E+01   -4.627E+01   -4.602E+01   -4.576E+01   -4.550E+01   -4.524E+01   -4.497E+01
    -4.471E+01   -4.444E+01   -4.416E+01   -4.389E+01   -4.361E+01   -4.333E+01   -4.305E+01   -4.276E+01   -4.248E+01   -4.219E+01
    -4.190E+01   -4.161E+01   -4.132E+01   -4.103E+01   -4.073E+01   -4.044E+01   -4.014E+01   -3.985E+01   -3.955E+01   -3.925E+01
    -3.895E+01   -3.865E+01   -3.836E+01   -3.806E+01   -3.776E+01   -3.746E+01   -3.716E+01   -3.686E+01   -3.656E+01   -3.626E+01
    -3.596E+01   -3.567E+01   -3.537E+01   -3.507E+01   -3.478E+01   -3.448E+01   -3.419E+01   -3.389E+01   -3.360E+01   -3.330E+01
    -3.301E+01   -3.272E+01   -3.242E+01   -3.213E+01   -3.184E+01   -3.155E+01   -3.125E+01   -3.096E+01   -3.067E+01   -3.038E+01
    -3.009E+01   -2.979E+01   -2.950E+01   -2.921E+01   -2.892E+01   -2.863E+01   -2.833E+01   -2.804E+01   -2.775E+01   -2.745E+01
 Mac      Conc. = 2.90E-04
  -6.67408E+01 -6.76054E+01 -6.85557E+01 -6.95910E+01 -7.07107E+01 -7.18970E+01 -7.31319E+01 -7.44460E+01 -7.58711E+01 -7.73654E+01
  -7.88600E+01 -8.02523E+01 -8.13814E+01 -8.21118E+01 -8.24198E+01 -8.23497E+01 -8.18901E+01 -8.09686E+01 -7.95421E+01 -7.76500E+01
  -7.54070E+01 -7.29648E+01 -7.04648E+01 -6.80284E+01 -6.58241E+01 -6.39462E+01 -6.23397E+01 -6.09164E+01 -5.96403E+01 -5.84994E+01
  -5.74565E+01 -5.64747E+01 -5.55475E+01 -5.46870E+01 -5.39190E+01 -5.32524E+01 -5.26226E+01 -5.19108E+01 -5.10384E+01 -5.00345E+01
  -4.90084E+01 -4.80756E+01 -4.72876E+01 -4.66550E+01 -4.62079E+01 -4.59775E+01 -4.59650E+01 -4.61544E+01 -4.65344E+01 -4.70988E+01
  -4.78197E+01 -4.86058E+01 -4.93037E+01 -4.97946E+01 -5.00203E+01 -4.99661E+01 -4.96299E+01 -4.90527E+01 -4.83241E+01 -4.75427E+01
  -4.68109E+01 -4.62032E+01 -4.57541E+01 -4.55020E+01 -4.54546E+01 -4.55064E+01 -4.55063E+01 -4.53615E+01 -4.50358E+01 -4.45075E+01
  -4.37517E+01 -4.27743E+01 -4.16554E+01 -4.05424E+01 -3.95689E+01 -3.88217E+01 -3.83241E+01 -3.80971E+01 -3.80988E+01 -3.82237E+01
  -3.83497E+01 -3.83876E+01 -3.82758E+01 -3.79888E+01 -3.75124E+01 -3.68587E+01 -3.60889E+01 -3.52671E+01 -3.44622E+01 -3.37586E+01
  -3.32491E+01 -3.29935E+01 -3.30180E+01 -3.33362E+01 -3.39464E+01 -3.48415E+01 -3.60166E+01 -3.75078E+01 -3.93392E+01 -4.15310E+01
  -4.41164E+01 -4.71146E+01 -5.04947E+01 -5.41588E+01 -5.79622E+01 -6.17632E+01 -6.54277E+01 -6.87641E+01 -7.15096E+01 -7.34052E+01
