 
 $NMID
 ID=''
 FMTDAT='(2E13.5)'
 TRAMP=   1.00000E+0
 VOLUME=   1.00000E+0
 $END
  -8.65183E+4   7.20988E+5
  -9.24041E+5   1.66575E+6
  -7.52159E+5   1.68760E+6
  -8.06650E+5   1.56114E+6
  -8.43886E+5   1.62411E+6
  -7.46208E+5   1.61888E+6
  -7.52024E+5   1.56622E+6
  -7.80231E+5   1.59625E+6
  -7.45805E+5   1.56777E+6
  -7.74553E+5   1.51410E+6
  -7.91861E+5   1.52111E+6
  -7.70770E+5   1.48980E+6
  -7.96896E+5   1.44971E+6
  -8.15166E+5   1.44672E+6
  -8.07491E+5   1.40724E+6
  -8.30490E+5   1.36935E+6
  -8.39220E+5   1.36926E+6
  -8.26204E+5   1.34200E+6
  -8.34154E+5   1.31408E+6
  -8.25592E+5   1.31527E+6
  -8.11912E+5   1.28908E+6
  -8.20875E+5   1.26151E+6
  -8.17814E+5   1.25316E+6
  -8.08989E+5   1.22722E+6
  -8.18141E+5   1.19789E+6
  -8.11790E+5   1.18324E+6
  -8.11306E+5   1.15492E+6
  -8.26931E+5   1.12475E+6
  -8.28840E+5   1.09996E+6
  -8.21515E+5   1.07276E+6
  -8.26589E+5   1.05245E+6
  -8.21349E+5   1.03595E+6
  -8.13651E+5   1.00989E+6
  -8.10823E+5   9.90951E+5
  -7.98503E+5   9.77305E+5
  -7.85376E+5   9.60033E+5
  -7.80130E+5   9.46115E+5
  -7.71107E+5   9.30949E+5
  -7.62209E+5   9.07196E+5
  -7.59479E+5   8.87871E+5
  -7.53251E+5   8.67473E+5
  -7.46859E+5   8.43024E+5
  -7.42295E+5   8.21895E+5
  -7.37073E+5   8.01413E+5
  -7.32469E+5   7.76865E+5
  -7.29517E+5   7.55515E+5
  -7.23690E+5   7.35996E+5
  -7.17691E+5   7.13821E+5
  -7.09011E+5   6.93757E+5
  -6.98881E+5   6.76807E+5
  -6.90522E+5   6.59529E+5
  -6.82754E+5   6.42315E+5
  -6.73005E+5   6.25232E+5
  -6.65043E+5   6.07956E+5
  -6.57742E+5   5.90220E+5
  -6.49023E+5   5.71859E+5
  -6.41551E+5   5.51785E+5
  -6.33863E+5   5.33309E+5
  -6.24921E+5   5.14762E+5
  -6.17145E+5   4.96998E+5
  -6.10184E+5   4.79621E+5
  -6.01703E+5   4.62626E+5
  -5.93964E+5   4.45573E+5
  -5.85961E+5   4.28841E+5
  -5.75809E+5   4.12352E+5
  -5.65707E+5   3.96539E+5
  -5.56511E+5   3.81836E+5
  -5.47049E+5   3.67320E+5
  -5.38283E+5   3.52768E+5
  -5.30680E+5   3.38190E+5
  -5.22036E+5   3.22675E+5
  -5.12350E+5   3.07791E+5
  -5.03411E+5   2.93928E+5
  -4.95756E+5   2.80217E+5
  -4.87513E+5   2.65843E+5
  -4.78407E+5   2.52367E+5
  -4.69238E+5   2.39997E+5
  -4.60794E+5   2.27334E+5
  -4.52541E+5   2.14777E+5
  -4.43250E+5   2.02985E+5
  -4.34551E+5   1.91409E+5
  -4.25785E+5   1.80069E+5
  -4.17337E+5   1.68948E+5
  -4.08522E+5   1.57224E+5
  -4.00122E+5   1.45787E+5
  -3.91612E+5   1.34843E+5
  -3.83191E+5   1.24000E+5
  -3.74709E+5   1.13315E+5
  -3.66111E+5   1.02750E+5
  -3.57551E+5   9.28236E+4
  -3.48943E+5   8.37958E+4
  -3.40668E+5   7.52754E+4
  -3.32636E+5   6.65914E+4
  -3.24417E+5   5.85434E+4
  -3.16170E+5   5.12182E+4
  -3.07916E+5   4.37212E+4
  -3.00609E+5   3.72740E+4
  -2.93062E+5   3.04309E+4
  -2.85536E+5   2.38799E+4
  -2.78032E+5   1.71861E+4
  -2.70443E+5   1.09716E+4
  -2.63660E+5   4.18093E+3
  -2.56433E+5  -2.26867E+3
  -2.48459E+5  -8.04056E+3
  -2.41208E+5  -1.36155E+4
  -2.34546E+5  -1.87985E+4
  -2.27851E+5  -2.41587E+4
  -2.21032E+5  -2.89034E+4
  -2.14109E+5  -3.32552E+4
  -2.07590E+5  -3.71811E+4
  -2.01306E+5  -4.14374E+4
  -1.95331E+5  -4.53372E+4
  -1.89471E+5  -4.89736E+4
  -1.83443E+5  -5.29212E+4
  -1.76941E+5  -5.63121E+4
  -1.70980E+5  -5.96160E+4
  -1.65164E+5  -6.26025E+4
  -1.59342E+5  -6.57459E+4
  -1.53408E+5  -6.80786E+4
  -1.48251E+5  -7.01921E+4
  -1.43084E+5  -7.26617E+4
  -1.37651E+5  -7.47661E+4
  -1.32451E+5  -7.68028E+4
  -1.27323E+5  -7.86027E+4
  -1.22306E+5  -8.03045E+4
  -1.17098E+5  -8.17853E+4
  -1.12280E+5  -8.31023E+4
  -1.07385E+5  -8.43985E+4
  -1.02574E+5  -8.57074E+4
  -9.80300E+4  -8.64963E+4
  -9.31903E+4  -8.78177E+4
  -8.82004E+4  -8.86116E+4
  -8.37063E+4  -8.89628E+4
  -7.93566E+4  -8.96655E+4
  -7.50112E+4  -8.99634E+4
  -7.10473E+4  -9.01573E+4
  -6.66409E+4  -9.00928E+4
  -6.30457E+4  -9.03012E+4
  -5.89594E+4  -9.06532E+4
  -5.52911E+4  -9.02012E+4
  -5.14504E+4  -8.99623E+4
  -4.78983E+4  -8.95668E+4
  -4.44359E+4  -8.92514E+4
  -4.08303E+4  -8.87546E+4
  -3.74260E+4  -8.85416E+4
  -3.38346E+4  -8.78095E+4
  -3.06096E+4  -8.73781E+4
  -2.74525E+4  -8.63092E+4
  -2.42695E+4  -8.58001E+4
  -2.13078E+4  -8.49287E+4
  -1.82352E+4  -8.42254E+4
  -1.54574E+4  -8.32190E+4
  -1.27183E+4  -8.22948E+4
  -1.02552E+4  -8.15821E+4
  -7.46876E+3  -8.05485E+4
  -5.24701E+3  -7.95768E+4
  -2.92936E+3  -7.84138E+4
  -7.49310E+2  -7.73746E+4
   1.36342E+3  -7.60233E+4
   3.26988E+3  -7.50891E+4
   5.48534E+3  -7.38063E+4
   7.49566E+3  -7.27621E+4
   9.22541E+3  -7.16929E+4
   1.13522E+4  -7.04812E+4
   1.31099E+4  -6.91737E+4
   1.44857E+4  -6.80457E+4
   1.62828E+4  -6.69448E+4
   1.79032E+4  -6.54511E+4
   1.92915E+4  -6.45144E+4
   2.07908E+4  -6.30769E+4
   2.21200E+4  -6.21312E+4
   2.32696E+4  -6.06967E+4
   2.44402E+4  -5.94460E+4
   2.56307E+4  -5.82610E+4
   2.66786E+4  -5.70857E+4
   2.78793E+4  -5.56978E+4
   2.87437E+4  -5.45172E+4
   2.98373E+4  -5.32927E+4
   3.05951E+4  -5.22583E+4
   3.15292E+4  -5.05323E+4
   3.22274E+4  -4.95824E+4
   3.31163E+4  -4.82802E+4
   3.39069E+4  -4.70799E+4
   3.45498E+4  -4.57124E+4
   3.52971E+4  -4.45269E+4
   3.58464E+4  -4.30691E+4
   3.62965E+4  -4.17772E+4
   3.66697E+4  -4.04569E+4
   3.73936E+4  -3.90556E+4
   3.78714E+4  -3.79441E+4
   3.85781E+4  -3.66340E+4
   3.90426E+4  -3.53514E+4
   3.92937E+4  -3.38448E+4
   3.96769E+4  -3.26761E+4
   4.01680E+4  -3.13755E+4
   4.05411E+4  -3.01885E+4
   4.08214E+4  -2.86575E+4
   4.09021E+4  -2.72929E+4
   4.12625E+4  -2.61068E+4
   4.12588E+4  -2.46771E+4
   4.14733E+4  -2.34882E+4
   4.14948E+4  -2.20188E+4
   4.16330E+4  -2.10818E+4
   4.15508E+4  -1.96320E+4
   4.15576E+4  -1.84889E+4
   4.16193E+4  -1.72308E+4
   4.16230E+4  -1.58747E+4
   4.14341E+4  -1.48895E+4
   4.13474E+4  -1.34622E+4
   4.13348E+4  -1.21600E+4
   4.09361E+4  -1.08722E+4
   4.06369E+4  -9.71933E+3
   4.04460E+4  -8.38294E+3
   4.05223E+4  -7.53660E+3
   4.01542E+4  -6.31852E+3
   3.97985E+4  -4.92861E+3
   3.94868E+4  -3.90812E+3
   3.92904E+4  -2.72374E+3
   3.88237E+4  -1.68741E+3
   3.86513E+4  -6.21076E+2
   3.81259E+4   5.81061E+2
   3.77655E+4   1.68764E+3
   3.75705E+4   2.65413E+3
   3.71829E+4   3.82033E+3
   3.64457E+4   4.70487E+3
   3.60930E+4   5.77733E+3
   3.56419E+4   6.59117E+3
   3.49270E+4   7.63286E+3
   3.47879E+4   8.76266E+3
   3.39761E+4   9.58205E+3
   3.34062E+4   1.04545E+4
   3.29885E+4   1.12831E+4
   3.23811E+4   1.22752E+4
   3.14848E+4   1.31583E+4
   3.10200E+4   1.34859E+4
   3.08034E+4   1.43981E+4
   2.96995E+4   1.53499E+4
   2.91811E+4   1.61153E+4
   2.86082E+4   1.67028E+4
   2.80677E+4   1.73603E+4
   2.74244E+4   1.80989E+4
   2.67205E+4   1.90006E+4
   2.60761E+4   1.93993E+4
   2.52492E+4   2.01591E+4
   2.44863E+4   2.07658E+4
   2.39227E+4   2.14342E+4
   2.35123E+4   2.18535E+4
   2.30875E+4   2.23744E+4
   2.21542E+4   2.29216E+4
   2.17787E+4   2.34569E+4
   2.11213E+4   2.38663E+4
   2.03888E+4   2.44401E+4
   1.96429E+4   2.50531E+4
   1.88778E+4   2.55793E+4
   1.86544E+4   2.56425E+4
   1.81450E+4   2.62178E+4
   1.76229E+4   2.67067E+4
   1.68666E+4   2.69572E+4
   1.59910E+4   2.75081E+4
   1.52165E+4   2.79455E+4
   1.46074E+4   2.80123E+4
   1.39484E+4   2.83302E+4
   1.35528E+4   2.86320E+4
   1.29196E+4   2.88182E+4
   1.24911E+4   2.90658E+4
   1.18091E+4   2.96429E+4
   1.10046E+4   2.99035E+4
   1.03858E+4   2.97489E+4
   9.68546E+3   2.99219E+4
   9.43834E+3   3.04632E+4
   8.60851E+3   3.05515E+4
   8.06702E+3   3.05646E+4
   7.69311E+3   3.05547E+4
   7.15960E+3   3.08236E+4
   6.14534E+3   3.07227E+4
   5.47943E+3   3.10895E+4
   5.03416E+3   3.10443E+4
   4.64340E+3   3.10234E+4
   3.98472E+3   3.10752E+4
   3.43841E+3   3.11415E+4
   3.04828E+3   3.13830E+4
   2.44654E+3   3.13415E+4
   1.70886E+3   3.13697E+4
   1.34110E+3   3.11600E+4
   4.62560E+2   3.11600E+4
   2.21400E+1   3.11738E+4
  -3.55869E+2   3.10854E+4
  -7.00282E+2   3.11855E+4
  -1.20979E+3   3.14930E+4
  -1.92901E+3   3.11966E+4
  -2.46789E+3   3.10040E+4
  -2.48505E+3   3.10370E+4
  -3.18984E+3   3.08823E+4
  -3.73754E+3   3.09056E+4
  -4.11802E+3   3.04124E+4
  -4.61190E+3   3.04826E+4
  -4.91884E+3   3.06334E+4
  -5.67174E+3   3.03639E+4
  -6.07588E+3   3.01062E+4
  -6.26385E+3   3.00946E+4
  -6.92942E+3   2.95267E+4
  -7.00052E+3   2.95776E+4
  -7.33492E+3   2.96460E+4
  -8.12436E+3   2.90250E+4
  -8.32429E+3   2.86847E+4
  -8.59730E+3   2.88588E+4
  -9.08250E+3   2.83994E+4
  -9.15245E+3   2.81283E+4
  -9.82574E+3   2.79484E+4
  -1.03860E+4   2.75561E+4
  -1.07103E+4   2.73889E+4
  -1.11517E+4   2.70691E+4
  -1.15239E+4   2.68234E+4
  -1.16551E+4   2.63742E+4
  -1.20754E+4   2.59865E+4
  -1.22143E+4   2.56469E+4
  -1.26545E+4   2.54400E+4
  -1.32791E+4   2.48656E+4
  -1.33554E+4   2.47823E+4
  -1.36412E+4   2.43895E+4
  -1.39347E+4   2.39922E+4
  -1.44698E+4   2.38111E+4
  -1.47229E+4   2.31211E+4
  -1.49257E+4   2.28145E+4
  -1.51291E+4   2.21194E+4
  -1.54179E+4   2.20842E+4
  -1.56542E+4   2.14909E+4
  -1.62026E+4   2.09924E+4
  -1.66256E+4   2.06178E+4
  -1.67162E+4   2.01417E+4
  -1.68371E+4   1.98325E+4
  -1.72002E+4   1.94571E+4
  -1.73429E+4   1.89898E+4
  -1.76064E+4   1.84330E+4
  -1.80303E+4   1.81609E+4
  -1.84431E+4   1.77739E+4
  -1.87303E+4   1.73602E+4
  -1.87411E+4   1.65380E+4
  -1.91258E+4   1.61078E+4
  -1.91345E+4   1.59453E+4
  -1.93965E+4   1.52169E+4
  -1.95455E+4   1.49046E+4
  -1.98986E+4   1.43393E+4
  -1.98840E+4   1.36886E+4
  -2.00729E+4   1.34538E+4
  -2.02571E+4   1.28389E+4
  -2.04841E+4   1.23415E+4
  -2.05375E+4   1.19751E+4
  -2.09761E+4   1.15216E+4
  -2.09103E+4   1.11936E+4
  -2.11935E+4   1.06024E+4
  -2.10739E+4   1.00552E+4
  -2.15025E+4   9.36626E+3
  -2.14702E+4   9.12866E+3
  -2.13425E+4   8.85065E+3
  -2.13101E+4   8.01757E+3
  -2.15919E+4   7.80791E+3
  -2.17148E+4   7.32678E+3
  -2.18169E+4   6.87746E+3
  -2.19373E+4   6.42025E+3
  -2.18853E+4   6.09191E+3
  -2.16325E+4   5.58486E+3
  -2.18437E+4   5.06944E+3
  -2.18548E+4   4.77091E+3
  -2.19594E+4   4.35455E+3
  -2.17825E+4   4.04690E+3
  -2.17315E+4   3.43856E+3
