 
 $NMID
 ID=''
 FMTDAT='(2E13.5)'
 TRAMP=   1.00000E+0
 VOLUME=   1.00000E+0
 $END
  -3.13217E+5   3.75693E+5
  -1.11627E+6   6.92399E+5
  -9.84939E+5   8.56244E+5
  -9.24920E+5   7.72426E+5
  -9.65435E+5   7.50114E+5
  -9.27350E+5   7.35896E+5
  -9.24530E+5   6.75934E+5
  -9.68251E+5   6.89774E+5
  -9.38421E+5   7.21695E+5
  -9.19283E+5   7.09865E+5
  -9.16606E+5   7.19867E+5
  -8.74086E+5   7.18668E+5
  -8.53713E+5   6.91681E+5
  -8.54749E+5   6.96975E+5
  -8.32065E+5   7.01767E+5
  -8.16493E+5   6.93146E+5
  -8.11515E+5   7.05290E+5
  -7.90604E+5   7.01909E+5
  -7.82078E+5   6.79622E+5
  -7.78187E+5   6.74951E+5
  -7.62501E+5   6.66032E+5
  -7.55473E+5   6.52049E+5
  -7.48744E+5   6.53499E+5
  -7.31880E+5   6.47879E+5
  -7.20477E+5   6.34225E+5
  -7.04120E+5   6.37689E+5
  -6.84123E+5   6.38089E+5
  -6.70982E+5   6.32610E+5
  -6.54865E+5   6.31328E+5
  -6.34223E+5   6.29134E+5
  -6.25335E+5   6.22446E+5
  -6.14703E+5   6.17822E+5
  -6.00387E+5   6.08635E+5
  -5.90513E+5   6.00459E+5
  -5.80092E+5   5.95228E+5
  -5.69055E+5   5.85609E+5
  -5.62882E+5   5.76495E+5
  -5.54084E+5   5.70105E+5
  -5.40050E+5   5.62044E+5
  -5.28280E+5   5.55954E+5
  -5.15208E+5   5.51850E+5
  -5.00720E+5   5.46242E+5
  -4.86579E+5   5.41255E+5
  -4.73167E+5   5.37545E+5
  -4.59052E+5   5.31675E+5
  -4.47498E+5   5.27458E+5
  -4.36960E+5   5.22155E+5
  -4.27224E+5   5.13274E+5
  -4.16703E+5   5.03558E+5
  -4.06661E+5   4.96126E+5
  -3.98033E+5   4.88106E+5
  -3.90315E+5   4.79656E+5
  -3.82028E+5   4.71795E+5
  -3.74176E+5   4.64102E+5
  -3.65553E+5   4.56226E+5
  -3.56585E+5   4.48660E+5
  -3.47054E+5   4.41171E+5
  -3.37711E+5   4.34142E+5
  -3.28689E+5   4.27071E+5
  -3.20538E+5   4.20342E+5
  -3.12794E+5   4.13629E+5
  -3.05710E+5   4.06795E+5
  -2.99160E+5   3.99438E+5
  -2.92815E+5   3.91298E+5
  -2.86174E+5   3.82541E+5
  -2.79423E+5   3.74150E+5
  -2.73242E+5   3.66114E+5
  -2.67545E+5   3.58147E+5
  -2.62237E+5   3.51609E+5
  -2.56844E+5   3.45106E+5
  -2.51830E+5   3.38183E+5
  -2.45905E+5   3.31678E+5
  -2.40065E+5   3.25284E+5
  -2.35571E+5   3.19135E+5
  -2.31414E+5   3.12381E+5
  -2.26500E+5   3.06174E+5
  -2.22706E+5   3.00039E+5
  -2.18946E+5   2.93997E+5
  -2.15165E+5   2.87549E+5
  -2.11742E+5   2.81196E+5
  -2.08679E+5   2.74982E+5
  -2.05501E+5   2.69569E+5
  -2.02507E+5   2.63991E+5
  -1.99423E+5   2.58766E+5
  -1.96518E+5   2.53487E+5
  -1.93002E+5   2.49031E+5
  -1.89777E+5   2.45032E+5
  -1.86932E+5   2.40848E+5
  -1.83943E+5   2.37282E+5
  -1.80613E+5   2.33362E+5
  -1.77700E+5   2.29518E+5
  -1.74823E+5   2.26209E+5
  -1.72314E+5   2.22505E+5
  -1.69460E+5   2.18497E+5
  -1.66924E+5   2.14569E+5
  -1.64078E+5   2.10835E+5
  -1.61915E+5   2.07655E+5
  -1.59682E+5   2.03962E+5
  -1.57294E+5   2.00948E+5
  -1.54746E+5   1.97926E+5
  -1.52398E+5   1.95010E+5
  -1.49992E+5   1.91977E+5
  -1.47511E+5   1.88739E+5
  -1.45123E+5   1.86137E+5
  -1.42533E+5   1.83959E+5
  -1.39914E+5   1.81490E+5
  -1.37573E+5   1.79306E+5
  -1.35340E+5   1.76497E+5
  -1.32980E+5   1.73838E+5
  -1.30195E+5   1.71217E+5
  -1.27986E+5   1.69014E+5
  -1.26082E+5   1.66471E+5
  -1.24570E+5   1.64075E+5
  -1.22552E+5   1.61197E+5
  -1.20579E+5   1.58612E+5
  -1.19197E+5   1.55844E+5
  -1.17696E+5   1.53556E+5
  -1.16029E+5   1.51056E+5
  -1.14109E+5   1.48456E+5
  -1.12316E+5   1.46075E+5
  -1.11050E+5   1.44090E+5
  -1.09508E+5   1.41908E+5
  -1.08455E+5   1.39883E+5
  -1.07568E+5   1.37250E+5
  -1.06343E+5   1.35014E+5
  -1.05341E+5   1.32799E+5
  -1.04191E+5   1.30783E+5
  -1.03408E+5   1.28420E+5
  -1.02869E+5   1.26125E+5
  -1.02321E+5   1.24036E+5
  -1.01931E+5   1.21914E+5
  -1.01613E+5   1.19478E+5
  -1.01018E+5   1.17404E+5
  -1.00501E+5   1.15353E+5
  -1.00194E+5   1.13363E+5
  -1.00136E+5   1.10953E+5
  -9.99329E+4   1.08973E+5
  -9.97089E+4   1.07003E+5
  -9.99872E+4   1.05254E+5
  -1.00107E+5   1.03096E+5
  -1.00113E+5   1.00761E+5
  -9.97954E+4   9.89500E+4
  -9.96184E+4   9.71243E+4
  -9.97050E+4   9.53765E+4
  -1.00202E+5   9.32842E+4
  -1.00565E+5   9.16398E+4
  -1.00166E+5   8.96412E+4
  -1.00427E+5   8.77119E+4
  -1.00553E+5   8.59627E+4
  -1.00611E+5   8.43630E+4
  -1.00593E+5   8.22900E+4
  -1.00782E+5   8.08481E+4
  -1.00811E+5   7.94036E+4
  -1.00773E+5   7.81211E+4
  -1.00744E+5   7.62099E+4
  -1.00847E+5   7.46823E+4
  -1.00551E+5   7.34986E+4
  -1.00587E+5   7.17080E+4
  -1.00653E+5   7.01607E+4
  -1.00585E+5   6.88989E+4
  -1.00601E+5   6.71413E+4
  -1.00271E+5   6.55010E+4
  -1.00241E+5   6.39422E+4
  -1.00051E+5   6.23580E+4
  -9.99855E+4   6.09409E+4
  -9.94174E+4   5.96168E+4
  -9.89948E+4   5.82701E+4
  -9.88147E+4   5.68271E+4
  -9.86249E+4   5.53121E+4
  -9.79746E+4   5.40130E+4
  -9.76227E+4   5.26099E+4
  -9.75656E+4   5.12910E+4
  -9.69249E+4   5.01515E+4
  -9.64358E+4   4.86229E+4
  -9.62239E+4   4.72957E+4
  -9.56840E+4   4.58141E+4
  -9.53947E+4   4.46436E+4
  -9.49229E+4   4.31113E+4
  -9.42435E+4   4.15013E+4
  -9.37267E+4   4.00895E+4
  -9.34322E+4   3.89089E+4
  -9.27304E+4   3.75969E+4
  -9.25366E+4   3.59456E+4
  -9.20740E+4   3.45934E+4
  -9.15750E+4   3.29591E+4
  -9.10252E+4   3.17609E+4
  -9.05495E+4   3.00271E+4
  -9.00272E+4   2.92779E+4
  -8.94459E+4   2.80676E+4
  -8.88883E+4   2.66559E+4
  -8.84779E+4   2.53969E+4
  -8.80528E+4   2.37785E+4
  -8.72326E+4   2.25801E+4
  -8.64140E+4   2.12499E+4
  -8.55855E+4   1.98389E+4
  -8.52938E+4   1.86700E+4
  -8.46316E+4   1.73248E+4
  -8.38346E+4   1.59334E+4
  -8.32455E+4   1.45252E+4
  -8.25557E+4   1.31552E+4
  -8.21330E+4   1.19964E+4
  -8.10497E+4   1.01765E+4
  -8.02749E+4   9.20601E+3
  -7.95686E+4   7.88783E+3
  -7.90467E+4   6.61431E+3
  -7.81284E+4   5.43650E+3
  -7.72371E+4   4.11497E+3
  -7.66907E+4   2.92450E+3
  -7.58420E+4   1.62503E+3
  -7.52350E+4   5.68914E+2
  -7.46247E+4  -6.20074E+2
  -7.35091E+4  -1.80946E+3
  -7.29203E+4  -3.06554E+3
  -7.23044E+4  -4.25213E+3
  -7.16554E+4  -5.50339E+3
  -7.06540E+4  -6.58951E+3
  -7.00408E+4  -7.42532E+3
  -6.93016E+4  -8.59380E+3
  -6.83842E+4  -9.48501E+3
  -6.77595E+4  -1.05378E+4
  -6.70593E+4  -1.13579E+4
  -6.62091E+4  -1.22217E+4
  -6.53672E+4  -1.29336E+4
  -6.47766E+4  -1.38422E+4
  -6.38789E+4  -1.48284E+4
  -6.31573E+4  -1.57098E+4
  -6.22902E+4  -1.63015E+4
  -6.16251E+4  -1.68230E+4
  -6.09025E+4  -1.76704E+4
  -6.01809E+4  -1.83028E+4
  -5.90737E+4  -1.89947E+4
  -5.83092E+4  -1.96214E+4
  -5.76012E+4  -2.02056E+4
  -5.68383E+4  -2.04925E+4
  -5.60170E+4  -2.11088E+4
  -5.55372E+4  -2.13146E+4
  -5.46016E+4  -2.17880E+4
  -5.39991E+4  -2.22036E+4
  -5.32016E+4  -2.29615E+4
  -5.19131E+4  -2.28543E+4
  -5.14001E+4  -2.32756E+4
  -5.08649E+4  -2.34869E+4
  -5.00465E+4  -2.39412E+4
  -4.91570E+4  -2.42328E+4
  -4.82658E+4  -2.44813E+4
  -4.76335E+4  -2.46710E+4
  -4.70671E+4  -2.47485E+4
  -4.60564E+4  -2.50588E+4
  -4.51425E+4  -2.51375E+4
  -4.45679E+4  -2.50313E+4
  -4.37498E+4  -2.52925E+4
  -4.31536E+4  -2.53593E+4
  -4.22604E+4  -2.56021E+4
  -4.11476E+4  -2.57095E+4
  -4.05075E+4  -2.57237E+4
  -3.99320E+4  -2.57510E+4
  -3.90395E+4  -2.57817E+4
  -3.82001E+4  -2.60467E+4
  -3.73786E+4  -2.61606E+4
  -3.66881E+4  -2.63362E+4
  -3.58008E+4  -2.60639E+4
  -3.50560E+4  -2.61497E+4
  -3.42942E+4  -2.62561E+4
  -3.34518E+4  -2.62302E+4
  -3.27155E+4  -2.62502E+4
  -3.20332E+4  -2.62300E+4
  -3.16649E+4  -2.65436E+4
  -3.05567E+4  -2.61935E+4
  -2.99028E+4  -2.63342E+4
  -2.91650E+4  -2.63393E+4
  -2.84727E+4  -2.64160E+4
  -2.78335E+4  -2.60695E+4
  -2.72879E+4  -2.61595E+4
  -2.65094E+4  -2.58446E+4
  -2.61581E+4  -2.61160E+4
  -2.52041E+4  -2.60940E+4
  -2.44210E+4  -2.57325E+4
  -2.41659E+4  -2.59420E+4
  -2.33889E+4  -2.56297E+4
  -2.28265E+4  -2.57116E+4
  -2.19318E+4  -2.52871E+4
  -2.17973E+4  -2.53706E+4
  -2.10418E+4  -2.52389E+4
  -2.07989E+4  -2.49958E+4
  -2.01747E+4  -2.48140E+4
  -1.94264E+4  -2.46683E+4
  -1.92593E+4  -2.46844E+4
  -1.86892E+4  -2.43136E+4
  -1.83179E+4  -2.41065E+4
  -1.80374E+4  -2.40768E+4
  -1.74498E+4  -2.39604E+4
  -1.69660E+4  -2.39176E+4
  -1.66205E+4  -2.33182E+4
  -1.60929E+4  -2.31546E+4
  -1.58949E+4  -2.32376E+4
  -1.54371E+4  -2.26616E+4
  -1.50790E+4  -2.26168E+4
  -1.46545E+4  -2.23769E+4
  -1.42845E+4  -2.20430E+4
  -1.42215E+4  -2.19975E+4
  -1.37429E+4  -2.15391E+4
  -1.34461E+4  -2.11663E+4
  -1.34655E+4  -2.11271E+4
  -1.30217E+4  -2.10540E+4
  -1.27080E+4  -2.06804E+4
  -1.21539E+4  -2.04025E+4
  -1.20976E+4  -2.02205E+4
  -1.19359E+4  -1.99204E+4
  -1.15596E+4  -1.98271E+4
  -1.11552E+4  -1.92987E+4
  -1.08972E+4  -1.90830E+4
  -1.07820E+4  -1.90153E+4
  -1.03570E+4  -1.87427E+4
  -1.02022E+4  -1.87661E+4
  -1.00748E+4  -1.83875E+4
  -9.73304E+3  -1.83722E+4
  -9.86487E+3  -1.80114E+4
  -9.38214E+3  -1.79145E+4
  -9.18201E+3  -1.75088E+4
  -8.69865E+3  -1.74281E+4
  -8.77146E+3  -1.73187E+4
  -8.58536E+3  -1.72309E+4
  -8.26537E+3  -1.69358E+4
  -8.14635E+3  -1.67199E+4
  -8.11999E+3  -1.63395E+4
  -7.77745E+3  -1.61999E+4
  -7.67206E+3  -1.61845E+4
  -7.58263E+3  -1.61045E+4
  -7.08583E+3  -1.56926E+4
  -7.12742E+3  -1.54588E+4
  -7.11136E+3  -1.53415E+4
  -6.84907E+3  -1.53106E+4
  -6.75497E+3  -1.49197E+4
  -6.68894E+3  -1.48590E+4
  -6.49310E+3  -1.47422E+4
  -6.18617E+3  -1.44285E+4
  -6.11189E+3  -1.42640E+4
  -6.22428E+3  -1.38731E+4
  -6.07542E+3  -1.40075E+4
  -6.03577E+3  -1.36251E+4
  -5.87967E+3  -1.36869E+4
  -5.50676E+3  -1.33305E+4
  -5.48454E+3  -1.34192E+4
  -5.51841E+3  -1.30770E+4
  -5.27539E+3  -1.29956E+4
  -5.22496E+3  -1.26381E+4
  -5.35325E+3  -1.23027E+4
  -4.86875E+3  -1.24249E+4
  -5.00501E+3  -1.22167E+4
  -4.77773E+3  -1.19991E+4
  -4.93211E+3  -1.17986E+4
  -4.92694E+3  -1.16568E+4
  -4.54467E+3  -1.12627E+4
  -4.78839E+3  -1.14352E+4
  -4.53397E+3  -1.11274E+4
  -4.61502E+3  -1.13554E+4
  -4.38968E+3  -1.10472E+4
  -4.33047E+3  -1.08277E+4
  -4.52726E+3  -1.06836E+4
  -4.27269E+3  -1.04903E+4
  -4.33147E+3  -1.04874E+4
  -4.42332E+3  -9.92263E+3
  -4.25655E+3  -9.99926E+3
  -4.32952E+3  -9.87160E+3
  -4.27603E+3  -9.84534E+3
  -4.23823E+3  -9.64571E+3
  -4.17685E+3  -9.12927E+3
