 LCModel (Version 6.3-1N) Copyright: S.W. Provencher.          Ref.: Magn. Reson. Med. 30:672-679 (1993).                
 Slice_N1@17_18  28-Feb-2025 11:40:30
 27 lines in following concentration table = NCONC+1
    Conc.  %SD /Cr+PCr  Metabolite                                         
 2.58E-04   4% 2.3E-04 Mac                                                 
    4.217  19%   3.723 Cr                                                  
    4.844  16%   4.277 PCr                                                 
    7.718  11%   6.814 Ins                                                 
   11.674   6%  10.307 NAA                                                 
    8.164  10%   7.208 Tau                                                 
    1.275  49%   1.126 PCho                                                
    0.579 108%   0.512 GPC                                                 
   10.124   9%   8.938 Glu                                                 
    2.801  25%   2.473 Gln                                                 
    0.000 999%   0.000 Ala                                                 
    2.403  45%   2.122 Asc                                                 
    2.116  44%   1.868 Asp                                                 
    1.058  46%   0.934 GABA                                                
    0.333 202%   0.294 Glc                                                 
    1.564  26%   1.381 GSH                                                 
    3.451  18%   3.047 Lac                                                 
    1.171  44%   1.034 NAAG                                                
    1.852  52%   1.636 PE                                                  
    1.855  14%   1.638 GPC+PCho                                            
   12.845   6%  11.341 NAA+NAAG                                            
   12.925   9%  11.411 Glu+Gln                                             
    9.061   7%   8.000 Cr+PCr                                              
   12.845   6%  11.341 NAA+NAAG                                            
    9.061   7%   8.000 Cr+PCr                                              
   12.925   9%  11.411 Glu+Gln                                             
   6 lines in following misc. output table
  FWHM = 0.016 ppm    S/N =   5                                            
  Data shift = 0.033 ppm                                                   
  Ph:-102 deg       0.0 deg/ppm                                            
  alphaB,S = 1.3E-01,   4.0E-01                                            
   19 spline knots.   Ns = 5(1)                                            
   2 inflections.     1 extrema                                            
  480 points on ppm-axis = NY
      4.100000     4.091866     4.083733     4.075600     4.067466     4.059333     4.051199     4.043066     4.034933     4.026799
      4.018666     4.010532     4.002399     3.994265     3.986132     3.977998     3.969864     3.961731     3.953597     3.945463
      3.937330     3.929196     3.921062     3.912929     3.904795     3.896662     3.888528     3.880394     3.872261     3.864127
      3.855993     3.847860     3.839726     3.831592     3.823459     3.815325     3.807191     3.799058     3.790924     3.782790
      3.774657     3.766523     3.758389     3.750256     3.742122     3.733989     3.725855     3.717721     3.709588     3.701454
      3.693320     3.685187     3.677053     3.668919     3.660786     3.652652     3.644518     3.636385     3.628251     3.620117
      3.611984     3.603850     3.595716     3.587583     3.579449     3.571316     3.563182     3.555048     3.546915     3.538781
      3.530647     3.522514     3.514380     3.506246     3.498113     3.489979     3.481845     3.473712     3.465578     3.457444
      3.449311     3.441177     3.433043     3.424910     3.416776     3.408643     3.400509     3.392375     3.384242     3.376108
      3.367974     3.359841     3.351707     3.343573     3.335440     3.327306     3.319172     3.311039     3.302905     3.294771
      3.286638     3.278504     3.270370     3.262237     3.254103     3.245970     3.237836     3.229702     3.221569     3.213435
      3.205301     3.197168     3.189034     3.180900     3.172767     3.164633     3.156499     3.148366     3.140232     3.132098
      3.123965     3.115831     3.107697     3.099564     3.091430     3.083297     3.075163     3.067029     3.058896     3.050762
      3.042628     3.034495     3.026361     3.018227     3.010094     3.001960     2.993826     2.985693     2.977559     2.969425
      2.961292     2.953158     2.945024     2.936891     2.928757     2.920624     2.912490     2.904356     2.896223     2.888089
      2.879955     2.871822     2.863688     2.855554     2.847421     2.839287     2.831153     2.823020     2.814886     2.806752
      2.798619     2.790485     2.782351     2.774218     2.766084     2.757951     2.749817     2.741683     2.733550     2.725416
      2.717282     2.709149     2.701015     2.692881     2.684748     2.676614     2.668480     2.660347     2.652213     2.644079
      2.635946     2.627812     2.619678     2.611545     2.603411     2.595278     2.587144     2.579010     2.570877     2.562743
      2.554609     2.546476     2.538342     2.530208     2.522075     2.513941     2.505807     2.497674     2.489540     2.481406
      2.473273     2.465139     2.457006     2.448872     2.440738     2.432605     2.424471     2.416337     2.408204     2.400070
      2.391936     2.383803     2.375669     2.367535     2.359402     2.351268     2.343134     2.335001     2.326867     2.318733
      2.310600     2.302466     2.294333     2.286199     2.278065     2.269932     2.261798     2.253664     2.245531     2.237397
      2.229263     2.221130     2.212996     2.204862     2.196729     2.188595     2.180461     2.172328     2.164194     2.156060
      2.147927     2.139793     2.131660     2.123526     2.115392     2.107259     2.099125     2.090991     2.082858     2.074724
      2.066590     2.058457     2.050323     2.042189     2.034056     2.025922     2.017788     2.009655     2.001521     1.993387
      1.985254     1.977120     1.968987     1.960853     1.952719     1.944586     1.936452     1.928318     1.920185     1.912051
      1.903917     1.895784     1.887650     1.879516     1.871383     1.863249     1.855115     1.846982     1.838848     1.830714
      1.822581     1.814447     1.806314     1.798180     1.790046     1.781913     1.773779     1.765645     1.757512     1.749378
      1.741244     1.733111     1.724977     1.716843     1.708710     1.700576     1.692442     1.684309     1.676175     1.668041
      1.659908     1.651774     1.643641     1.635507     1.627373     1.619240     1.611106     1.602972     1.594839     1.586705
      1.578571     1.570438     1.562304     1.554170     1.546037     1.537903     1.529769     1.521636     1.513502     1.505368
      1.497235     1.489101     1.480968     1.472834     1.464700     1.456567     1.448433     1.440299     1.432166     1.424032
      1.415898     1.407765     1.399631     1.391497     1.383364     1.375230     1.367096     1.358963     1.350829     1.342695
      1.334562     1.326428     1.318295     1.310161     1.302027     1.293894     1.285760     1.277626     1.269493     1.261359
      1.253225     1.245092     1.236958     1.228824     1.220691     1.212557     1.204423     1.196290     1.188156     1.180022
      1.171889     1.163755     1.155622     1.147488     1.139354     1.131221     1.123087     1.114953     1.106820     1.098686
      1.090552     1.082419     1.074285     1.066151     1.058018     1.049884     1.041750     1.033617     1.025483     1.017349
      1.009216     1.001082     0.992949     0.984815     0.976681     0.968548     0.960414     0.952280     0.944147     0.936013
      0.927879     0.919746     0.911612     0.903478     0.895345     0.887211     0.879077     0.870944     0.862810     0.854676
      0.846543     0.838409     0.830276     0.822142     0.814008     0.805875     0.797741     0.789607     0.781474     0.773340
      0.765206     0.757073     0.748939     0.740805     0.732672     0.724538     0.716404     0.708271     0.700137     0.692003
      0.683870     0.675736     0.667603     0.659469     0.651335     0.643202     0.635068     0.626934     0.618801     0.610667
      0.602533     0.594400     0.586266     0.578132     0.569999     0.561865     0.553731     0.545598     0.537464     0.529330
      0.521197     0.513063     0.504930     0.496796     0.488662     0.480529     0.472395     0.464261     0.456128     0.447994
      0.439861     0.431727     0.423593     0.415460     0.407326     0.399192     0.391059     0.382925     0.374792     0.366658
      0.358524     0.350391     0.342257     0.334124     0.325990     0.317856     0.309723     0.301589     0.293455     0.285322
      0.277188     0.269055     0.260921     0.252787     0.244654     0.236520     0.228386     0.220253     0.212119     0.203986
 NY phased data points follow
  -9.52747E+01 -1.04319E+02 -1.11051E+02 -1.06171E+02 -1.08094E+02 -1.01726E+02 -9.44269E+01 -9.49442E+01 -1.03439E+02 -1.12204E+02
  -1.14929E+02 -1.13793E+02 -1.20042E+02 -1.31643E+02 -1.36170E+02 -1.23552E+02 -1.10667E+02 -1.38974E+02 -1.49867E+02 -1.65499E+02
  -1.81842E+02 -1.16054E+02 -1.12412E+02 -1.00343E+02 -4.12035E+01 -5.84438E+01 -5.40875E+01 -5.17682E+01 -5.31575E+01 -4.49480E+01
  -5.04577E+01 -5.12204E+01 -5.74781E+01 -5.20550E+01 -6.16683E+01 -6.37538E+01 -5.89301E+01 -7.81698E+01 -9.51107E+01 -1.14876E+02
  -1.32770E+02 -1.11569E+02 -1.03737E+02 -1.02851E+02 -7.00227E+01 -5.21764E+01 -3.18460E+01 -9.86780E+00 -1.07796E+01 -2.19831E+01
  -8.87145E+00 -2.05210E+01 -3.09522E+01 -3.36371E+01 -5.76495E+01 -5.15123E+01 -7.44652E+01 -7.46507E+01 -9.91786E+01 -9.87488E+01
  -4.47683E+01 -6.99396E+01 -5.73532E+01 -2.90335E+01 -2.29652E+01 -2.61561E+01 -3.27103E+01 -2.57643E+01 -6.36968E+01 -1.09331E+02
  -8.28894E+01 -5.58546E+01 -6.78815E+01 -4.48522E+01 -2.02955E+01 -9.20909E+00 -1.53499E+01 -4.04106E+00 -3.60577E+00 -4.40277E+00
  -1.65103E+00 -3.32365E+01 -2.85178E+01 -5.74771E+01 -7.95028E+01 -6.74749E+01 -5.96629E+01 -4.12903E+01 -2.38287E+00  8.03688E+00
  -8.14879E+00  1.67602E+01  2.79567E+00  1.47531E+01  2.62441E+01  3.18638E+01  3.88481E+01  2.80890E+01  4.39169E+01  1.13764E+01
   1.33090E+01  1.59795E+01 -7.64640E+00 -2.28891E+01 -5.03250E+01 -7.04284E+01 -8.37635E+01 -8.77612E+01 -9.52733E+01 -1.28546E+02
  -2.09182E+02 -1.95508E+02 -1.42002E+02 -1.33310E+02 -1.11593E+02 -1.04042E+02 -8.54546E+01 -8.16486E+01 -7.32860E+01 -5.95075E+01
  -4.84445E+01 -4.47149E+01 -4.78384E+01 -2.78202E+01 -2.17211E+01 -9.16271E+00  4.37046E+00  2.66110E+01  4.65641E+01  6.68306E+01
   1.09789E+02  5.92254E+01 -6.00532E+01 -1.27585E+02 -1.40792E+02 -1.35645E+02 -1.27138E+02 -1.14646E+02 -1.15222E+02 -1.17868E+02
  -1.19801E+02 -1.11354E+02 -1.09994E+02 -1.15628E+02 -1.01880E+02 -1.04116E+02 -1.14698E+02 -1.20948E+02 -1.00936E+02 -9.87688E+01
  -1.03601E+02 -8.84076E+01 -9.89442E+01 -9.46485E+01 -9.17847E+01 -8.35910E+01 -8.74084E+01 -8.68123E+01 -8.08383E+01 -8.26657E+01
  -6.61354E+01 -7.77715E+01 -7.37291E+01 -6.76127E+01 -7.07127E+01 -7.56645E+01 -6.81098E+01 -6.52754E+01 -7.22850E+01 -5.59134E+01
  -5.43534E+01 -3.37376E+01 -1.87987E+01 -2.02582E+01 -4.47917E+01 -4.87440E+01 -2.79215E+01 -1.74741E+01 -2.51613E+01 -6.71609E+01
  -7.31446E+01 -9.49342E+01 -8.82573E+01 -8.75751E+01 -1.00527E+02 -8.51564E+01 -1.02218E+02 -8.55599E+01 -8.98991E+01 -9.00243E+01
  -7.35803E+01 -6.58097E+01 -6.62252E+01 -6.34622E+01 -4.78303E+01 -7.04374E+01 -6.24981E+01 -5.13341E+01 -4.97810E+01 -5.99044E+01
  -6.52491E+01 -3.39885E+01 -3.43258E+01 -4.56861E+01 -5.63858E+01 -5.88720E+01 -6.17922E+01 -7.94020E+01 -9.17862E+01 -9.63572E+01
  -8.05519E+01 -7.87909E+01 -8.92639E+01 -6.32230E+01 -4.50317E+01 -1.56487E+01  1.89040E+01  6.52637E+00  6.48319E+00 -1.71497E+01
  -4.48844E+01 -4.27802E+01 -5.12671E+01 -5.36186E+01 -4.94822E+01 -3.29356E+01 -3.42731E+01 -3.47494E+01 -3.26717E+01 -4.16945E+01
  -2.94870E+01 -3.92363E+01 -5.47859E+01 -5.53387E+01 -7.59128E+01 -9.08457E+01 -8.85473E+01 -1.02234E+02 -1.10840E+02 -9.65067E+01
  -9.39284E+01 -8.69764E+01 -7.42034E+01 -6.95157E+01 -5.91801E+01 -5.90434E+01 -7.35475E+01 -7.69016E+01 -7.18775E+01 -9.12518E+01
  -1.00052E+02 -1.02778E+02 -1.02616E+02 -1.01758E+02 -1.25437E+02 -1.61678E+02 -1.91719E+02 -3.58633E+00  1.76637E+02  1.27954E+02
   1.25416E+02  1.05418E+02  8.49329E+01  7.27430E+01  4.69934E+01  4.98322E+01  2.60876E+01  3.87234E+01  2.29705E+01  2.90650E+01
   4.35050E+01  3.22567E+01  4.33382E+01  2.91669E+01  3.16841E+01  2.66126E+01  2.32979E+01  2.21810E+01  1.48636E+01  1.85307E+01
   7.17334E+00  2.37822E+00  9.10580E+00  3.04552E+00 -2.41852E+00  3.29091E-01  1.19696E-01  4.08487E+00 -1.52185E+01 -1.46639E+01
  -5.92665E+00 -1.96572E+01 -2.48001E+01 -3.16913E+01 -3.71909E+01 -3.93043E+01 -2.94253E+01 -4.52650E+01 -4.81199E+01 -4.17755E+01
  -3.57856E+01 -1.72165E+01 -1.72610E+01 -5.72806E+00 -1.47987E+01 -2.87702E+00 -8.23316E+00 -1.33976E+01  1.10500E+01  1.88237E+00
   9.74711E+00  1.51324E+01  2.11393E+01  1.28844E+00  4.59386E+00  2.05502E+01  9.74430E+00  1.07732E+01  3.11015E+00  2.03707E+01
   4.60222E+00  4.43657E+00  7.61776E+00 -8.43406E+00 -2.45252E+00 -1.61086E+01 -6.39038E-01  7.32447E+00  7.69587E+00  1.21939E+01
   7.77101E+00  2.20858E+00  8.67370E+00  1.14873E+01  9.92379E+00  3.45138E+01  2.88751E+01  3.12121E+01  3.50854E+01  3.29044E+01
   2.39033E+01  1.04721E+00 -2.68636E+00 -1.35977E+01 -6.83048E+00  1.98452E+00  7.51640E+00 -1.09876E+00 -8.87519E+00 -2.03672E+00
  -9.45475E+00 -1.10840E+01 -1.82464E+01 -1.42402E+01 -4.14185E+00 -1.63028E+01 -2.31138E+01 -1.11228E+01 -1.56222E+01 -2.12408E+01
  -2.36076E+01 -2.66568E+01 -1.94130E+01 -1.35423E+01 -3.02746E+00 -9.63859E-01  1.11376E+01  4.57281E+00  8.14163E-01  1.88243E+01
   2.04823E+01  2.13981E+01  2.27368E+01  3.97156E+01  4.65931E+01  4.64540E+01  3.73892E+01  4.27784E+01  5.41844E+01  4.51117E+01
   6.80006E+01  7.76880E+01  8.12836E+01  8.76461E+01  8.34911E+01  8.79261E+01  9.48128E+01  1.09135E+02  1.09114E+02  1.04471E+02
   9.32292E+01  8.36542E+01  8.36903E+01  5.90750E+01  4.08529E+01  3.91011E+01  4.00896E+01  3.55576E+01  1.24656E+01  2.59233E+00
  -8.06828E+00 -1.62301E+01 -3.01141E+01 -4.74521E+01 -3.97074E+01 -4.74880E+01 -4.75142E+01 -3.99476E+01 -3.64177E+01 -3.76605E+01
  -4.57252E+01 -4.35857E+01 -4.10879E+01 -4.31498E+01 -4.82800E+01 -4.01805E+01 -4.85955E+01 -4.97130E+01 -4.56728E+01 -4.95969E+01
  -3.58799E+01 -3.47224E+01 -2.61025E+01 -3.93621E+01 -6.75431E+01 -4.33132E+01 -3.29204E+01 -5.00786E+01 -4.06033E+01 -4.45968E+01
  -3.79766E+01 -3.04650E+01 -3.86811E+01 -3.89401E+01 -4.33416E+01 -2.72632E+01 -3.70081E+01 -3.18035E+01 -2.40274E+01 -3.98355E+01
  -3.56580E+01 -3.85932E+01 -4.05550E+01 -4.52867E+01 -3.17242E+01 -2.88047E+01 -3.24502E+01 -3.70327E+01 -3.77081E+01 -2.84284E+01
  -2.93379E+01 -2.68331E+01 -3.64424E+01 -4.08578E+01 -5.07779E+01 -3.25108E+01 -2.95928E+01 -3.42316E+01 -2.00003E+01 -3.59460E+01
  -3.52390E+01 -3.30936E+01 -3.29464E+01 -4.05118E+01 -3.23078E+01 -3.53732E+01 -3.68879E+01 -2.84242E+01 -4.26805E+01 -2.86378E+01
  -2.71729E+01 -1.88424E+01 -2.32271E+01 -3.55995E+01 -2.42095E+01 -3.08306E+01 -3.48100E+01 -3.06530E+01 -3.03960E+01 -2.65827E+01
 NY points of the fit to the data follow
  -1.17283E+02 -1.21164E+02 -1.24841E+02 -1.31544E+02 -1.25571E+02 -1.01694E+02 -8.35256E+01 -8.79196E+01 -9.95682E+01 -1.08070E+02
  -1.15235E+02 -1.20410E+02 -1.21306E+02 -1.20437E+02 -1.21702E+02 -1.22203E+02 -1.23353E+02 -1.31743E+02 -1.39894E+02 -1.56302E+02
  -1.62429E+02 -1.14221E+02 -9.81987E+01 -1.02082E+02 -4.90108E+01 -3.55274E+01 -4.65257E+01 -3.92667E+01 -3.95392E+01 -4.07822E+01
  -4.24477E+01 -4.38685E+01 -4.51705E+01 -4.79959E+01 -5.18951E+01 -5.67558E+01 -6.05130E+01 -6.91191E+01 -8.28037E+01 -1.03552E+02
  -1.26387E+02 -1.18387E+02 -1.01314E+02 -9.11638E+01 -6.90667E+01 -4.93344E+01 -3.29081E+01 -2.88936E+01 -2.56492E+01 -2.45337E+01
  -2.84117E+01 -3.06198E+01 -3.56077E+01 -4.50720E+01 -5.61222E+01 -6.92522E+01 -7.58024E+01 -7.23866E+01 -8.63797E+01 -9.17750E+01
  -6.19515E+01 -5.81292E+01 -6.11522E+01 -3.17586E+01 -1.92833E+01 -1.98428E+01 -2.05313E+01 -3.55334E+01 -6.58196E+01 -9.40773E+01
  -8.15387E+01 -6.11626E+01 -6.49646E+01 -4.90745E+01 -2.30539E+01 -1.40091E+01 -8.51871E+00 -3.46487E+00 -2.82022E+00 -1.87526E+00
  -9.07461E+00 -2.82632E+01 -4.69651E+01 -7.35038E+01 -8.69238E+01 -7.74217E+01 -6.76707E+01 -4.26319E+01 -2.41026E+01 -1.68345E+01
  -8.50252E+00 -3.83094E+00  5.17047E-01  5.20043E+00  9.43450E+00  1.40065E+01  1.75150E+01  2.06474E+01  1.99453E+01  1.51862E+01
   2.04396E+01  2.31726E+01 -7.86319E-01 -1.98246E+01 -3.37020E+01 -7.05307E+01 -7.76142E+01 -6.94122E+01 -8.35465E+01 -1.26182E+02
  -2.05632E+02 -1.95331E+02 -1.43475E+02 -1.29237E+02 -1.04314E+02 -8.96071E+01 -8.13636E+01 -7.38212E+01 -6.65447E+01 -5.99118E+01
  -5.27199E+01 -4.51477E+01 -3.65547E+01 -2.69569E+01 -1.55529E+01 -1.37035E+00  1.28877E+01  2.68518E+01  4.62605E+01  6.74021E+01
   8.93403E+01  6.22360E+01 -6.43514E+01 -1.57015E+02 -1.46756E+02 -1.37473E+02 -1.31947E+02 -1.17073E+02 -1.12006E+02 -1.13292E+02
  -1.11119E+02 -1.10677E+02 -1.12155E+02 -1.10815E+02 -1.10630E+02 -1.09498E+02 -1.05632E+02 -1.02591E+02 -9.90097E+01 -9.64544E+01
  -9.40393E+01 -9.17876E+01 -9.02154E+01 -8.76965E+01 -8.44371E+01 -8.13496E+01 -7.96932E+01 -7.99648E+01 -7.99261E+01 -7.82670E+01
  -7.53087E+01 -7.24183E+01 -7.32919E+01 -7.71496E+01 -7.80790E+01 -7.61581E+01 -7.43053E+01 -7.44688E+01 -7.51252E+01 -7.11397E+01
  -5.97390E+01 -4.14950E+01 -3.09139E+01 -4.05918E+01 -5.39772E+01 -4.72879E+01 -3.06816E+01 -2.69561E+01 -4.06259E+01 -6.26117E+01
  -7.29164E+01 -7.62858E+01 -8.23668E+01 -8.26573E+01 -8.27056E+01 -8.23490E+01 -8.11844E+01 -8.08267E+01 -7.88549E+01 -7.75501E+01
  -7.64983E+01 -7.21756E+01 -7.23975E+01 -6.50571E+01 -4.51168E+01 -4.97879E+01 -5.74656E+01 -4.21576E+01 -4.04266E+01 -4.16467E+01
  -4.51566E+01 -4.99906E+01 -3.85903E+01 -4.14722E+01 -5.26191E+01 -5.82486E+01 -6.48307E+01 -7.20217E+01 -7.98010E+01 -8.49582E+01
  -8.66746E+01 -8.99394E+01 -8.50813E+01 -6.42620E+01 -4.93772E+01 -1.69245E+01  8.96577E+00 -8.23836E-02  9.63280E+00 -1.80158E+00
  -2.52535E+01 -2.29866E+01 -2.59929E+01 -2.37255E+01 -1.92964E+01 -2.21802E+01 -2.60168E+01 -3.32043E+01 -4.45319E+01 -5.44205E+01
  -6.53380E+01 -7.56883E+01 -8.54542E+01 -9.34552E+01 -1.02053E+02 -1.08885E+02 -1.09519E+02 -1.11666E+02 -1.08890E+02 -9.98665E+01
  -9.86787E+01 -9.22461E+01 -8.20424E+01 -7.96530E+01 -7.08726E+01 -6.87927E+01 -7.20972E+01 -7.04148E+01 -8.04738E+01 -8.35387E+01
  -8.69413E+01 -1.00205E+02 -9.84271E+01 -1.11725E+02 -1.27204E+02 -1.74742E+02 -2.04254E+02 -1.19294E+01  1.36583E+02  1.01529E+02
   1.04521E+02  8.54452E+01  6.15669E+01  5.19574E+01  4.69821E+01  4.24656E+01  3.74950E+01  3.33555E+01  2.98445E+01  2.60572E+01
   2.54135E+01  2.49728E+01  2.41858E+01  2.64376E+01  2.60509E+01  2.60140E+01  2.62289E+01  2.47743E+01  2.42897E+01  2.24123E+01
   2.02436E+01  1.81027E+01  1.61906E+01  1.46293E+01  1.23176E+01  1.00004E+01  8.18948E+00  5.68878E+00  3.03883E+00  3.49021E-02
  -3.89852E+00 -7.03023E+00 -1.03896E+01 -1.36793E+01 -1.53599E+01 -1.54863E+01 -1.39863E+01 -1.13937E+01 -8.61333E+00 -6.20459E+00
  -3.43808E+00 -3.29772E-01  2.45070E+00  4.89010E+00  7.35676E+00  9.59442E+00  1.17875E+01  1.44352E+01  1.77093E+01  2.03611E+01
   2.24328E+01  2.43391E+01  2.60454E+01  2.79565E+01  2.93529E+01  2.99444E+01  3.03825E+01  3.02413E+01  2.86522E+01  2.67856E+01
   2.54632E+01  2.31428E+01  2.00371E+01  1.71356E+01  1.35742E+01  9.35890E+00  3.23485E+00 -5.18548E+00 -1.31584E+01 -1.98978E+01
  -2.53408E+01 -2.89385E+01 -2.96792E+01 -2.76825E+01 -2.26696E+01 -1.55644E+01 -8.44882E+00 -4.01865E-02  6.64918E+00  1.22780E+01
   1.11176E+01 -9.33781E+00 -2.42219E+01 -3.18434E+01 -4.27634E+01 -3.12509E+01 -1.82220E+01 -1.45159E+01 -9.11165E+00 -7.28662E+00
  -8.09610E+00 -9.81270E+00 -1.23670E+01 -1.64704E+01 -1.99389E+01 -2.15514E+01 -2.19084E+01 -2.10015E+01 -1.86904E+01 -1.58255E+01
  -1.23657E+01 -8.53114E+00 -4.66378E+00 -6.04768E-01  2.62964E+00  5.63536E+00  8.78388E+00  1.13616E+01  1.45630E+01  1.76328E+01
   2.04518E+01  2.33059E+01  2.65256E+01  3.01348E+01  3.39474E+01  3.86279E+01  4.32978E+01  4.84044E+01  5.49025E+01  6.13228E+01
   6.74457E+01  7.41881E+01  8.19335E+01  8.87868E+01  9.43293E+01  9.76125E+01  9.72651E+01  9.26006E+01  8.32172E+01  7.15755E+01
   6.05553E+01  5.14180E+01  4.42034E+01  3.77196E+01  3.27572E+01  2.69495E+01  1.90056E+01  1.01835E+01  1.75592E+00 -6.51744E+00
  -1.38944E+01 -1.85378E+01 -2.19777E+01 -2.51104E+01 -2.71119E+01 -2.81816E+01 -2.91197E+01 -3.00653E+01 -3.12499E+01 -3.21169E+01
  -3.29533E+01 -3.31455E+01 -3.32062E+01 -3.35343E+01 -3.39775E+01 -3.38081E+01 -3.36149E+01 -3.41681E+01 -3.48405E+01 -3.45851E+01
  -3.38720E+01 -3.44456E+01 -3.48403E+01 -3.45940E+01 -3.46144E+01 -3.48309E+01 -3.51372E+01 -3.50601E+01 -3.46897E+01 -3.42657E+01
  -3.43671E+01 -3.47343E+01 -3.49967E+01 -3.51969E+01 -3.53814E+01 -3.49547E+01 -3.46338E+01 -3.47310E+01 -3.43780E+01 -3.44350E+01
  -3.44694E+01 -3.42747E+01 -3.42136E+01 -3.45435E+01 -3.47751E+01 -3.50043E+01 -3.49143E+01 -3.43278E+01 -3.45073E+01 -3.43257E+01
  -3.41458E+01 -3.46853E+01 -3.46214E+01 -3.40764E+01 -3.39368E+01 -3.38192E+01 -3.35971E+01 -3.36258E+01 -3.35628E+01 -3.33152E+01
  -3.32040E+01 -3.34324E+01 -3.37658E+01 -3.36169E+01 -3.38128E+01 -3.36183E+01 -3.32596E+01 -3.25227E+01 -3.18974E+01 -3.19761E+01
  -3.24230E+01 -3.28914E+01 -3.30462E+01 -3.27599E+01 -3.24705E+01 -3.23768E+01 -3.22784E+01 -3.19192E+01 -3.22567E+01 -3.24300E+01
 NY background values follow
    -8.726E+01   -8.683E+01   -8.639E+01   -8.596E+01   -8.552E+01   -8.509E+01   -8.465E+01   -8.421E+01   -8.377E+01   -8.333E+01
    -8.288E+01   -8.244E+01   -8.199E+01   -8.154E+01   -8.109E+01   -8.064E+01   -8.019E+01   -7.973E+01   -7.927E+01   -7.881E+01
    -7.834E+01   -7.787E+01   -7.740E+01   -7.693E+01   -7.646E+01   -7.598E+01   -7.549E+01   -7.501E+01   -7.452E+01   -7.403E+01
    -7.353E+01   -7.303E+01   -7.253E+01   -7.202E+01   -7.151E+01   -7.100E+01   -7.049E+01   -6.997E+01   -6.945E+01   -6.893E+01
    -6.841E+01   -6.789E+01   -6.737E+01   -6.685E+01   -6.633E+01   -6.581E+01   -6.529E+01   -6.477E+01   -6.425E+01   -6.373E+01
    -6.322E+01   -6.271E+01   -6.220E+01   -6.169E+01   -6.119E+01   -6.069E+01   -6.019E+01   -5.970E+01   -5.921E+01   -5.873E+01
    -5.825E+01   -5.777E+01   -5.730E+01   -5.684E+01   -5.638E+01   -5.593E+01   -5.548E+01   -5.504E+01   -5.461E+01   -5.418E+01
    -5.376E+01   -5.334E+01   -5.294E+01   -5.253E+01   -5.214E+01   -5.175E+01   -5.137E+01   -5.100E+01   -5.063E+01   -5.027E+01
    -4.992E+01   -4.958E+01   -4.925E+01   -4.892E+01   -4.860E+01   -4.829E+01   -4.799E+01   -4.770E+01   -4.742E+01   -4.714E+01
    -4.688E+01   -4.662E+01   -4.638E+01   -4.614E+01   -4.591E+01   -4.569E+01   -4.548E+01   -4.527E+01   -4.507E+01   -4.488E+01
    -4.470E+01   -4.453E+01   -4.436E+01   -4.419E+01   -4.404E+01   -4.389E+01   -4.374E+01   -4.360E+01   -4.347E+01   -4.334E+01
    -4.321E+01   -4.309E+01   -4.298E+01   -4.287E+01   -4.276E+01   -4.266E+01   -4.256E+01   -4.246E+01   -4.236E+01   -4.227E+01
    -4.218E+01   -4.210E+01   -4.201E+01   -4.193E+01   -4.185E+01   -4.177E+01   -4.169E+01   -4.162E+01   -4.155E+01   -4.148E+01
    -4.141E+01   -4.134E+01   -4.128E+01   -4.122E+01   -4.116E+01   -4.110E+01   -4.104E+01   -4.098E+01   -4.093E+01   -4.088E+01
    -4.083E+01   -4.078E+01   -4.073E+01   -4.069E+01   -4.064E+01   -4.060E+01   -4.056E+01   -4.052E+01   -4.048E+01   -4.044E+01
    -4.041E+01   -4.037E+01   -4.034E+01   -4.031E+01   -4.028E+01   -4.025E+01   -4.022E+01   -4.019E+01   -4.016E+01   -4.014E+01
    -4.011E+01   -4.009E+01   -4.006E+01   -4.004E+01   -4.001E+01   -3.999E+01   -3.996E+01   -3.994E+01   -3.992E+01   -3.989E+01
    -3.987E+01   -3.985E+01   -3.982E+01   -3.980E+01   -3.977E+01   -3.975E+01   -3.972E+01   -3.970E+01   -3.967E+01   -3.964E+01
    -3.961E+01   -3.958E+01   -3.955E+01   -3.952E+01   -3.949E+01   -3.946E+01   -3.942E+01   -3.939E+01   -3.935E+01   -3.932E+01
    -3.928E+01   -3.924E+01   -3.920E+01   -3.916E+01   -3.912E+01   -3.907E+01   -3.903E+01   -3.898E+01   -3.893E+01   -3.888E+01
    -3.883E+01   -3.878E+01   -3.873E+01   -3.867E+01   -3.861E+01   -3.856E+01   -3.850E+01   -3.844E+01   -3.837E+01   -3.831E+01
    -3.824E+01   -3.817E+01   -3.810E+01   -3.804E+01   -3.796E+01   -3.789E+01   -3.782E+01   -3.775E+01   -3.768E+01   -3.762E+01
    -3.755E+01   -3.749E+01   -3.742E+01   -3.736E+01   -3.731E+01   -3.725E+01   -3.720E+01   -3.716E+01   -3.711E+01   -3.707E+01
    -3.704E+01   -3.701E+01   -3.699E+01   -3.698E+01   -3.697E+01   -3.696E+01   -3.697E+01   -3.698E+01   -3.700E+01   -3.702E+01
    -3.706E+01   -3.710E+01   -3.715E+01   -3.721E+01   -3.727E+01   -3.734E+01   -3.742E+01   -3.751E+01   -3.760E+01   -3.769E+01
    -3.779E+01   -3.790E+01   -3.801E+01   -3.812E+01   -3.824E+01   -3.836E+01   -3.848E+01   -3.861E+01   -3.874E+01   -3.887E+01
    -3.900E+01   -3.913E+01   -3.926E+01   -3.939E+01   -3.953E+01   -3.966E+01   -3.979E+01   -3.992E+01   -4.005E+01   -4.017E+01
    -4.030E+01   -4.042E+01   -4.054E+01   -4.065E+01   -4.076E+01   -4.086E+01   -4.096E+01   -4.105E+01   -4.113E+01   -4.121E+01
    -4.127E+01   -4.133E+01   -4.137E+01   -4.140E+01   -4.142E+01   -4.143E+01   -4.143E+01   -4.141E+01   -4.137E+01   -4.132E+01
    -4.126E+01   -4.117E+01   -4.107E+01   -4.095E+01   -4.081E+01   -4.066E+01   -4.048E+01   -4.028E+01   -4.006E+01   -3.981E+01
    -3.954E+01   -3.925E+01   -3.894E+01   -3.861E+01   -3.825E+01   -3.788E+01   -3.749E+01   -3.708E+01   -3.666E+01   -3.622E+01
    -3.577E+01   -3.531E+01   -3.483E+01   -3.434E+01   -3.385E+01   -3.334E+01   -3.283E+01   -3.231E+01   -3.178E+01   -3.125E+01
    -3.072E+01   -3.018E+01   -2.964E+01   -2.910E+01   -2.856E+01   -2.803E+01   -2.749E+01   -2.696E+01   -2.643E+01   -2.591E+01
    -2.540E+01   -2.489E+01   -2.439E+01   -2.389E+01   -2.341E+01   -2.293E+01   -2.246E+01   -2.200E+01   -2.154E+01   -2.110E+01
    -2.066E+01   -2.024E+01   -1.982E+01   -1.941E+01   -1.902E+01   -1.863E+01   -1.825E+01   -1.789E+01   -1.753E+01   -1.719E+01
    -1.686E+01   -1.654E+01   -1.623E+01   -1.593E+01   -1.564E+01   -1.537E+01   -1.511E+01   -1.486E+01   -1.463E+01   -1.441E+01
    -1.420E+01   -1.401E+01   -1.383E+01   -1.366E+01   -1.351E+01   -1.337E+01   -1.324E+01   -1.312E+01   -1.302E+01   -1.293E+01
    -1.286E+01   -1.279E+01   -1.274E+01   -1.270E+01   -1.267E+01   -1.266E+01   -1.265E+01   -1.266E+01   -1.268E+01   -1.271E+01
    -1.275E+01   -1.280E+01   -1.287E+01   -1.294E+01   -1.303E+01   -1.313E+01   -1.324E+01   -1.335E+01   -1.348E+01   -1.362E+01
    -1.377E+01   -1.393E+01   -1.410E+01   -1.427E+01   -1.446E+01   -1.465E+01   -1.485E+01   -1.506E+01   -1.528E+01   -1.550E+01
    -1.572E+01   -1.595E+01   -1.619E+01   -1.643E+01   -1.667E+01   -1.692E+01   -1.717E+01   -1.742E+01   -1.768E+01   -1.793E+01
    -1.819E+01   -1.845E+01   -1.870E+01   -1.896E+01   -1.922E+01   -1.947E+01   -1.972E+01   -1.998E+01   -2.022E+01   -2.047E+01
    -2.071E+01   -2.095E+01   -2.118E+01   -2.141E+01   -2.164E+01   -2.186E+01   -2.208E+01   -2.229E+01   -2.251E+01   -2.272E+01
    -2.292E+01   -2.312E+01   -2.332E+01   -2.352E+01   -2.371E+01   -2.391E+01   -2.409E+01   -2.428E+01   -2.446E+01   -2.464E+01
    -2.481E+01   -2.499E+01   -2.516E+01   -2.532E+01   -2.549E+01   -2.565E+01   -2.581E+01   -2.597E+01   -2.612E+01   -2.628E+01
    -2.643E+01   -2.657E+01   -2.672E+01   -2.686E+01   -2.701E+01   -2.715E+01   -2.728E+01   -2.742E+01   -2.755E+01   -2.769E+01
    -2.782E+01   -2.795E+01   -2.808E+01   -2.821E+01   -2.833E+01   -2.846E+01   -2.858E+01   -2.871E+01   -2.883E+01   -2.895E+01
    -2.908E+01   -2.920E+01   -2.932E+01   -2.944E+01   -2.956E+01   -2.968E+01   -2.980E+01   -2.992E+01   -3.004E+01   -3.016E+01
 Mac      Conc. = 2.58E-04
  -1.06225E+02 -1.05924E+02 -1.05775E+02 -1.05624E+02 -1.05760E+02 -1.06495E+02 -1.07963E+02 -1.09372E+02 -1.10485E+02 -1.10919E+02
  -1.10620E+02 -1.10140E+02 -1.09730E+02 -1.09621E+02 -1.10713E+02 -1.12352E+02 -1.12619E+02 -1.09187E+02 -1.02498E+02 -9.82671E+01
  -9.52607E+01 -9.05860E+01 -8.79414E+01 -8.69882E+01 -8.59671E+01 -8.43765E+01 -8.25281E+01 -8.04166E+01 -7.76925E+01 -7.56056E+01
  -7.43397E+01 -7.29601E+01 -7.16984E+01 -7.13100E+01 -7.14781E+01 -7.13771E+01 -6.98340E+01 -6.66660E+01 -6.34092E+01 -6.17833E+01
  -6.20752E+01 -6.20574E+01 -6.08961E+01 -5.92495E+01 -5.71120E+01 -5.58790E+01 -5.56914E+01 -5.58658E+01 -5.65887E+01 -5.74952E+01
  -5.84191E+01 -5.86943E+01 -5.88716E+01 -5.88325E+01 -5.83000E+01 -5.78725E+01 -5.67397E+01 -5.46408E+01 -5.26856E+01 -5.15461E+01
  -4.96759E+01 -4.75948E+01 -4.74998E+01 -4.78527E+01 -4.83339E+01 -4.90914E+01 -4.88965E+01 -4.86448E+01 -4.86613E+01 -4.82509E+01
  -4.60498E+01 -4.21438E+01 -3.96016E+01 -3.82120E+01 -3.70660E+01 -3.71579E+01 -3.74468E+01 -3.80063E+01 -3.88039E+01 -3.86082E+01
  -3.86403E+01 -3.86450E+01 -3.82842E+01 -3.71875E+01 -3.58252E+01 -3.50076E+01 -3.39331E+01 -3.27001E+01 -3.20567E+01 -3.15012E+01
  -3.08050E+01 -3.03555E+01 -3.02196E+01 -3.02015E+01 -3.09153E+01 -3.28603E+01 -3.51671E+01 -3.73235E+01 -3.96642E+01 -4.12425E+01
  -4.23335E+01 -4.42593E+01 -4.70671E+01 -5.00487E+01 -5.43610E+01 -6.02059E+01 -6.70097E+01 -7.22847E+01 -7.39904E+01 -7.30829E+01
