 
 $NMID
 ID=''
 FMTDAT='(2E13.5)'
 TRAMP=   1.00000E+0
 VOLUME=   1.00000E+0
 $END
  -1.37742E+4   1.52898E+4
   1.31834E+3   1.22234E+4
   9.87272E+3  -1.10346E+3
   5.97497E+3  -6.98826E+3
  -3.81199E+3  -4.04930E+3
  -5.14344E+3  -1.14284E+3
   2.17940E+2   9.00191E+2
   3.98307E+3   2.09850E+3
   3.15523E+3   1.38654E+3
  -7.26896E+2  -3.93927E+1
  -2.82778E+3  -4.20463E+2
   2.44495E+2  -1.41368E+2
   9.36041E+2   1.10501E+3
  -2.51607E+3   1.13932E+3
  -1.89530E+3  -1.94752E+3
   2.81668E+3  -1.94495E+3
   1.81472E+3   1.19728E+3
  -1.94748E+3   1.73694E+3
  -9.31117E+2  -1.17916E+3
   1.43477E+3  -1.18516E+2
   9.84581E+2   1.53336E+3
   1.88941E+2   2.72451E+2
   5.85825E+2  -3.06056E+2
  -5.31691E+2   1.65777E+2
  -8.55421E+2   1.24981E+2
   5.36109E+2   7.25834E+1
   1.11085E+3   1.20438E+3
  -6.27664E+2   3.33620E+2
  -4.17375E+2  -1.17695E+3
   3.02239E+1  -6.93277E+2
  -6.40871E+1   4.86577E+2
  -1.21072E+2   6.84884E+2
  -5.04495E+2   2.87777E+2
  -7.68369E+2  -7.95503E+2
   9.29852E+2  -1.42845E+3
   1.79495E+3   1.51099E+2
  -2.89920E+2   1.28195E+3
  -1.64240E+3   1.21472E+1
  -1.41769E+2  -7.39424E+2
   4.07435E+2   1.28636E+2
  -6.04901E+2   2.08769E+1
   4.66023E+1  -8.03875E+2
   1.30634E+3  -3.70522E+2
   1.27114E+2   8.12890E+2
  -6.39333E+1   1.34819E+2
  -2.15201E+2   2.66286E+2
  -9.02289E+2   8.42989E+2
  -1.21446E+3  -2.38394E+1
  -1.01561E+2  -1.41985E+3
   7.61979E+2  -5.41735E+2
   5.05265E+2   5.98844E+1
  -2.71530E+2  -1.25739E+2
   1.38996E+2   2.90894E+1
   2.34015E+2   4.04812E+2
  -1.79191E+2   1.65738E+2
  -5.68224E+2   5.91612E+1
  -2.29901E+2  -6.20027E+2
   5.17782E+2  -4.32667E+2
   5.22746E+2   1.66791E+2
   1.26899E+2   6.93282E+2
  -1.30730E+2   4.13786E+2
  -8.34237E+1   2.45665E+2
  -4.75254E+2   4.57724E+2
  -7.48369E+2  -4.19550E+2
  -2.35374E+2  -1.17996E+3
   5.97957E+2  -7.47733E+2
   7.27011E+2  -2.30291E+2
   5.82901E+2   1.55244E+2
   2.63653E+2   5.40748E+2
  -1.19439E+2   3.05427E+2
   1.24977E+2  -1.96155E+2
   5.53509E+2  -3.91470E+2
   4.43376E+2   4.83591E+2
  -4.46263E+2   4.03807E+2
  -4.56831E+2  -2.53332E+2
   3.01870E+2  -2.11033E+2
   2.53895E+2   7.99036E+1
  -9.74602E+1   1.51304E+2
  -1.90273E+2  -1.26767E+2
   2.17719E+2  -5.16146E+2
   3.82337E+2  -2.53149E+2
   4.01351E+2  -3.06188E+2
   1.87813E+2   1.02753E+2
   1.50214E+1   7.57251E+1
   5.19275E+1  -2.25101E+2
   1.87560E+2  -8.37177E+0
  -6.91094E+1   3.03393E+2
  -4.59944E+2   1.31489E+2
   3.53488E+1  -1.65597E+2
   1.34384E+2  -1.41549E+2
   1.11435E+1   2.35089E+2
  -4.22128E+2   2.24533E+1
  -5.64125E+1  -5.05991E+2
   1.05028E+2  -4.64077E+2
   4.13300E+2  -4.31402E+2
   4.52413E+2   1.19828E+2
   1.84319E+2   1.25009E+2
  -4.29016E+2   1.45026E+2
   2.58654E+0  -1.12374E+2
   5.78988E+0   1.81497E+1
  -2.51945E+2   5.36808E+1
  -4.42905E+2  -1.26111E+2
   5.29828E+1  -4.99040E+2
   2.36974E+2  -7.53831E+1
   3.08377E+2   3.00483E+2
  -1.91523E+2   4.25883E+2
  -4.47008E+2  -3.73481E+1
   9.43379E+1  -5.69122E+2
   2.99900E+2  -2.83211E+2
   2.06634E+2   2.87702E+2
  -3.31252E+2   7.33963E+2
  -4.08216E+2   2.34211E+2
  -1.26473E+2   7.24702E+1
  -1.23295E+2   9.69956E+1
  -3.74814E+1  -9.40347E+0
  -6.17946E+1  -3.01256E+1
   1.18540E+2  -2.80539E+2
   4.95227E+2  -2.44626E+2
   5.50107E+2   6.25242E+1
   2.49563E+2   5.41954E+2
  -1.40679E+2   2.59468E+2
  -2.72548E+2  -7.48312E+1
  -2.47403E+2   1.94023E+2
  -2.80738E+1  -6.20847E+0
  -4.72473E+1  -1.38848E+2
   4.93934E+1  -7.55820E+1
  -5.76639E+0   2.67550E+2
   3.48104E+0   1.05733E+2
  -1.95246E+1   7.29875E+1
  -2.04146E+2   1.17701E+2
  -1.53822E+2  -8.20979E+1
   2.16959E+2  -3.78314E+1
   4.22081E+2   3.96016E+1
  -1.82401E+2   4.33903E+2
   5.26474E+1   1.22894E+2
   2.36918E+2  -1.11831E+2
   2.18404E+2   1.01597E+2
  -2.20915E+2   3.12825E+2
  -2.41716E+2  -1.63429E+2
  -1.13232E+1  -3.90242E+2
   2.32527E+2  -2.91528E+2
   1.90365E+2   1.32816E+2
  -1.23285E+2   3.81404E+2
  -2.23334E+2   1.25250E+1
  -4.31093E+1  -4.02589E+2
   1.55639E+2  -2.32778E+1
   3.30051E+2  -4.55868E+2
   1.87962E+2   2.85351E+1
   5.52099E+1   1.13658E+1
   1.24947E+2  -9.73062E+0
  -9.66076E+1   1.40156E+1
  -7.74496E+1   2.07864E+2
  -1.04720E+2   7.61321E+1
  -3.67492E+2  -3.36080E+2
   2.03574E+2  -1.81922E+2
   1.60946E+2   1.12474E+2
   3.66442E+1  -1.35973E+2
  -1.70313E+2  -1.42258E+2
   3.88175E+1  -1.93388E+2
   2.36899E+1  -3.83207E+1
  -1.55903E+1   1.53106E+1
   5.31615E+1  -1.06339E+2
   1.11100E+2  -2.43144E+2
   1.41857E+2  -2.19153E+1
  -5.70155E+1   1.86666E+2
  -1.11985E+2   2.68663E+2
  -3.46308E+2  -2.42525E+2
  -9.70941E+1  -9.09923E+1
   2.61594E+0  -1.66282E+1
  -1.05597E+2   5.55683E+1
   6.42575E+1  -9.51651E+1
  -7.21155E+1  -1.29857E+2
  -7.42996E+1  -1.76640E+2
   3.92162E+2   1.22638E+2
   1.20965E+2  -1.60244E+2
  -1.25695E+2  -1.86916E+2
   2.45414E+1   1.15531E+2
   1.88240E+1  -6.07814E+1
   8.90537E+1   1.18783E+1
  -6.79080E+1   3.19371E+2
  -3.75529E+2  -3.09773E+2
   1.04860E+1  -1.25678E+2
   1.84586E+2  -2.14320E+2
   9.47567E+1   1.38873E+2
   1.50316E+2   1.11996E+2
   1.37310E+2  -1.37294E+2
   6.79309E+1  -2.64994E+1
  -1.28521E+2   4.38123E+1
  -5.56834E+1   1.67809E+2
  -1.73874E+2   1.63413E+2
  -4.70378E+1  -3.69286E+2
   3.51592E+1  -3.55580E+2
   4.14210E+1   3.88229E+1
   6.74668E+1   5.94497E+0
  -8.70627E+1   1.22870E+2
   1.67588E+2  -5.29063E+1
  -1.78274E+1  -5.81457E+1
   2.04770E+2   4.97419E+0
   3.53734E-1  -1.82840E+2
   7.71486E+1  -1.92087E+2
   1.47769E+2  -2.34950E+2
   1.09825E+2  -7.26363E+1
   5.71781E+1  -1.20917E+2
  -1.23895E+2  -1.19505E+2
  -1.09547E+2  -2.67972E+2
  -8.23573E+1  -3.42568E+1
  -1.08271E+2  -9.47630E+1
  -7.50833E+1   2.68283E+1
  -1.45856E+2   1.19574E+2
  -1.28165E+2  -4.95956E+1
   1.63259E+2  -1.88825E+2
  -4.49629E+1  -5.62440E+1
  -1.75438E+2   1.59857E+1
  -1.75449E+2  -1.52579E+2
  -1.86138E+2  -3.15923E+2
  -7.18322E+1  -1.57350E+2
  -1.24178E+2  -1.31029E+2
  -1.90698E+2  -2.97772E+2
   4.90125E+1  -7.00440E+0
  -1.04173E+2   1.36366E+2
  -1.02308E+2  -1.44353E+2
  -8.07920E+1  -9.07625E+1
  -5.93270E+1  -1.41332E+0
   1.17615E+2  -1.24360E+2
   1.14764E+2  -1.59534E+2
  -8.61973E+1   7.25283E+1
  -1.49046E+2   4.55842E+1
  -1.75745E+2  -1.67963E+2
  -8.85535E+1  -2.99011E+1
  -1.46006E+2   1.14140E+1
   8.96732E+1   1.20996E+2
  -1.22011E+2  -8.84100E+1
   5.92688E+1   1.67355E+2
  -4.12203E+1  -1.81172E+2
   1.26862E+2  -8.18044E+1
  -5.56205E+0  -1.25062E+2
  -1.49712E+1  -3.15990E+2
  -6.75611E+1  -1.60651E+2
  -1.36310E+2   7.75352E+1
  -7.55072E+1   7.22885E+1
  -1.16147E+2  -5.79781E+1
   2.73654E+1  -5.66544E+1
   3.97980E+1  -2.16100E+2
   1.91474E+2  -1.09195E+2
   6.02638E+1   1.35419E+2
  -1.45033E+2  -4.58640E+1
   1.50104E+1  -1.17659E+2
   5.51364E+1   1.77671E+2
  -5.62490E+1   2.23379E+1
  -2.78942E+2   2.87775E+2
   7.70754E+1  -5.72785E+1
  -1.96275E+2  -1.19993E+2
  -2.34864E+1  -1.29799E+2
   6.88082E+1  -7.42795E+1
   9.43002E+1   1.56261E+2
  -2.24626E+1  -3.18145E+1
  -3.12487E+1  -5.04717E+1
   1.22461E+2  -1.67228E+2
   1.82886E+2   6.58343E+1
   1.97009E+2  -8.95401E+1
  -1.55409E+2   1.87126E+2
   1.15029E+2  -2.52953E+2
   2.60937E+2  -9.97768E+1
   2.10490E+2   2.13841E+1
  -3.96278E+1  -1.66394E+2
  -1.19461E+2  -7.62453E+1
  -2.60255E+2   6.50562E+1
   9.77649E+1  -2.24705E+2
   1.07434E+2  -1.15414E+2
   1.81939E+2   1.09573E+1
  -1.04138E+2  -1.92301E+2
  -1.71124E+2  -5.28619E+1
   1.68073E+2   1.56652E+1
   3.95245E+2  -7.18305E+1
  -3.12710E+1   2.57529E+1
  -4.72212E+0  -4.50701E+1
   2.23659E+2  -1.31072E+1
   7.93106E+1  -7.01295E-1
  -5.72401E+1  -1.07236E+2
   7.30198E+1  -1.09506E+2
  -2.47332E+2  -1.39017E+2
   1.01614E+2   2.01949E+2
  -7.43961E+1  -1.70184E+2
   2.88603E+2  -2.56382E+1
   1.67896E+2  -1.83421E+2
  -2.93338E+1  -4.40107E+1
   1.59921E+1   2.83105E+2
  -2.09455E+2  -2.05699E+1
   1.18957E+2   1.12260E+1
   1.79112E+2   1.17287E+2
   6.59277E+1  -8.26136E+1
  -1.30975E+2  -1.43631E+2
   1.53259E+2   8.72936E+1
   1.02978E+2   1.37365E+2
  -1.40410E+1   2.83502E+2
  -2.57074E+2   3.15129E+1
   5.67895E+1  -5.52282E+1
  -1.23450E+2   9.99418E+1
   1.15086E+2  -1.14088E+2
  -1.02784E+1  -1.36032E+2
   7.90278E+1   1.28083E+2
   7.62557E+1  -1.35460E+2
  -1.16021E+2  -4.37143E+1
   1.25773E+2   3.92078E+1
   2.17824E+2  -1.20877E+2
  -6.43353E+1   1.54018E+2
   1.35363E+2   2.14065E+1
  -4.87086E+1   1.29702E+2
   3.50350E+1   1.49631E+2
   2.31143E+1   3.86465E+1
   1.09826E+2   1.15503E+2
   1.64424E+2  -2.11185E+1
   1.01311E+2   1.12135E+2
  -6.00621E+0  -2.19400E+1
   1.05833E+2   1.63656E+1
  -1.48661E+2  -4.41464E+1
   2.98929E+1  -1.68636E+2
  -1.04676E+2   5.85147E+1
  -2.63514E+1   1.62234E+2
   8.94765E+0  -4.42587E+1
   1.36790E+2  -2.11058E+1
   1.06353E+2   2.10875E+2
   2.65323E+1   6.05514E+1
   1.19319E+2   1.40783E+2
   1.55350E+2   6.21579E+0
   1.25328E+1   1.01988E+2
  -6.17911E+1  -1.96617E+2
  -5.96944E+0  -8.63676E+1
  -1.19298E+2  -2.70627E+2
   5.51937E+1   5.32533E+1
   1.82283E+2   1.57799E+2
   1.52378E+2   1.13251E+2
   2.39361E+2   2.11816E+1
  -1.25779E+1  -3.00691E+2
   5.65322E+1   5.63115E+1
   3.36596E+2   6.05158E+0
   9.74462E+1   2.67144E+1
  -7.09627E+1   8.82518E+1
   2.37140E+2  -8.76439E+1
  -1.15000E+2  -1.59913E+1
  -2.88177E+1  -2.82689E+1
   8.71779E+1  -8.02988E+1
   1.63678E+2  -2.62443E+2
   1.40268E+2   1.90054E+2
   3.68498E+1  -8.60771E+1
  -6.25488E+1  -1.01271E+2
  -7.07397E+0   6.20895E+1
   1.17444E+1  -2.68713E+2
  -1.05908E+2  -1.06382E+2
  -6.30785E+1   1.61591E+2
  -8.32748E+1  -1.57155E+1
  -9.35414E+1  -7.34423E+1
  -1.72356E+2  -1.24238E+2
  -2.28052E+2   1.23159E+2
   3.20311E+1   1.08193E+1
  -8.82120E+1  -7.11183E+1
   1.50150E+2  -2.39519E+1
  -2.06476E+1  -4.40341E+1
   8.08334E+0   8.34831E+0
   1.61092E+2   9.58870E+1
  -2.80594E+1   6.73288E+1
   7.03683E+1   2.35300E+2
  -3.11303E+2  -7.85990E+1
   6.41384E+1  -1.76579E+2
  -4.09963E+1  -1.61882E+1
  -6.94988E+1   1.37074E+2
   1.54235E+2  -8.41272E+1
