 LCModel (Version 6.3-1N) Copyright: S.W. Provencher.          Ref.: Magn. Reson. Med. 30:672-679 (1993).                
 Slice_N1@21_21  28-Feb-2025 11:42:40
 27 lines in following concentration table = NCONC+1
    Conc.  %SD /Cr+PCr  Metabolite                                         
 2.62E-04   7% 2.4E-04 Mac                                                 
    8.739  12%   8.000 Cr                                                  
    0.000 999%   0.000 PCr                                                 
    6.935  21%   6.348 Ins                                                 
    5.663  21%   5.184 NAA                                                 
    2.852  50%   2.610 Tau                                                 
    0.000 999%   0.000 PCho                                                
    1.957  18%   1.791 GPC                                                 
   10.339  15%   9.464 Glu                                                 
    7.685  17%   7.035 Gln                                                 
    6.055  20%   5.542 Ala                                                 
    0.000 999%   0.000 Asc                                                 
    5.382  28%   4.927 Asp                                                 
    0.000 999%   0.000 GABA                                                
    2.712  39%   2.483 Glc                                                 
    2.367  37%   2.167 GSH                                                 
    0.000 999%   0.000 Lac                                                 
    3.940  25%   3.606 NAAG                                                
    0.000 999%   0.000 PE                                                  
    1.957  18%   1.791 GPC+PCho                                            
    9.602  12%   8.790 NAA+NAAG                                            
   18.024  11%  16.499 Glu+Gln                                             
    8.739  12%   8.000 Cr+PCr                                              
    9.602  12%   8.790 NAA+NAAG                                            
    8.739  12%   8.000 Cr+PCr                                              
   18.024  11%  16.499 Glu+Gln                                             
   6 lines in following misc. output table
  FWHM = 0.049 ppm    S/N =   2                                            
  Data shift = 0.033 ppm                                                   
  Ph: -72 deg       0.0 deg/ppm                                            
  alphaB,S = 9.9E-02,   2.0E+01                                            
   19 spline knots.   Ns = 7(1)                                            
  ( 7) 2 infls.   ( 3) 1 extrs.                                            
  480 points on ppm-axis = NY
      4.100000     4.091866     4.083733     4.075600     4.067466     4.059333     4.051199     4.043066     4.034933     4.026799
      4.018666     4.010532     4.002399     3.994265     3.986132     3.977998     3.969864     3.961731     3.953597     3.945463
      3.937330     3.929196     3.921062     3.912929     3.904795     3.896662     3.888528     3.880394     3.872261     3.864127
      3.855993     3.847860     3.839726     3.831592     3.823459     3.815325     3.807191     3.799058     3.790924     3.782790
      3.774657     3.766523     3.758389     3.750256     3.742122     3.733989     3.725855     3.717721     3.709588     3.701454
      3.693320     3.685187     3.677053     3.668919     3.660786     3.652652     3.644518     3.636385     3.628251     3.620117
      3.611984     3.603850     3.595716     3.587583     3.579449     3.571316     3.563182     3.555048     3.546915     3.538781
      3.530647     3.522514     3.514380     3.506246     3.498113     3.489979     3.481845     3.473712     3.465578     3.457444
      3.449311     3.441177     3.433043     3.424910     3.416776     3.408643     3.400509     3.392375     3.384242     3.376108
      3.367974     3.359841     3.351707     3.343573     3.335440     3.327306     3.319172     3.311039     3.302905     3.294771
      3.286638     3.278504     3.270370     3.262237     3.254103     3.245970     3.237836     3.229702     3.221569     3.213435
      3.205301     3.197168     3.189034     3.180900     3.172767     3.164633     3.156499     3.148366     3.140232     3.132098
      3.123965     3.115831     3.107697     3.099564     3.091430     3.083297     3.075163     3.067029     3.058896     3.050762
      3.042628     3.034495     3.026361     3.018227     3.010094     3.001960     2.993826     2.985693     2.977559     2.969425
      2.961292     2.953158     2.945024     2.936891     2.928757     2.920624     2.912490     2.904356     2.896223     2.888089
      2.879955     2.871822     2.863688     2.855554     2.847421     2.839287     2.831153     2.823020     2.814886     2.806752
      2.798619     2.790485     2.782351     2.774218     2.766084     2.757951     2.749817     2.741683     2.733550     2.725416
      2.717282     2.709149     2.701015     2.692881     2.684748     2.676614     2.668480     2.660347     2.652213     2.644079
      2.635946     2.627812     2.619678     2.611545     2.603411     2.595278     2.587144     2.579010     2.570877     2.562743
      2.554609     2.546476     2.538342     2.530208     2.522075     2.513941     2.505807     2.497674     2.489540     2.481406
      2.473273     2.465139     2.457006     2.448872     2.440738     2.432605     2.424471     2.416337     2.408204     2.400070
      2.391936     2.383803     2.375669     2.367535     2.359402     2.351268     2.343134     2.335001     2.326867     2.318733
      2.310600     2.302466     2.294333     2.286199     2.278065     2.269932     2.261798     2.253664     2.245531     2.237397
      2.229263     2.221130     2.212996     2.204862     2.196729     2.188595     2.180461     2.172328     2.164194     2.156060
      2.147927     2.139793     2.131660     2.123526     2.115392     2.107259     2.099125     2.090991     2.082858     2.074724
      2.066590     2.058457     2.050323     2.042189     2.034056     2.025922     2.017788     2.009655     2.001521     1.993387
      1.985254     1.977120     1.968987     1.960853     1.952719     1.944586     1.936452     1.928318     1.920185     1.912051
      1.903917     1.895784     1.887650     1.879516     1.871383     1.863249     1.855115     1.846982     1.838848     1.830714
      1.822581     1.814447     1.806314     1.798180     1.790046     1.781913     1.773779     1.765645     1.757512     1.749378
      1.741244     1.733111     1.724977     1.716843     1.708710     1.700576     1.692442     1.684309     1.676175     1.668041
      1.659908     1.651774     1.643641     1.635507     1.627373     1.619240     1.611106     1.602972     1.594839     1.586705
      1.578571     1.570438     1.562304     1.554170     1.546037     1.537903     1.529769     1.521636     1.513502     1.505368
      1.497235     1.489101     1.480968     1.472834     1.464700     1.456567     1.448433     1.440299     1.432166     1.424032
      1.415898     1.407765     1.399631     1.391497     1.383364     1.375230     1.367096     1.358963     1.350829     1.342695
      1.334562     1.326428     1.318295     1.310161     1.302027     1.293894     1.285760     1.277626     1.269493     1.261359
      1.253225     1.245092     1.236958     1.228824     1.220691     1.212557     1.204423     1.196290     1.188156     1.180022
      1.171889     1.163755     1.155622     1.147488     1.139354     1.131221     1.123087     1.114953     1.106820     1.098686
      1.090552     1.082419     1.074285     1.066151     1.058018     1.049884     1.041750     1.033617     1.025483     1.017349
      1.009216     1.001082     0.992949     0.984815     0.976681     0.968548     0.960414     0.952280     0.944147     0.936013
      0.927879     0.919746     0.911612     0.903478     0.895345     0.887211     0.879077     0.870944     0.862810     0.854676
      0.846543     0.838409     0.830276     0.822142     0.814008     0.805875     0.797741     0.789607     0.781474     0.773340
      0.765206     0.757073     0.748939     0.740805     0.732672     0.724538     0.716404     0.708271     0.700137     0.692003
      0.683870     0.675736     0.667603     0.659469     0.651335     0.643202     0.635068     0.626934     0.618801     0.610667
      0.602533     0.594400     0.586266     0.578132     0.569999     0.561865     0.553731     0.545598     0.537464     0.529330
      0.521197     0.513063     0.504930     0.496796     0.488662     0.480529     0.472395     0.464261     0.456128     0.447994
      0.439861     0.431727     0.423593     0.415460     0.407326     0.399192     0.391059     0.382925     0.374792     0.366658
      0.358524     0.350391     0.342257     0.334124     0.325990     0.317856     0.309723     0.301589     0.293455     0.285322
      0.277188     0.269055     0.260921     0.252787     0.244654     0.236520     0.228386     0.220253     0.212119     0.203986
 NY phased data points follow
   9.22038E+01  8.96690E+01  9.06600E+01  9.84166E+01  8.76012E+01  1.13215E+02  1.25064E+02  1.05335E+02  1.18748E+02  1.19280E+02
   1.11374E+02  1.10968E+02  1.02260E+02  9.00287E+01  6.38794E+01  3.94985E+01  6.34946E+00 -3.02423E+01 -4.29905E+01 -7.60513E+01
  -9.99109E+01 -9.87868E+01 -8.89296E+01 -6.64282E+01 -6.88154E+01 -5.62143E+01 -4.72647E+01 -4.52199E+01 -2.94986E+01 -2.60642E+01
  -2.19954E+01 -3.62892E+01 -3.52994E+01 -2.73807E+01 -3.08755E+01 -3.88475E+01 -4.97198E+01 -4.62813E+01 -6.20337E+01 -6.17342E+01
  -5.49449E+01 -7.54021E+01 -6.62808E+01 -4.50590E+01 -4.54572E+01 -3.91369E+01 -1.61780E+01 -5.69109E-02 -8.80458E+00 -1.76706E+00
   3.44870E-01 -2.59436E+01 -1.43314E+01 -2.09439E+01 -3.79637E+01 -2.42520E+01 -3.74133E+01 -3.81838E+01 -3.40478E+01 -5.68016E+01
  -4.38572E+01 -2.01044E+01 -3.31998E+01 -1.90788E+01 -3.97328E+00 -3.89412E+00 -2.75184E+00 -2.69001E+01 -2.53721E+01 -3.53536E+01
  -4.21599E+01 -1.51927E+01 -1.71492E+01 -1.02678E+01  1.68682E+00  7.47432E+00  1.37758E+01 -3.51575E+00  1.28175E+01  1.90472E+01
  -5.68180E+00  1.11670E+01  5.80484E+00 -1.24755E+01 -2.14605E+01 -1.40823E+01  4.65504E+00  1.34702E+00  6.84595E+00  4.51734E+00
   3.26139E+01  4.48052E+01  4.14319E+01  4.95189E+01  3.20119E+01  4.95851E+01  5.50181E+01  4.43620E+01  3.32013E+01  2.60127E+01
   2.41972E+01  2.40808E+00 -9.49102E+00  1.74304E+00 -1.05180E+00 -3.13172E+01 -3.05466E+01 -6.56825E+01 -9.26092E+01 -8.00189E+01
  -1.04599E+02 -1.09481E+02 -9.03315E+01 -7.27735E+01 -6.87904E+01 -3.97108E+01 -2.55747E+01 -2.78186E+01 -1.49302E+01 -1.63024E+01
   5.91376E+00  1.56619E+01  1.20070E+01  1.49933E+01  2.81385E+01  3.11415E+01  3.38505E+01  5.64335E+01  6.32234E+01  5.13818E+01
   2.20766E+01  2.04574E+01  5.73888E+00 -3.94607E+01 -8.27450E+01 -9.86421E+01 -8.68602E+01 -1.05109E+02 -9.08437E+01 -7.68069E+01
  -8.31424E+01 -6.80251E+01 -6.60990E+01 -5.97974E+01 -6.73382E+01 -6.54383E+01 -5.74180E+01 -6.71749E+01 -5.36186E+01 -4.49978E+01
  -4.44799E+01 -3.94646E+01 -3.67432E+01 -3.49391E+01 -2.22934E+01 -2.87845E+01 -4.54510E+01 -2.09416E+01 -3.34552E+01 -4.29420E+01
  -2.30925E+01 -2.25021E+01 -2.19853E+01 -2.55965E+01 -1.38722E+01 -2.55512E+01 -1.77336E+01 -1.05950E+01 -1.56907E+01  5.40290E+00
  -1.03962E+01  2.29047E+00  9.04994E+00  4.88538E+00  1.46225E+01 -1.68445E+00 -2.60385E+00 -1.04108E+01 -9.03928E+00 -7.39932E+00
  -3.01102E+01 -3.28892E+01 -4.18682E+01 -5.78288E+01 -4.25876E+01 -4.25060E+01 -4.05070E+01 -3.40958E+01 -4.31727E+01 -2.90768E+01
  -3.24568E+01 -2.88611E+01 -2.71467E+01 -3.02134E+01 -2.73844E+00 -1.11820E+01 -1.83315E+01 -1.43487E+01 -2.09533E+01 -8.06195E+00
  -1.67601E+01 -2.09171E+01 -6.82403E+00 -3.94238E+00  5.28526E+00 -7.72927E-01 -2.12704E+00 -4.63100E+00 -1.07060E+01 -9.49683E+00
  -1.28707E+01 -1.05202E+01 -1.58288E+01  1.19310E+01  2.42396E+01  3.47864E+01  5.57334E+01  3.87899E+01  4.70219E+01  3.49785E+01
   2.01731E+01  9.45110E+00 -1.11667E+01  2.86136E+00  1.21980E+01  4.24391E+00  6.18320E+00  7.61706E+00 -1.28372E+01 -9.08527E+00
  -1.27235E+01 -1.78019E+01 -7.68027E+00 -2.82894E+01 -4.06996E+01 -4.84657E+01 -5.74790E+01 -6.45883E+01 -6.02873E+01 -5.81011E+01
  -5.68853E+01 -3.49721E+01 -3.72356E+01 -4.13613E+01 -1.91696E+01 -4.32888E+00 -1.87261E+01 -1.82109E+01 -2.12932E-01 -9.61830E+00
  -1.42155E+01 -1.41244E+01 -1.11899E+01 -1.68292E+01 -2.22526E+01  1.82071E+01  2.40662E+01  3.40701E+01  9.92036E+01  1.34959E+02
   1.61167E+02  1.57527E+02  1.39887E+02  1.29372E+02  1.01267E+02  1.03662E+02  9.28394E+01  7.18863E+01  7.43113E+01  6.87485E+01
   7.95281E+01  8.27783E+01  6.45792E+01  8.03475E+01  8.84151E+01  6.61664E+01  6.79018E+01  6.25994E+01  4.64791E+01  5.24366E+01
   5.07277E+01  4.68833E+01  4.78842E+01  3.72690E+01  4.20681E+01  3.44565E+01  1.61506E+01  3.12247E+01  3.29610E+01  3.41607E+01
   3.70960E+01  2.09224E+01  1.61680E+01  8.51868E+00  1.30488E+01  1.55850E+01  3.71583E+00  1.56056E+01  1.53151E+01  1.06497E+01
   2.85991E+01  3.16593E+01  2.07153E+01  2.56595E+01  5.76121E+01  5.64073E+01  3.90165E+01  6.71935E+01  7.33407E+01  7.24180E+01
   8.87767E+01  9.16232E+01  9.72118E+01  1.02823E+02  1.18714E+02  1.26533E+02  1.17156E+02  1.08840E+02  1.01679E+02  8.66499E+01
   7.27614E+01  7.20330E+01  5.79118E+01  5.54333E+01  3.91000E+01  2.49317E+01  2.94358E+01 -4.53587E+00 -1.32149E+01 -2.54895E+01
  -3.53657E+01 -2.57689E+01 -3.85327E+01 -4.67940E+01 -5.21122E+01 -3.34950E+01 -4.41297E+01 -4.42385E+01 -2.69726E+01 -4.13861E+01
  -2.76673E+01 -1.13687E+01 -8.18143E+00 -1.74889E+01 -1.21317E+01 -4.76901E+00  1.06159E+01  2.01228E+01  1.31210E+01  2.12310E+01
   1.30057E+01  3.23231E+01  1.76731E+01  8.22658E+00  2.35406E+01 -2.37968E+00  9.81787E+00  7.96713E+00  2.23761E+00  9.40182E+00
   7.33175E+00  9.81180E+00  5.57574E+00  2.08904E+01  2.16823E+01  1.73383E+01  2.38682E+01  2.47154E+01  4.05845E+01  4.11412E+01
   4.38613E+01  4.97872E+01  3.37583E+01  5.44275E+01  5.90720E+01  4.63619E+01  6.99660E+01  7.50142E+01  6.88802E+01  7.83644E+01
   8.25076E+01  8.60419E+01  1.03417E+02  9.10682E+01  9.75988E+01  1.09559E+02  1.04655E+02  1.25546E+02  1.05663E+02  1.10724E+02
   1.13431E+02  7.89726E+01  7.16218E+01  6.19803E+01  5.43558E+01  4.73388E+01  4.96868E+01  4.01790E+01  2.70881E+01  1.91714E+01
   1.13982E+01  1.60852E+00 -7.71735E+00  1.15621E+01  3.50531E+00 -1.11555E+01 -3.57461E+00 -1.64564E+00 -1.02540E+01 -1.29837E+01
  -3.93786E+00 -1.13586E+01 -6.57048E+00  2.05100E+00  3.10759E+00  8.33246E-01 -1.80443E+00  4.78794E+00 -7.42952E+00 -1.27435E+01
  -2.31075E+00  5.95626E+00  3.38232E+00 -7.01430E+00 -6.49845E+00 -9.39435E+00 -1.34661E+01 -6.68686E+00  2.13403E+00 -7.92478E+00
  -6.82253E+00  5.01581E+00 -1.63432E+00  1.39607E+00  6.33975E+00  2.49925E+00 -7.01216E+00  4.67030E+00  7.62913E-01 -1.09111E+01
   1.48166E+01  9.71744E+00  1.05546E+00  4.51623E-01 -9.46505E-01 -2.08252E-01  3.35554E+00  7.46807E+00  3.56094E-01  1.39125E+01
  -1.02409E+00 -6.19826E-01  1.27412E+01 -4.44509E+00  4.05538E+00  3.60970E+00  3.76877E+00  1.34141E+01  3.98855E+00  9.60378E+00
   9.25287E+00 -4.74660E+00  8.51484E+00  1.77593E+00  1.17679E+01  1.61467E+01 -3.08192E+00  2.84139E+01  1.73264E+01 -1.36080E+00
   1.01817E+01  2.05586E+01  1.49306E+01  4.58667E+00  2.11044E+01  1.41638E+01  2.22774E+01  1.80773E+01 -1.95140E+00  7.00934E+00
 NY points of the fit to the data follow
   5.54382E+01  5.17786E+01  4.93579E+01  4.81351E+01  4.79842E+01  4.91208E+01  5.07854E+01  5.10285E+01  4.87285E+01  4.43603E+01
   3.85928E+01  3.19468E+01  2.52224E+01  1.89304E+01  1.28070E+01  6.38240E+00 -1.52563E+00 -1.25560E+01 -2.59750E+01 -3.86803E+01
  -4.70239E+01 -4.97605E+01 -4.77660E+01 -4.05831E+01 -2.57725E+01 -6.12273E+00  1.10262E+01  2.29368E+01  3.06744E+01  3.44410E+01
   3.42123E+01  3.15793E+01  2.79962E+01  2.26025E+01  1.41196E+01  1.44472E+00 -1.46251E+01 -3.17457E+01 -4.74502E+01 -5.95409E+01
  -6.60943E+01 -6.50076E+01 -5.55145E+01 -4.00996E+01 -2.29443E+01 -7.15408E+00  5.19710E+00  1.23476E+01  1.42058E+01  1.19853E+01
   7.37386E+00  2.04096E+00 -3.60319E+00 -9.69811E+00 -1.58105E+01 -2.11189E+01 -2.48473E+01 -2.68852E+01 -2.80655E+01 -2.77528E+01
  -2.40276E+01 -1.80632E+01 -1.24303E+01 -8.00257E+00 -5.66144E+00 -6.84415E+00 -1.12359E+01 -1.71445E+01 -2.40328E+01 -3.04776E+01
  -3.30269E+01 -3.09103E+01 -2.65183E+01 -2.09509E+01 -1.41319E+01 -7.63864E+00 -3.25476E+00 -1.11795E+00 -5.35329E-01 -1.50531E+00
  -3.83717E+00 -6.81930E+00 -9.57938E+00 -1.15954E+01 -1.26258E+01 -1.22682E+01 -1.03734E+01 -7.14722E+00 -3.00757E+00  1.54572E+00
   6.15340E+00  1.05662E+01  1.47343E+01  1.83539E+01  2.13930E+01  2.38012E+01  2.54547E+01  2.61341E+01  2.56217E+01  2.35353E+01
   2.02299E+01  1.61982E+01  1.26908E+01  8.85563E+00  2.21715E+00 -9.77624E+00 -2.57761E+01 -4.20505E+01 -5.69364E+01 -7.23530E+01
  -8.62477E+01 -9.16251E+01 -8.78793E+01 -8.00065E+01 -7.03806E+01 -5.95830E+01 -4.93898E+01 -4.15353E+01 -3.43562E+01 -2.70171E+01
  -1.92119E+01 -1.09493E+01 -2.55893E+00  5.65131E+00  1.39095E+01  2.44725E+01  3.84494E+01  5.20862E+01  5.95189E+01  5.76812E+01
   4.79178E+01  3.28132E+01  1.14928E+01 -1.74006E+01 -4.59097E+01 -6.42366E+01 -7.27760E+01 -7.58618E+01 -7.46632E+01 -7.05937E+01
  -6.76128E+01 -6.68303E+01 -6.66411E+01 -6.64132E+01 -6.57823E+01 -6.47778E+01 -6.33600E+01 -6.15035E+01 -5.93700E+01 -5.71574E+01
  -5.47446E+01 -5.18622E+01 -4.86170E+01 -4.53983E+01 -4.25503E+01 -3.98954E+01 -3.69987E+01 -3.39746E+01 -3.15147E+01 -2.98743E+01
  -2.86287E+01 -2.74209E+01 -2.65552E+01 -2.67609E+01 -2.80454E+01 -2.94191E+01 -2.96065E+01 -2.79425E+01 -2.47373E+01 -2.06656E+01
  -1.65051E+01 -1.24124E+01 -8.33048E+00 -5.13952E+00 -4.14115E+00 -5.14943E+00 -6.96940E+00 -9.34545E+00 -1.24734E+01 -1.64301E+01
  -2.09234E+01 -2.52111E+01 -2.89102E+01 -3.19177E+01 -3.40552E+01 -3.49098E+01 -3.47157E+01 -3.40042E+01 -3.27175E+01 -3.07293E+01
  -2.80888E+01 -2.50364E+01 -2.21881E+01 -1.98643E+01 -1.76226E+01 -1.57018E+01 -1.48870E+01 -1.47077E+01 -1.39073E+01 -1.19226E+01
  -9.18183E+00 -5.59513E+00 -1.10200E+00  3.41750E+00  6.68328E+00  7.54270E+00  5.56425E+00  1.28338E+00 -4.69980E+00 -1.07563E+01
  -1.45550E+01 -1.45607E+01 -1.01328E+01 -1.39735E+00  1.01173E+01  2.23863E+01  3.38108E+01  4.21268E+01  4.65266E+01  4.76642E+01
   4.56870E+01  4.14620E+01  3.63237E+01  3.10111E+01  2.49484E+01  1.79421E+01  9.94735E+00  5.57922E-01 -9.93149E+00 -2.12242E+01
  -3.26544E+01 -4.35174E+01 -5.32101E+01 -6.10879E+01 -6.67725E+01 -7.06073E+01 -7.22817E+01 -7.18322E+01 -6.96541E+01 -6.55192E+01
  -5.93576E+01 -5.17820E+01 -4.31800E+01 -3.40556E+01 -2.56163E+01 -1.90809E+01 -1.55136E+01 -1.61124E+01 -1.93488E+01 -2.23745E+01
  -2.37034E+01 -2.43219E+01 -2.31770E+01 -1.72237E+01 -3.16482E+00  1.66470E+01  3.52394E+01  5.21013E+01  7.08271E+01  8.81525E+01
   9.80997E+01  1.01439E+02  1.01940E+02  9.95215E+01  9.48213E+01  9.01927E+01  8.66323E+01  8.34990E+01  8.06950E+01  7.83197E+01
   7.64205E+01  7.49772E+01  7.39653E+01  7.33362E+01  7.29441E+01  7.26320E+01  7.23520E+01  7.20029E+01  7.14556E+01  7.06092E+01
   6.94604E+01  6.80553E+01  6.63826E+01  6.44191E+01  6.21644E+01  5.96525E+01  5.68477E+01  5.37372E+01  5.03894E+01  4.69751E+01
   4.37484E+01  4.09365E+01  3.87217E+01  3.72811E+01  3.67233E+01  3.70202E+01  3.80439E+01  3.96273E+01  4.15715E+01  4.37159E+01
   4.59787E+01  4.83066E+01  5.06807E+01  5.31147E+01  5.55962E+01  5.81054E+01  6.06675E+01  6.33140E+01  6.59760E+01  6.85904E+01
   7.11232E+01  7.35411E+01  7.58156E+01  7.79376E+01  7.99092E+01  8.18451E+01  8.40181E+01  8.58284E+01  8.58186E+01  8.26344E+01
   7.48200E+01  6.20615E+01  4.52014E+01  2.55473E+01  5.12618E+00 -1.26753E+01 -2.63001E+01 -3.51538E+01 -3.81943E+01 -3.68119E+01
  -3.36991E+01 -3.01553E+01 -2.61745E+01 -2.22723E+01 -1.88395E+01 -1.52605E+01 -1.17119E+01 -8.27053E+00 -4.91948E+00 -1.60817E+00
   1.70456E+00  4.98533E+00  8.10000E+00  1.08774E+01  1.31169E+01  1.45936E+01  1.52041E+01  1.49403E+01  1.38076E+01  1.18578E+01
   9.31224E+00  6.46441E+00  3.59543E+00  1.03754E+00 -8.43010E-01 -1.80766E+00 -1.82306E+00 -9.36700E-01  7.25591E-01  2.96304E+00
   5.57652E+00  8.39399E+00  1.13007E+01  1.42089E+01  1.70833E+01  1.99170E+01  2.27143E+01  2.55224E+01  2.84156E+01  3.14487E+01
   3.46802E+01  3.82022E+01  4.20949E+01  4.64378E+01  5.13084E+01  5.67271E+01  6.26983E+01  6.92884E+01  7.64313E+01  8.38770E+01
   9.13288E+01  9.83540E+01  1.04257E+02  1.08331E+02  1.10159E+02  1.09560E+02  1.06603E+02  1.01678E+02  9.54416E+01  8.85953E+01
   8.16709E+01  7.48947E+01  6.82399E+01  6.16056E+01  5.48244E+01  4.77808E+01  4.05847E+01  3.35336E+01  2.68950E+01  2.09350E+01
   1.59154E+01  1.18713E+01  8.66524E+00  6.14811E+00  4.20526E+00  2.68203E+00  1.43704E+00  4.14081E-01 -4.28390E-01 -1.08751E+00
  -1.56440E+00 -1.89529E+00 -2.13515E+00 -2.30527E+00 -2.37720E+00 -2.37862E+00 -2.37875E+00 -2.38348E+00 -2.30903E+00 -2.15513E+00
  -2.03478E+00 -1.94723E+00 -1.81669E+00 -1.61975E+00 -1.40990E+00 -1.20371E+00 -9.79957E-01 -7.36449E-01 -4.95884E-01 -2.97358E-01
  -1.13816E-01  8.22877E-02  3.06098E-01  5.70770E-01  8.98336E-01  1.27389E+00  1.66349E+00  2.04429E+00  2.36963E+00  2.62923E+00
   2.85390E+00  3.06708E+00  3.26655E+00  3.45809E+00  3.67790E+00  3.93105E+00  4.20125E+00  4.47179E+00  4.76366E+00  5.06080E+00
   5.34071E+00  5.63462E+00  5.96996E+00  6.30962E+00  6.63451E+00  6.93916E+00  7.19934E+00  7.40040E+00  7.55595E+00  7.68024E+00
   7.78460E+00  7.90689E+00  8.07285E+00  8.28410E+00  8.50243E+00  8.69172E+00  8.84446E+00  8.93335E+00  8.92038E+00  8.80300E+00
   8.62459E+00  8.41274E+00  8.18168E+00  7.92200E+00  7.59983E+00  7.25052E+00  6.89469E+00  6.52692E+00  6.17036E+00  5.87319E+00
 NY background values follow
     8.383E+01    8.159E+01    7.934E+01    7.709E+01    7.483E+01    7.258E+01    7.032E+01    6.807E+01    6.582E+01    6.358E+01
     6.135E+01    5.912E+01    5.690E+01    5.470E+01    5.251E+01    5.034E+01    4.818E+01    4.604E+01    4.392E+01    4.183E+01
     3.975E+01    3.771E+01    3.569E+01    3.369E+01    3.173E+01    2.980E+01    2.790E+01    2.604E+01    2.421E+01    2.242E+01
     2.067E+01    1.896E+01    1.730E+01    1.567E+01    1.408E+01    1.254E+01    1.103E+01    9.563E+00    8.136E+00    6.747E+00
     5.398E+00    4.088E+00    2.816E+00    1.582E+00    3.863E-01   -7.717E-01   -1.892E+00   -2.975E+00   -4.022E+00   -5.031E+00
    -6.004E+00   -6.940E+00   -7.841E+00   -8.706E+00   -9.535E+00   -1.033E+01   -1.109E+01   -1.181E+01   -1.250E+01   -1.315E+01
    -1.378E+01   -1.436E+01   -1.492E+01   -1.544E+01   -1.593E+01   -1.639E+01   -1.682E+01   -1.722E+01   -1.759E+01   -1.793E+01
    -1.825E+01   -1.854E+01   -1.881E+01   -1.905E+01   -1.927E+01   -1.946E+01   -1.964E+01   -1.979E+01   -1.992E+01   -2.003E+01
    -2.012E+01   -2.020E+01   -2.026E+01   -2.030E+01   -2.032E+01   -2.033E+01   -2.033E+01   -2.031E+01   -2.028E+01   -2.023E+01
    -2.018E+01   -2.012E+01   -2.004E+01   -1.996E+01   -1.986E+01   -1.976E+01   -1.964E+01   -1.952E+01   -1.938E+01   -1.924E+01
    -1.908E+01   -1.892E+01   -1.875E+01   -1.856E+01   -1.837E+01   -1.817E+01   -1.796E+01   -1.774E+01   -1.751E+01   -1.728E+01
    -1.703E+01   -1.678E+01   -1.651E+01   -1.624E+01   -1.596E+01   -1.567E+01   -1.538E+01   -1.507E+01   -1.476E+01   -1.444E+01
    -1.411E+01   -1.378E+01   -1.344E+01   -1.309E+01   -1.273E+01   -1.237E+01   -1.200E+01   -1.162E+01   -1.124E+01   -1.085E+01
    -1.046E+01   -1.006E+01   -9.663E+00   -9.257E+00   -8.848E+00   -8.434E+00   -8.017E+00   -7.597E+00   -7.175E+00   -6.749E+00
    -6.321E+00   -5.891E+00   -5.460E+00   -5.026E+00   -4.592E+00   -4.156E+00   -3.720E+00   -3.284E+00   -2.847E+00   -2.411E+00
    -1.975E+00   -1.540E+00   -1.105E+00   -6.718E-01   -2.394E-01    1.916E-01    6.212E-01    1.049E+00    1.476E+00    1.900E+00
     2.322E+00    2.742E+00    3.160E+00    3.576E+00    3.988E+00    4.398E+00    4.805E+00    5.209E+00    5.610E+00    6.007E+00
     6.401E+00    6.791E+00    7.177E+00    7.559E+00    7.937E+00    8.311E+00    8.680E+00    9.045E+00    9.405E+00    9.760E+00
     1.011E+01    1.045E+01    1.079E+01    1.113E+01    1.146E+01    1.178E+01    1.210E+01    1.242E+01    1.273E+01    1.303E+01
     1.333E+01    1.363E+01    1.392E+01    1.420E+01    1.448E+01    1.476E+01    1.503E+01    1.529E+01    1.556E+01    1.581E+01
     1.606E+01    1.631E+01    1.655E+01    1.679E+01    1.703E+01    1.726E+01    1.748E+01    1.770E+01    1.792E+01    1.813E+01
     1.833E+01    1.854E+01    1.873E+01    1.893E+01    1.911E+01    1.929E+01    1.947E+01    1.964E+01    1.980E+01    1.995E+01
     2.010E+01    2.024E+01    2.037E+01    2.049E+01    2.060E+01    2.070E+01    2.080E+01    2.088E+01    2.096E+01    2.102E+01
     2.107E+01    2.111E+01    2.114E+01    2.116E+01    2.116E+01    2.116E+01    2.114E+01    2.110E+01    2.106E+01    2.100E+01
     2.092E+01    2.083E+01    2.073E+01    2.061E+01    2.048E+01    2.034E+01    2.019E+01    2.002E+01    1.985E+01    1.966E+01
     1.946E+01    1.926E+01    1.904E+01    1.882E+01    1.859E+01    1.835E+01    1.810E+01    1.784E+01    1.758E+01    1.732E+01
     1.704E+01    1.677E+01    1.648E+01    1.620E+01    1.591E+01    1.562E+01    1.532E+01    1.502E+01    1.472E+01    1.442E+01
     1.412E+01    1.382E+01    1.351E+01    1.321E+01    1.291E+01    1.261E+01    1.231E+01    1.201E+01    1.171E+01    1.142E+01
     1.112E+01    1.084E+01    1.055E+01    1.027E+01    9.993E+00    9.721E+00    9.454E+00    9.191E+00    8.935E+00    8.684E+00
     8.440E+00    8.202E+00    7.971E+00    7.748E+00    7.533E+00    7.326E+00    7.127E+00    6.937E+00    6.757E+00    6.586E+00
     6.424E+00    6.273E+00    6.132E+00    6.000E+00    5.876E+00    5.762E+00    5.656E+00    5.558E+00    5.467E+00    5.384E+00
     5.309E+00    5.240E+00    5.178E+00    5.122E+00    5.072E+00    5.028E+00    4.989E+00    4.955E+00    4.926E+00    4.901E+00
     4.881E+00    4.864E+00    4.851E+00    4.841E+00    4.834E+00    4.829E+00    4.827E+00    4.827E+00    4.829E+00    4.832E+00
     4.836E+00    4.841E+00    4.848E+00    4.855E+00    4.864E+00    4.874E+00    4.886E+00    4.899E+00    4.914E+00    4.930E+00
     4.948E+00    4.968E+00    4.990E+00    5.013E+00    5.039E+00    5.067E+00    5.096E+00    5.128E+00    5.163E+00    5.199E+00
     5.238E+00    5.280E+00    5.324E+00    5.371E+00    5.420E+00    5.472E+00    5.528E+00    5.586E+00    5.647E+00    5.711E+00
     5.778E+00    5.848E+00    5.922E+00    5.998E+00    6.078E+00    6.160E+00    6.245E+00    6.334E+00    6.425E+00    6.519E+00
     6.615E+00    6.715E+00    6.817E+00    6.921E+00    7.028E+00    7.138E+00    7.250E+00    7.365E+00    7.482E+00    7.602E+00
     7.724E+00    7.848E+00    7.974E+00    8.103E+00    8.234E+00    8.367E+00    8.502E+00    8.639E+00    8.778E+00    8.919E+00
     9.062E+00    9.207E+00    9.354E+00    9.504E+00    9.656E+00    9.810E+00    9.967E+00    1.013E+01    1.029E+01    1.045E+01
     1.062E+01    1.079E+01    1.097E+01    1.115E+01    1.133E+01    1.152E+01    1.171E+01    1.190E+01    1.210E+01    1.230E+01
     1.250E+01    1.271E+01    1.293E+01    1.315E+01    1.337E+01    1.360E+01    1.384E+01    1.408E+01    1.432E+01    1.457E+01
     1.483E+01    1.509E+01    1.535E+01    1.562E+01    1.590E+01    1.618E+01    1.647E+01    1.676E+01    1.706E+01    1.736E+01
     1.767E+01    1.798E+01    1.829E+01    1.861E+01    1.894E+01    1.927E+01    1.960E+01    1.994E+01    2.028E+01    2.062E+01
     2.097E+01    2.133E+01    2.169E+01    2.205E+01    2.241E+01    2.278E+01    2.315E+01    2.353E+01    2.391E+01    2.429E+01
     2.468E+01    2.507E+01    2.546E+01    2.585E+01    2.625E+01    2.665E+01    2.705E+01    2.746E+01    2.787E+01    2.828E+01
     2.869E+01    2.910E+01    2.952E+01    2.994E+01    3.035E+01    3.077E+01    3.120E+01    3.162E+01    3.204E+01    3.247E+01
     3.289E+01    3.332E+01    3.374E+01    3.417E+01    3.460E+01    3.503E+01    3.545E+01    3.588E+01    3.631E+01    3.673E+01
 Mac      Conc. = 2.62E-04
   6.66856E+01  6.37441E+01  6.06157E+01  5.73006E+01  5.38185E+01  5.02548E+01  4.67177E+01  4.32943E+01  3.99740E+01  3.66654E+01
   3.33387E+01  3.01236E+01  2.72231E+01  2.47571E+01  2.28193E+01  2.15576E+01  2.11308E+01  2.14225E+01  2.19589E+01  2.23991E+01
   2.26855E+01  2.27271E+01  2.24281E+01  2.19219E+01  2.14278E+01  2.09863E+01  2.05556E+01  2.01091E+01  1.95266E+01  1.86892E+01
   1.76333E+01  1.65225E+01  1.55015E+01  1.45970E+01  1.38225E+01  1.31917E+01  1.27211E+01  1.23719E+01  1.20192E+01  1.15629E+01
   1.10090E+01  1.04291E+01  9.80529E+00  9.06613E+00  8.11241E+00  6.86408E+00  5.33045E+00  3.58728E+00  1.72078E+00 -1.72142E-01
  -1.90305E+00 -3.34114E+00 -4.46585E+00 -5.26046E+00 -5.71075E+00 -5.82204E+00 -5.65478E+00 -5.39082E+00 -5.23048E+00 -5.24381E+00
  -5.44835E+00 -5.94776E+00 -6.74364E+00 -7.69810E+00 -8.60694E+00 -9.25615E+00 -9.49800E+00 -9.32702E+00 -8.80457E+00 -7.95246E+00
  -6.90210E+00 -5.93850E+00 -5.26110E+00 -4.91480E+00 -4.89201E+00 -5.18494E+00 -5.66384E+00 -6.16459E+00 -6.54499E+00 -6.74475E+00
  -6.73036E+00 -6.48937E+00 -6.01183E+00 -5.36123E+00 -4.61921E+00 -3.83693E+00 -3.05022E+00 -2.31938E+00 -1.71048E+00 -1.27248E+00
  -1.08350E+00 -1.24472E+00 -1.77164E+00 -2.64618E+00 -3.82995E+00 -5.25498E+00 -6.84270E+00 -8.57655E+00 -1.04668E+01 -1.26502E+01
  -1.53752E+01 -1.87765E+01 -2.27154E+01 -2.69279E+01 -3.11097E+01 -3.48602E+01 -3.77382E+01 -3.93972E+01 -3.97998E+01 -3.91226E+01
