 
 $NMID
 ID=''
 FMTDAT='(2E13.5)'
 TRAMP=   1.00000E+0
 VOLUME=   1.00000E+0
 $END
  -5.77502E+4   6.99125E+5
  -7.39189E+5   1.68632E+6
  -4.98462E+5   1.69398E+6
  -6.04593E+5   1.50648E+6
  -7.63777E+5   1.55544E+6
  -7.47260E+5   1.56345E+6
  -7.65790E+5   1.48808E+6
  -8.05514E+5   1.48026E+6
  -8.00717E+5   1.43667E+6
  -8.64091E+5   1.39031E+6
  -9.01165E+5   1.41178E+6
  -8.71180E+5   1.38250E+6
  -8.92432E+5   1.32463E+6
  -9.23404E+5   1.31581E+6
  -9.25682E+5   1.29086E+6
  -9.43091E+5   1.26207E+6
  -9.59157E+5   1.25892E+6
  -9.68632E+5   1.21643E+6
  -1.00599E+6   1.16515E+6
  -1.03126E+6   1.14728E+6
  -1.04208E+6   1.11483E+6
  -1.06637E+6   1.07828E+6
  -1.07808E+6   1.05524E+6
  -1.08532E+6   1.01796E+6
  -1.10724E+6   9.81841E+5
  -1.11268E+6   9.68203E+5
  -1.11210E+6   9.43253E+5
  -1.12004E+6   9.20014E+5
  -1.12256E+6   8.99513E+5
  -1.12444E+6   8.71583E+5
  -1.13914E+6   8.41993E+5
  -1.14413E+6   8.17939E+5
  -1.14915E+6   7.85673E+5
  -1.16030E+6   7.53968E+5
  -1.16501E+6   7.24027E+5
  -1.17008E+6   6.91809E+5
  -1.18256E+6   6.61616E+5
  -1.18820E+6   6.30537E+5
  -1.18692E+6   5.99364E+5
  -1.18961E+6   5.75167E+5
  -1.18914E+6   5.51576E+5
  -1.18724E+6   5.25267E+5
  -1.18405E+6   5.04160E+5
  -1.18126E+6   4.85140E+5
  -1.17896E+6   4.61659E+5
  -1.17840E+6   4.40110E+5
  -1.17586E+6   4.16238E+5
  -1.17411E+6   3.86863E+5
  -1.17102E+6   3.58346E+5
  -1.16756E+6   3.32410E+5
  -1.16467E+6   3.05581E+5
  -1.16197E+6   2.77770E+5
  -1.15852E+6   2.50674E+5
  -1.15492E+6   2.24546E+5
  -1.14950E+6   1.99480E+5
  -1.14311E+6   1.74933E+5
  -1.13667E+6   1.51301E+5
  -1.12901E+6   1.29015E+5
  -1.12078E+6   1.08583E+5
  -1.11379E+6   8.81262E+4
  -1.10644E+6   6.63929E+4
  -1.09828E+6   4.45366E+4
  -1.09027E+6   2.17205E+4
  -1.08155E+6  -9.41371E+2
  -1.07109E+6  -2.40674E+4
  -1.05933E+6  -4.61060E+4
  -1.04793E+6  -6.79719E+4
  -1.03752E+6  -8.90107E+4
  -1.02805E+6  -1.08775E+5
  -1.01755E+6  -1.29481E+5
  -1.00489E+6  -1.49228E+5
  -9.92295E+5  -1.67361E+5
  -9.81691E+5  -1.84207E+5
  -9.71039E+5  -2.02377E+5
  -9.57520E+5  -2.19852E+5
  -9.43590E+5  -2.36752E+5
  -9.31030E+5  -2.54077E+5
  -9.18091E+5  -2.72090E+5
  -9.04190E+5  -2.89365E+5
  -8.89494E+5  -3.06253E+5
  -8.74260E+5  -3.22960E+5
  -8.58941E+5  -3.38670E+5
  -8.44125E+5  -3.53660E+5
  -8.29464E+5  -3.68576E+5
  -8.13966E+5  -3.82285E+5
  -7.98193E+5  -3.94117E+5
  -7.83268E+5  -4.05799E+5
  -7.68711E+5  -4.17268E+5
  -7.53771E+5  -4.28061E+5
  -7.38679E+5  -4.37110E+5
  -7.23625E+5  -4.46328E+5
  -7.08318E+5  -4.55976E+5
  -6.92601E+5  -4.66152E+5
  -6.75930E+5  -4.75889E+5
  -6.59021E+5  -4.84214E+5
  -6.42863E+5  -4.92131E+5
  -6.27080E+5  -5.00324E+5
  -6.10735E+5  -5.08883E+5
  -5.93623E+5  -5.16392E+5
  -5.77437E+5  -5.22605E+5
  -5.62297E+5  -5.28543E+5
  -5.46330E+5  -5.34853E+5
  -5.29090E+5  -5.39750E+5
  -5.12714E+5  -5.43468E+5
  -4.98073E+5  -5.47184E+5
  -4.83786E+5  -5.50713E+5
  -4.68128E+5  -5.54450E+5
  -4.51836E+5  -5.57665E+5
  -4.35680E+5  -5.60374E+5
  -4.20403E+5  -5.62440E+5
  -4.05492E+5  -5.64689E+5
  -3.90317E+5  -5.67054E+5
  -3.74082E+5  -5.69690E+5
  -3.57460E+5  -5.71728E+5
  -3.42042E+5  -5.73239E+5
  -3.26797E+5  -5.74489E+5
  -3.11428E+5  -5.75720E+5
  -2.95478E+5  -5.75790E+5
  -2.80811E+5  -5.74815E+5
  -2.66769E+5  -5.74233E+5
  -2.53005E+5  -5.74086E+5
  -2.39111E+5  -5.73778E+5
  -2.24476E+5  -5.72742E+5
  -2.10617E+5  -5.71638E+5
  -1.96311E+5  -5.70704E+5
  -1.81772E+5  -5.68688E+5
  -1.68544E+5  -5.65944E+5
  -1.55416E+5  -5.63582E+5
  -1.42029E+5  -5.61010E+5
  -1.28209E+5  -5.58933E+5
  -1.14743E+5  -5.56200E+5
  -1.01319E+5  -5.53034E+5
  -8.83328E+4  -5.49312E+5
  -7.55787E+4  -5.45411E+5
  -6.30716E+4  -5.41626E+5
  -5.04701E+4  -5.37391E+5
  -3.84693E+4  -5.32656E+5
  -2.69920E+4  -5.28423E+5
  -1.51360E+4  -5.24097E+5
  -2.99067E+3  -5.19166E+5
   8.30619E+3  -5.13191E+5
   1.89527E+4  -5.07214E+5
   2.90459E+4  -5.01549E+5
   3.92248E+4  -4.96203E+5
   4.95661E+4  -4.90502E+5
   5.95651E+4  -4.84100E+5
   6.93013E+4  -4.77584E+5
   7.83086E+4  -4.70815E+5
   8.73438E+4  -4.63997E+5
   9.53182E+4  -4.57287E+5
   1.03435E+5  -4.50138E+5
   1.11598E+5  -4.42987E+5
   1.18983E+5  -4.36328E+5
   1.26426E+5  -4.29729E+5
   1.33927E+5  -4.22616E+5
   1.41185E+5  -4.14983E+5
   1.47404E+5  -4.07727E+5
   1.54298E+5  -4.00704E+5
   1.60575E+5  -3.93406E+5
   1.66624E+5  -3.85614E+5
   1.72326E+5  -3.78096E+5
   1.78128E+5  -3.70532E+5
   1.83917E+5  -3.62973E+5
   1.88964E+5  -3.54820E+5
   1.93558E+5  -3.47300E+5
   1.97967E+5  -3.39922E+5
   2.02217E+5  -3.32837E+5
   2.06936E+5  -3.25414E+5
   2.10850E+5  -3.17557E+5
   2.14458E+5  -3.10350E+5
   2.17943E+5  -3.02753E+5
   2.21343E+5  -2.95451E+5
   2.24308E+5  -2.88374E+5
   2.27584E+5  -2.80659E+5
   2.30207E+5  -2.73025E+5
   2.33134E+5  -2.66457E+5
   2.35803E+5  -2.58865E+5
   2.38286E+5  -2.51042E+5
   2.40262E+5  -2.43384E+5
   2.42174E+5  -2.36296E+5
   2.44262E+5  -2.29326E+5
   2.46280E+5  -2.22116E+5
   2.48024E+5  -2.14514E+5
   2.49719E+5  -2.07289E+5
   2.50715E+5  -2.00018E+5
   2.51659E+5  -1.93114E+5
   2.52381E+5  -1.85860E+5
   2.53161E+5  -1.79072E+5
   2.53629E+5  -1.72648E+5
   2.54468E+5  -1.66403E+5
   2.55062E+5  -1.59661E+5
   2.55786E+5  -1.52471E+5
   2.56059E+5  -1.45166E+5
   2.56025E+5  -1.38359E+5
   2.55804E+5  -1.31920E+5
   2.55609E+5  -1.25538E+5
   2.55682E+5  -1.18733E+5
   2.55491E+5  -1.12330E+5
   2.54910E+5  -1.05751E+5
   2.54620E+5  -9.91400E+4
   2.53966E+5  -9.26185E+4
   2.53204E+5  -8.59301E+4
   2.51937E+5  -7.99485E+4
   2.51241E+5  -7.38932E+4
   2.50281E+5  -6.80290E+4
   2.49061E+5  -6.17859E+4
   2.47752E+5  -5.60775E+4
   2.46311E+5  -5.01044E+4
   2.44452E+5  -4.44095E+4
   2.43245E+5  -3.89311E+4
   2.41545E+5  -3.28694E+4
   2.39575E+5  -2.75707E+4
   2.37676E+5  -2.22008E+4
   2.36153E+5  -1.74662E+4
   2.34376E+5  -1.18788E+4
   2.32114E+5  -6.43262E+3
   2.29520E+5  -1.71314E+3
   2.27367E+5   2.75081E+3
   2.25052E+5   7.68955E+3
   2.22746E+5   1.18850E+4
   2.20214E+5   1.63626E+4
   2.17822E+5   2.03144E+4
   2.15283E+5   2.42517E+4
   2.12846E+5   2.86724E+4
   2.10045E+5   3.28497E+4
   2.07084E+5   3.65825E+4
   2.04486E+5   4.00122E+4
   2.01166E+5   4.33898E+4
   1.98873E+5   4.72308E+4
   1.96182E+5   5.06216E+4
   1.93090E+5   5.36699E+4
   1.89904E+5   5.66961E+4
   1.87228E+5   5.95827E+4
   1.84217E+5   6.24420E+4
   1.81367E+5   6.50642E+4
   1.78351E+5   6.77724E+4
   1.75484E+5   7.01392E+4
   1.72629E+5   7.28486E+4
   1.69497E+5   7.50724E+4
   1.66484E+5   7.70928E+4
   1.63674E+5   7.89421E+4
   1.60909E+5   8.11242E+4
   1.58158E+5   8.30733E+4
   1.54807E+5   8.51649E+4
   1.52051E+5   8.68119E+4
   1.49241E+5   8.83389E+4
   1.46369E+5   9.01503E+4
   1.43481E+5   9.16282E+4
   1.40240E+5   9.33161E+4
   1.37769E+5   9.46290E+4
   1.34631E+5   9.58336E+4
   1.31928E+5   9.72431E+4
   1.29203E+5   9.83709E+4
   1.26318E+5   9.96805E+4
   1.23464E+5   1.00487E+5
   1.20522E+5   1.01537E+5
   1.18118E+5   1.02251E+5
   1.15341E+5   1.03436E+5
   1.12241E+5   1.04325E+5
   1.09741E+5   1.05184E+5
   1.06785E+5   1.06012E+5
   1.03928E+5   1.07009E+5
   1.00902E+5   1.07462E+5
   9.82912E+4   1.08109E+5
   9.58359E+4   1.08602E+5
   9.31216E+4   1.08810E+5
   9.07015E+4   1.09588E+5
   8.76542E+4   1.09824E+5
   8.51783E+4   1.10187E+5
   8.26909E+4   1.10525E+5
   7.99336E+4   1.10871E+5
   7.75871E+4   1.11126E+5
   7.51553E+4   1.10818E+5
   7.23881E+4   1.11288E+5
   6.97592E+4   1.11202E+5
   6.73079E+4   1.11269E+5
   6.46498E+4   1.11200E+5
   6.21073E+4   1.11182E+5
   5.97990E+4   1.10994E+5
   5.73656E+4   1.10758E+5
   5.52883E+4   1.10848E+5
   5.26188E+4   1.10326E+5
   5.02783E+4   1.09941E+5
   4.81546E+4   1.09791E+5
   4.58454E+4   1.09436E+5
   4.36011E+4   1.08989E+5
   4.12945E+4   1.08365E+5
   3.94111E+4   1.07902E+5
   3.72489E+4   1.07453E+5
   3.51969E+4   1.07031E+5
   3.30451E+4   1.06512E+5
   3.10380E+4   1.05928E+5
   2.89063E+4   1.05155E+5
   2.70918E+4   1.04530E+5
   2.49022E+4   1.03735E+5
   2.32229E+4   1.02948E+5
   2.12109E+4   1.02295E+5
   1.94261E+4   1.01738E+5
   1.75556E+4   1.00866E+5
   1.57967E+4   1.00428E+5
   1.40603E+4   9.94832E+4
   1.22621E+4   9.84627E+4
   1.06578E+4   9.79523E+4
   9.03174E+3   9.68640E+4
   7.28765E+3   9.61717E+4
   5.76141E+3   9.49192E+4
   4.18168E+3   9.39028E+4
   2.46159E+3   9.30187E+4
   1.13339E+3   9.23136E+4
  -1.08172E+2   9.13001E+4
  -1.40260E+3   9.03884E+4
  -2.92776E+3   8.94660E+4
  -4.30587E+3   8.82978E+4
  -5.70557E+3   8.75396E+4
  -7.02452E+3   8.62095E+4
  -8.32538E+3   8.53830E+4
  -9.27251E+3   8.42155E+4
  -1.06252E+4   8.32964E+4
  -1.18604E+4   8.22773E+4
  -1.28172E+4   8.10098E+4
  -1.42652E+4   7.98256E+4
  -1.51312E+4   7.87550E+4
  -1.62063E+4   7.78205E+4
  -1.72408E+4   7.66544E+4
  -1.82851E+4   7.54837E+4
  -1.91127E+4   7.42176E+4
  -2.02161E+4   7.33179E+4
  -2.12119E+4   7.22474E+4
  -2.23119E+4   7.12437E+4
  -2.32284E+4   6.96880E+4
  -2.38252E+4   6.84019E+4
  -2.46459E+4   6.72864E+4
  -2.54196E+4   6.60373E+4
  -2.62589E+4   6.51363E+4
  -2.70668E+4   6.36344E+4
  -2.78781E+4   6.27312E+4
  -2.85668E+4   6.15216E+4
  -2.91767E+4   6.04364E+4
  -2.98817E+4   5.90369E+4
  -3.05220E+4   5.77498E+4
  -3.07846E+4   5.68863E+4
  -3.15708E+4   5.58603E+4
  -3.21933E+4   5.46378E+4
  -3.25689E+4   5.32091E+4
  -3.32047E+4   5.19778E+4
  -3.36060E+4   5.10516E+4
  -3.42625E+4   4.97891E+4
  -3.45063E+4   4.85490E+4
  -3.49710E+4   4.74479E+4
  -3.52621E+4   4.62571E+4
  -3.58239E+4   4.52250E+4
  -3.59312E+4   4.41984E+4
  -3.64251E+4   4.29705E+4
  -3.65566E+4   4.18962E+4
  -3.71378E+4   4.10960E+4
  -3.74055E+4   3.98896E+4
  -3.74093E+4   3.86843E+4
  -3.74633E+4   3.75875E+4
  -3.78521E+4   3.66840E+4
  -3.77686E+4   3.55733E+4
  -3.79949E+4   3.44458E+4
  -3.84450E+4   3.34970E+4
  -3.81149E+4   3.21627E+4
  -3.84545E+4   3.15938E+4
  -3.85075E+4   3.05876E+4
  -3.88375E+4   2.94878E+4
  -3.85472E+4   2.84151E+4
