 
 $NMID
 ID=''
 FMTDAT='(2E13.5)'
 TRAMP=   1.00000E+0
 VOLUME=   1.00000E+0
 $END
  -2.32449E+4  -4.79669E+1
  -1.07607E+4   1.98673E+4
   2.31953E+4   5.43789E+3
   3.38315E+3  -1.54488E+4
  -1.97664E+4   5.26550E+3
   5.59385E+3   9.26847E+3
   1.07441E+4  -1.07095E+4
  -8.67215E+3  -5.75834E+2
   6.43662E+2   1.09530E+4
   6.60200E+3  -2.84174E+3
  -7.96080E+3  -2.28337E+3
  -3.63462E+3   5.27882E+3
   4.05985E+3  -1.88736E+3
  -3.87931E+3  -1.74088E+3
  -3.16537E+3   2.10139E+3
   3.14502E+3  -3.67524E+3
   4.66777E+1  -1.15402E+3
  -3.76040E+2   4.24153E+3
   8.47468E+2  -5.13927E+2
  -1.44994E+3  -1.34054E+3
  -2.14491E+2   1.18685E+3
   1.86991E+3  -1.54758E+3
  -4.48088E+2   4.64456E+2
  -6.03379E+2   2.55904E+3
   3.75167E+2  -2.09278E+3
   1.08837E+3  -1.81965E+3
   1.60631E+3   3.12931E+3
  -1.72287E+3   9.21983E+2
  -2.18725E+3  -1.94261E+3
   1.94969E+3   4.93484E+2
   1.09122E+3   1.60997E+3
  -2.23631E+3   1.83798E+2
  -7.46056E+2  -1.10105E+3
  -2.35453E+0  -1.50833E+3
  -3.22374E+1  -1.08313E+3
   1.95863E+3  -7.42219E+2
   1.67844E+3   4.56224E+2
  -5.58166E+2   1.63534E+3
  -8.40841E+2  -4.02097E+1
   7.23061E+1  -8.33394E+2
  -5.90117E+2   4.82609E+2
  -4.58271E+2  -6.11425E+2
   5.41268E+2  -2.12163E+3
   1.72695E+3  -5.66285E+2
   1.48992E+3   9.97217E+2
   2.30955E+2   1.33149E+3
  -9.84419E+2   1.52866E+3
  -1.68996E+3   6.31246E+1
  -1.09941E+3  -1.87021E+3
  -1.02982E+2  -1.37208E+3
   3.41770E+2  -4.76908E+2
   4.71934E+2  -1.13232E+3
   5.37309E+2  -6.64372E+2
   3.31228E+2   5.71146E+2
   2.90165E+2   2.32527E+2
  -2.38378E+2   1.15677E+2
  -1.06385E+3   7.43168E+1
  -7.92511E+2  -1.09991E+3
   5.99529E+2  -1.49610E+3
   1.23628E+3  -2.15287E+2
   6.14635E+2   9.86911E+2
   2.61697E+2   8.46657E+2
  -1.07877E+2   1.21468E+3
  -1.03421E+3   1.04047E+3
  -1.95842E+3   1.68688E+2
  -1.52062E+3  -1.21096E+3
   3.11152E+2  -1.82281E+3
   1.13199E+3  -1.08216E+3
   8.43237E+2   5.17622E+2
  -1.18205E+2   7.78319E+2
  -2.83573E+2  -2.43675E+2
   2.27026E+2  -6.92618E+2
   7.64988E+2   2.58892E+1
   1.26513E+2   8.02888E+2
  -4.18150E+2   3.55156E+2
   2.26912E+2   3.09883E+1
   4.35857E+2   1.74985E+2
   3.46422E+1   6.57855E+2
   1.75459E+1   4.26376E+2
  -3.35296E+2  -1.10759E+2
  -3.57296E+2  -3.55709E+2
  -1.07954E+2  -6.77307E+2
   3.47834E+2  -2.07369E+2
   2.56434E+2   4.53802E+1
  -1.76925E+2  -3.13110E+2
   4.44055E+2  -5.50501E+2
   1.00034E+3  -2.26358E+2
   6.10947E+2   5.20302E+2
  -2.85231E+2   1.43523E+2
   1.74905E+2  -1.17978E+1
   7.78786E+2   5.58665E+1
   3.37390E+2   6.73720E+2
  -6.10440E+2   9.84246E+2
  -8.27279E+2   4.41025E+2
  -4.60679E+2  -1.01057E+3
   3.10441E+2  -6.93018E+2
   4.02881E+2  -1.01260E+2
  -2.32770E+1   3.58971E+2
   1.44949E+2  -1.46419E+1
   6.71562E+2   6.20287E+1
   6.52389E+2   5.79120E+2
  -2.91516E+1   7.15272E+2
  -6.79524E+2   1.78856E+2
  -3.99322E+2  -5.85076E+2
   4.59749E+2  -6.19062E+2
   7.98853E+2   4.83488E+2
   1.35245E+2   6.31740E+2
  -9.06618E+2   1.44879E+2
  -6.54961E+2  -6.03874E+2
   4.50438E+2  -7.73436E+2
   1.34808E+3   4.57240E+0
   6.31881E+2   7.96175E+2
  -1.08925E+2   5.55058E+2
  -5.41717E+1   1.28605E+2
  -3.22670E+1   5.60003E+2
  -1.82275E+2   4.57872E+2
  -7.56011E+2   1.20496E+2
  -8.14664E+2  -3.95931E+2
  -1.29100E+2  -1.08139E+3
   8.91063E+2  -6.43908E+2
   6.35452E+2   1.65568E+2
   4.60183E+2   5.19040E+2
   4.33718E+2   5.03783E+2
   9.82294E+1   3.81553E+2
  -5.22290E+2   2.67785E+2
  -4.60327E+2   5.72122E+1
   3.17677E+2  -2.72364E+2
   5.04322E+2  -4.41337E+1
   3.66762E+2   2.88489E+2
   1.53031E+2   3.05250E+2
  -1.93565E+2   4.74511E+2
  -6.75439E+2   1.02268E+2
  -3.14144E+2  -5.52984E+2
   2.57949E+2  -2.37858E+2
   1.53966E+2   1.88234E+2
  -1.02027E+2  -2.39805E+2
   1.04454E+2  -1.03712E+2
   6.33787E+2  -8.33553E+1
   3.23536E+2   6.44457E+2
  -4.59867E+2   3.12067E+2
  -6.33456E+2  -3.12039E+2
   1.12532E+2  -3.57658E+2
   8.59626E+2  -1.44554E+2
   2.94507E+2   4.46000E+2
  -6.31960E+1   6.54716E+2
  -3.88132E+2   3.90111E+2
  -3.23215E+2   3.38385E+1
   4.79996E+1   5.05469E+0
  -1.21927E+2   2.45681E+1
  -1.93917E+2  -2.51069E+2
  -1.56907E+1  -4.66679E+2
   4.74065E+2  -3.89015E+2
   5.11410E+2   2.41595E+2
   2.73434E+2   4.73419E+2
  -2.88260E+2   1.71968E+2
  -9.66796E+1  -2.16901E+2
   3.72004E+2  -5.13431E+1
   1.29056E+2   1.93599E+2
  -8.04202E+1   3.09321E+2
   3.35320E+1  -1.37258E+2
   1.13717E+2   3.33133E+2
  -2.78920E+2   3.23822E+2
  -2.92031E+2   1.89435E+2
  -2.29833E+2  -2.55416E+2
   1.35371E+2  -3.18428E+2
   2.87502E+2  -1.27992E+2
   4.06814E+2   2.82189E+1
  -1.36347E+2   3.09327E+2
  -1.45794E+2   1.93039E+1
   1.10177E+2  -1.62033E+2
   1.67920E+2  -4.62489E+1
   3.00411E+2  -9.56332E+1
  -2.16492E+2   4.15216E+2
  -2.62482E+2   1.67220E+2
  -1.50086E+2  -6.56092E+1
   2.35975E+2  -1.79692E+2
  -1.57298E+2   1.39116E+2
  -3.40699E+2   1.89819E+1
  -1.13076E+2  -3.90491E+2
   2.79258E+2  -1.93131E+2
   2.25865E+2  -1.88604E+1
  -1.08712E+2   3.68306E+2
  -1.72891E+2   3.43909E+1
  -1.16137E+2  -2.19039E+2
  -8.12528E+1  -3.40590E+2
  -1.23396E+2  -1.25014E+2
   8.26276E+0  -1.80626E+2
   1.56632E+2  -3.02672E+2
   2.97838E+2   6.30394E+1
   4.05935E+2   1.97739E+2
  -1.66513E+2   1.83990E+2
  -4.42343E+2   2.30928E+2
  -5.16373E+2  -5.58281E+1
  -1.62108E+2  -3.96837E+2
   8.21375E+1  -3.32062E+2
   3.04611E+2  -6.29374E+1
  -1.03000E+2   2.65125E+1
  -7.10829E+1   5.29628E+0
  -8.08751E+1  -4.07016E+1
  -1.70525E+2  -7.58200E+0
  -3.84158E+2  -1.76412E+2
  -2.94265E+2  -3.77144E+2
  -2.29627E+2  -4.46248E+2
   1.97969E+2  -1.15734E+2
  -8.67366E+1  -4.44072E+1
  -1.93973E+2  -9.06771E+1
  -7.44972E+1  -1.03110E+2
   9.90266E+0  -9.87744E+1
   6.40572E+1   3.70973E+1
  -5.67426E+1   1.48165E+1
  -2.11115E+2  -1.52210E+2
   1.37016E+2  -2.39584E+2
   2.07321E+2   6.30711E+1
  -2.75812E+1   2.12631E+2
  -4.15932E+2   1.75697E+2
  -4.13882E+2   7.51039E+1
  -5.59897E+1  -2.01792E+2
   1.36609E+2  -2.53111E+2
   2.50528E+2  -2.10680E+2
  -1.34139E+2  -1.66316E+2
  -1.23892E+2  -1.96602E+2
  -6.08777E+1   2.73931E+0
  -1.15178E+2   1.01369E+2
  -2.59131E+2   2.37251E+2
  -3.79149E+2   1.93077E+2
  -2.43959E+2  -2.27869E+2
   1.26095E+2  -2.49749E+2
   3.15163E+1   1.87774E+2
  -1.93153E+2   5.24253E+1
  -1.87742E+2  -1.16348E+1
  -2.08494E+2  -3.76673E+2
  -1.01775E+2  -2.14979E+2
  -8.71564E+1  -2.30668E+2
  -1.93278E+2   1.65192E+1
  -2.17278E+1  -2.80532E+1
  -1.21376E+2   4.32795E+1
   2.42110E+1  -8.29069E+1
  -7.15873E+1   3.28358E+2
  -9.44917E+1   1.36837E+0
  -1.65155E+1  -1.06451E+2
   9.60573E+1  -1.35857E+2
   1.20098E+2   1.08418E+1
   7.86782E+1   2.80742E+2
  -1.78069E+2   6.84498E+1
   1.15451E+2   1.33355E+1
  -3.54506E+0   4.37706E+1
   4.22396E+1   2.07329E+1
  -3.30365E+2   2.47015E+2
  -8.72356E+0  -2.02378E+2
   1.30539E+2  -3.02975E+2
   1.03323E+2  -1.56408E+2
  -1.98643E+2   2.02777E+2
  -2.66172E+2   8.87014E+1
  -2.25606E+2  -6.71189E+1
   1.33005E+2  -2.00637E+2
   1.19590E+2   7.56118E+1
  -2.50900E+1   2.40003E+2
   2.93936E+1  -1.76559E+2
  -1.40709E+2  -5.93890E+1
  -2.01746E+2   1.63397E+2
  -1.04773E+2   1.65551E+2
  -3.20331E+2  -6.83606E+1
  -1.66029E+2  -1.74455E+2
   4.81184E+1  -2.37622E+2
   1.96961E+2  -9.87340E+1
   1.03724E+2   9.99967E+1
  -1.71390E+2   2.63063E+1
  -2.69035E+2  -1.47835E+2
  -1.84797E+1  -5.04387E+2
  -7.81971E+0  -7.71357E+1
  -8.30840E+1   4.36383E+1
  -6.45666E+1  -8.90035E+1
  -1.02133E+2   1.38002E+2
  -7.96754E+1  -6.70643E+1
   1.78771E+1   1.63989E+2
  -2.38338E+2   2.23644E+2
  -2.70483E+2  -2.17554E+2
  -4.95605E+1  -4.02829E+2
   1.47364E+2  -3.03414E+2
  -1.09854E+1  -1.28197E+2
  -1.56324E+2  -1.12204E+2
  -1.42331E+2   1.36430E+1
  -3.12079E+2  -1.55275E+1
  -2.56671E+2   9.15492E+1
  -3.26785E+2   7.26387E+1
  -2.66044E+2   4.34462E+1
  -7.08982E+1  -2.47248E+2
   6.61835E+1   4.36519E+1
  -8.07703E+1   2.89156E+1
  -1.32989E+2   7.32072E+1
  -2.67354E+2   1.00897E+2
  -1.86547E+2  -1.72303E+2
  -3.13096E+2   1.02050E+2
  -6.16608E+1   7.93880E+0
   5.76960E+1  -1.51376E+2
  -1.66969E+2  -1.09607E+2
  -1.44241E+2  -1.86419E+2
  -5.66055E+1   1.10988E+1
  -3.72405E+2   9.82833E+1
  -5.19657E+1   1.10953E+2
  -3.01444E+2  -1.87143E+2
  -6.22062E+0   1.46734E+1
   2.79873E+2   6.75687E+1
  -1.28754E+2   2.89149E+2
  -1.13155E+2  -8.49267E+1
   1.05168E+2  -1.35152E+2
   4.59584E+1   8.67452E+1
  -1.21263E+1  -9.73174E+1
  -8.69135E+1  -1.12592E+1
   1.19362E+2   1.13700E+2
   9.95510E+1   8.98334E+1
  -2.16131E+2  -8.83142E+1
  -5.21057E+1  -4.66928E+0
  -2.82040E+2   3.37808E+2
  -1.85357E+2  -7.80869E+1
   5.28882E+1  -3.71172E+1
   1.41925E+2  -6.51322E+0
  -1.84017E+1   3.49273E+2
   4.54016E+1   1.77307E+2
  -4.37204E+1  -1.26113E+2
   2.34632E+2  -3.29092E+1
  -7.43174E+1   1.93021E+1
  -3.10452E+2  -2.44545E+1
  -9.83927E+1  -7.84191E+1
  -1.80010E+1  -3.92838E+2
   2.81537E+2   3.96760E+1
  -2.80037E+1   3.77744E+2
  -1.48697E+2  -2.60698E+1
   2.24362E+1  -1.75128E+2
   1.15888E+2  -1.82876E+1
  -1.99138E+2   9.37496E+1
   2.59091E+2   1.02322E+2
   3.67313E+1   1.17998E+2
  -9.76581E+1   4.02701E+0
   7.42103E+1   1.71104E+2
   1.08994E+2   3.67718E+1
  -2.53934E+2   4.36159E+1
  -1.51051E+2   4.97411E+0
   6.39790E+1  -1.59850E+2
  -4.88172E+1  -1.00036E+2
  -3.07347E+0   4.75467E+0
  -2.42808E+2  -1.74721E+2
  -1.30315E+2   1.24970E+2
  -2.70053E+2  -7.30879E+1
   1.19353E+1   1.12920E+2
   5.31747E+1   5.66770E+1
  -4.68054E+1  -3.66154E+2
  -1.66375E+2  -3.03676E+1
  -1.11471E+2   1.76612E+2
   5.37337E+1  -1.74792E+1
  -2.75318E+2   1.42436E+2
  -4.71030E+1   6.54633E+0
   4.12015E+1   6.35243E+1
  -1.01796E+2  -1.79235E+2
  -4.31233E+1  -2.11903E+2
  -2.03768E+2  -1.36843E+2
   2.39398E+1  -1.84193E+2
   2.04902E+1   6.45550E+1
  -6.80988E+1  -4.18677E+1
  -9.69339E+1   4.24165E+0
  -1.90571E+2  -4.65761E+1
  -1.21718E+2  -5.47107E+1
   2.07314E+2  -1.41581E+2
   2.84901E+1   1.36088E+2
  -2.92058E+2   1.26768E+2
  -3.85342E+1   2.43086E+2
  -1.21778E+2  -4.97860E+1
