 
 $NMID
 ID=''
 FMTDAT='(2E13.5)'
 TRAMP=   1.00000E+0
 VOLUME=   1.00000E+0
 $END
   7.00953E+5  -5.18399E+4
   1.84618E+6   5.55438E+5
   1.86447E+6   3.29781E+5
   1.71543E+6   3.96578E+5
   1.78431E+6   4.67836E+5
   1.79043E+6   3.82151E+5
   1.72396E+6   3.81784E+5
   1.74682E+6   4.24298E+5
   1.73945E+6   4.03014E+5
   1.69492E+6   4.29158E+5
   1.69604E+6   4.59062E+5
   1.67738E+6   4.50871E+5
   1.64791E+6   4.71781E+5
   1.64231E+6   4.96388E+5
   1.61282E+6   5.02845E+5
   1.58584E+6   5.20519E+5
   1.58567E+6   5.34588E+5
   1.56315E+6   5.39944E+5
   1.53902E+6   5.52135E+5
   1.53373E+6   5.48419E+5
   1.51217E+6   5.51860E+5
   1.49307E+6   5.67337E+5
   1.48252E+6   5.70184E+5
   1.45847E+6   5.73047E+5
   1.43640E+6   5.88514E+5
   1.42465E+6   5.88654E+5
   1.40221E+6   5.97048E+5
   1.38010E+6   6.14766E+5
   1.36076E+6   6.20330E+5
   1.33892E+6   6.22635E+5
   1.32153E+6   6.34454E+5
   1.30438E+6   6.34830E+5
   1.28249E+6   6.35894E+5
   1.26690E+6   6.41813E+5
   1.25055E+6   6.37412E+5
   1.23251E+6   6.32743E+5
   1.22091E+6   6.36485E+5
   1.20590E+6   6.37329E+5
   1.18205E+6   6.36773E+5
   1.16465E+6   6.39640E+5
   1.14821E+6   6.41427E+5
   1.12727E+6   6.42070E+5
   1.10690E+6   6.43555E+5
   1.09013E+6   6.45387E+5
   1.07139E+6   6.46973E+5
   1.05303E+6   6.50379E+5
   1.03331E+6   6.53939E+5
   1.01303E+6   6.55370E+5
   9.93631E+5   6.52545E+5
   9.76904E+5   6.51855E+5
   9.60317E+5   6.52474E+5
   9.43160E+5   6.51162E+5
   9.25793E+5   6.49254E+5
   9.09399E+5   6.49693E+5
   8.91955E+5   6.49201E+5
   8.73321E+5   6.48091E+5
   8.53950E+5   6.47991E+5
   8.36148E+5   6.46655E+5
   8.18893E+5   6.44813E+5
   8.01950E+5   6.43602E+5
   7.84767E+5   6.43257E+5
   7.67849E+5   6.41874E+5
   7.50775E+5   6.40849E+5
   7.32745E+5   6.39059E+5
   7.15156E+5   6.36004E+5
   6.98413E+5   6.31717E+5
   6.82066E+5   6.28232E+5
   6.65876E+5   6.24977E+5
   6.50364E+5   6.22899E+5
   6.34103E+5   6.21471E+5
   6.17023E+5   6.18630E+5
   6.00132E+5   6.14645E+5
   5.85735E+5   6.11457E+5
   5.70115E+5   6.09510E+5
   5.53133E+5   6.06428E+5
   5.37418E+5   6.02409E+5
   5.23090E+5   5.98931E+5
   5.07553E+5   5.95438E+5
   4.92190E+5   5.91336E+5
   4.77031E+5   5.87218E+5
   4.62648E+5   5.82348E+5
   4.48105E+5   5.77913E+5
   4.33578E+5   5.73914E+5
   4.18858E+5   5.70058E+5
   4.03828E+5   5.65575E+5
   3.90175E+5   5.61067E+5
   3.76651E+5   5.56841E+5
   3.62356E+5   5.52286E+5
   3.48581E+5   5.47771E+5
   3.35913E+5   5.42314E+5
   3.23788E+5   5.37077E+5
   3.11595E+5   5.31903E+5
   2.98804E+5   5.26712E+5
   2.86833E+5   5.21029E+5
   2.75139E+5   5.13946E+5
   2.64351E+5   5.07875E+5
   2.53655E+5   5.02541E+5
   2.42757E+5   4.96979E+5
   2.31897E+5   4.90460E+5
   2.21549E+5   4.84525E+5
   2.11588E+5   4.79154E+5
   2.00552E+5   4.73607E+5
   1.89629E+5   4.67234E+5
   1.79863E+5   4.60349E+5
   1.70805E+5   4.54161E+5
   1.62019E+5   4.48887E+5
   1.52370E+5   4.42914E+5
   1.42724E+5   4.36379E+5
   1.34018E+5   4.29349E+5
   1.26548E+5   4.22872E+5
   1.18873E+5   4.17118E+5
   1.10399E+5   4.11306E+5
   1.01644E+5   4.04985E+5
   9.35739E+4   3.98775E+5
   8.60982E+4   3.92698E+5
   7.80129E+4   3.86642E+5
   7.01340E+4   3.80630E+5
   6.25935E+4   3.73947E+5
   5.60428E+4   3.67229E+5
   4.96302E+4   3.61297E+5
   4.31744E+4   3.55719E+5
   3.68109E+4   3.50013E+5
   3.06276E+4   3.44357E+5
   2.43826E+4   3.38251E+5
   1.82434E+4   3.32182E+5
   1.27609E+4   3.25859E+5
   7.20339E+3   3.19633E+5
   1.81438E+3   3.14068E+5
  -3.65524E+3   3.08250E+5
  -9.11342E+3   3.02571E+5
  -1.46452E+4   2.96944E+5
  -1.97786E+4   2.90773E+5
  -2.42800E+4   2.84660E+5
  -2.88203E+4   2.78980E+5
  -3.33706E+4   2.73170E+5
  -3.79724E+4   2.66955E+5
  -4.13561E+4   2.61095E+5
  -4.48545E+4   2.55562E+5
  -4.87621E+4   2.50300E+5
  -5.26808E+4   2.44249E+5
  -5.57872E+4   2.37982E+5
  -5.86345E+4   2.32175E+5
  -6.14919E+4   2.26957E+5
  -6.42610E+4   2.21461E+5
  -6.73672E+4   2.15849E+5
  -7.00052E+4   2.10000E+5
  -7.25764E+4   2.04271E+5
  -7.49526E+4   1.98447E+5
  -7.69522E+4   1.93219E+5
  -7.87297E+4   1.87939E+5
  -8.07702E+4   1.82760E+5
  -8.21089E+4   1.77001E+5
  -8.35990E+4   1.72181E+5
  -8.53291E+4   1.67252E+5
  -8.68792E+4   1.61948E+5
  -8.76524E+4   1.56898E+5
  -8.85267E+4   1.51921E+5
  -8.96150E+4   1.47334E+5
  -9.04217E+4   1.42587E+5
  -9.12011E+4   1.37744E+5
  -9.17869E+4   1.33080E+5
  -9.21921E+4   1.28347E+5
  -9.27519E+4   1.23877E+5
  -9.30941E+4   1.19228E+5
  -9.32209E+4   1.14693E+5
  -9.32949E+4   1.10747E+5
  -9.38528E+4   1.06984E+5
  -9.41480E+4   1.02592E+5
  -9.38240E+4   9.84870E+4
  -9.37351E+4   9.48837E+4
  -9.37149E+4   9.10468E+4
  -9.34379E+4   8.74629E+4
  -9.32865E+4   8.33789E+4
  -9.28054E+4   8.01453E+4
  -9.24792E+4   7.65734E+4
  -9.23275E+4   7.32366E+4
  -9.17925E+4   6.98390E+4
  -9.13822E+4   6.61357E+4
  -9.08512E+4   6.31251E+4
  -9.05225E+4   6.00938E+4
  -8.98554E+4   5.71165E+4
  -8.91926E+4   5.40720E+4
  -8.87123E+4   5.09230E+4
  -8.78435E+4   4.81496E+4
  -8.70799E+4   4.53261E+4
  -8.61820E+4   4.25158E+4
  -8.54298E+4   4.02971E+4
  -8.47040E+4   3.76384E+4
  -8.36974E+4   3.51385E+4
  -8.28446E+4   3.29612E+4
  -8.22218E+4   3.07482E+4
  -8.13674E+4   2.81585E+4
  -8.03210E+4   2.58553E+4
  -7.91967E+4   2.35000E+4
  -7.81069E+4   2.15726E+4
  -7.71271E+4   1.94500E+4
  -7.61657E+4   1.73878E+4
  -7.49974E+4   1.54903E+4
  -7.39201E+4   1.35737E+4
  -7.30306E+4   1.18854E+4
  -7.19429E+4   9.79614E+3
  -7.04926E+4   7.90251E+3
  -6.92348E+4   6.35429E+3
  -6.81680E+4   4.95035E+3
  -6.67787E+4   3.18435E+3
  -6.58068E+4   1.45206E+3
  -6.46873E+4   1.13787E+2
  -6.32860E+4  -1.22604E+3
  -6.17901E+4  -2.67385E+3
  -6.07959E+4  -4.13287E+3
  -5.92503E+4  -5.37788E+3
  -5.79331E+4  -6.25792E+3
  -5.68360E+4  -7.77291E+3
  -5.56368E+4  -8.99858E+3
  -5.41470E+4  -1.03169E+4
  -5.28522E+4  -1.10127E+4
  -5.14588E+4  -1.21725E+4
  -5.00797E+4  -1.32402E+4
  -4.87061E+4  -1.41742E+4
  -4.73727E+4  -1.45513E+4
  -4.61824E+4  -1.55514E+4
  -4.49677E+4  -1.65887E+4
  -4.36351E+4  -1.74164E+4
  -4.23980E+4  -1.80119E+4
  -4.11693E+4  -1.87774E+4
  -3.99658E+4  -1.93037E+4
  -3.86839E+4  -2.00262E+4
  -3.74201E+4  -2.06531E+4
  -3.66566E+4  -2.13439E+4
  -3.53447E+4  -2.15496E+4
  -3.39718E+4  -2.22256E+4
  -3.29176E+4  -2.27184E+4
  -3.18143E+4  -2.31466E+4
  -3.06685E+4  -2.36133E+4
  -2.94338E+4  -2.38658E+4
  -2.82858E+4  -2.43487E+4
  -2.76423E+4  -2.46100E+4
  -2.64655E+4  -2.46925E+4
  -2.52207E+4  -2.51216E+4
  -2.43964E+4  -2.53499E+4
  -2.38268E+4  -2.54557E+4
  -2.26748E+4  -2.57733E+4
  -2.16039E+4  -2.58881E+4
  -2.07715E+4  -2.63051E+4
  -2.00285E+4  -2.63891E+4
  -1.90415E+4  -2.64112E+4
  -1.83015E+4  -2.65349E+4
  -1.71719E+4  -2.65128E+4
  -1.63140E+4  -2.66480E+4
  -1.56338E+4  -2.66834E+4
  -1.46253E+4  -2.69652E+4
  -1.39764E+4  -2.69065E+4
  -1.30233E+4  -2.66827E+4
  -1.21749E+4  -2.69243E+4
  -1.16046E+4  -2.66842E+4
  -1.09849E+4  -2.69786E+4
  -1.03046E+4  -2.71070E+4
  -9.25638E+3  -2.68681E+4
  -8.77194E+3  -2.66644E+4
  -7.92633E+3  -2.66956E+4
  -7.68252E+3  -2.66294E+4
  -6.83381E+3  -2.64792E+4
  -6.27974E+3  -2.59580E+4
  -5.72132E+3  -2.63091E+4
  -5.01391E+3  -2.60441E+4
  -4.47450E+3  -2.58590E+4
  -3.89904E+3  -2.57675E+4
  -3.34941E+3  -2.56166E+4
  -2.87389E+3  -2.55675E+4
  -2.36000E+3  -2.52997E+4
  -1.67556E+3  -2.47714E+4
  -1.30426E+3  -2.46465E+4
  -4.86692E+2  -2.46046E+4
  -2.51861E+2  -2.44446E+4
   1.51480E+2  -2.41406E+4
   7.45781E+2  -2.37164E+4
   1.37132E+3  -2.34229E+4
   1.68641E+3  -2.31557E+4
   2.28463E+3  -2.29633E+4
   2.58904E+3  -2.28192E+4
   3.02188E+3  -2.25265E+4
   3.28090E+3  -2.23054E+4
   3.97976E+3  -2.17688E+4
   4.19390E+3  -2.15086E+4
   4.77795E+3  -2.14638E+4
   5.11280E+3  -2.10943E+4
   5.31411E+3  -2.08224E+4
   5.53856E+3  -2.05655E+4
   6.09515E+3  -2.05442E+4
   6.47580E+3  -1.98269E+4
   6.75666E+3  -1.98519E+4
   7.33353E+3  -1.92193E+4
   7.33999E+3  -1.89886E+4
   7.71413E+3  -1.87702E+4
   8.10749E+3  -1.83821E+4
   8.50042E+3  -1.82155E+4
   8.89242E+3  -1.80178E+4
   9.25707E+3  -1.74168E+4
   9.50884E+3  -1.74798E+4
   9.66114E+3  -1.71010E+4
   9.88148E+3  -1.68752E+4
   1.03143E+4  -1.63792E+4
   1.05475E+4  -1.62514E+4
   1.07555E+4  -1.62540E+4
   1.12826E+4  -1.61003E+4
   1.10499E+4  -1.55483E+4
   1.16825E+4  -1.55627E+4
   1.18835E+4  -1.50757E+4
   1.21135E+4  -1.50574E+4
   1.21219E+4  -1.46178E+4
   1.25764E+4  -1.44266E+4
   1.29957E+4  -1.43391E+4
   1.28553E+4  -1.39159E+4
   1.31260E+4  -1.37908E+4
   1.33828E+4  -1.34123E+4
   1.33439E+4  -1.35754E+4
   1.36350E+4  -1.33931E+4
   1.34603E+4  -1.29819E+4
   1.36962E+4  -1.27807E+4
   1.38309E+4  -1.26651E+4
   1.38991E+4  -1.26430E+4
   1.38589E+4  -1.25001E+4
   1.41352E+4  -1.21811E+4
   1.41919E+4  -1.21901E+4
   1.44079E+4  -1.18238E+4
   1.46823E+4  -1.14938E+4
   1.43281E+4  -1.13958E+4
   1.45364E+4  -1.13427E+4
   1.49025E+4  -1.08754E+4
   1.47877E+4  -1.09322E+4
   1.46027E+4  -1.05218E+4
   1.46030E+4  -1.04350E+4
   1.47771E+4  -1.03211E+4
   1.49543E+4  -9.98380E+3
   1.49967E+4  -1.00711E+4
   1.48937E+4  -9.56231E+3
   1.48951E+4  -9.63777E+3
   1.48067E+4  -9.56002E+3
   1.47716E+4  -9.29492E+3
   1.45674E+4  -9.17742E+3
   1.49192E+4  -8.64837E+3
   1.45885E+4  -8.57033E+3
   1.47293E+4  -8.54504E+3
   1.45084E+4  -8.28344E+3
   1.47371E+4  -8.17190E+3
   1.45481E+4  -7.99477E+3
   1.48216E+4  -7.60998E+3
   1.44328E+4  -7.63454E+3
   1.44538E+4  -7.39367E+3
   1.41944E+4  -7.30383E+3
   1.42739E+4  -6.87428E+3
   1.42466E+4  -6.74571E+3
   1.40551E+4  -6.67056E+3
   1.40911E+4  -6.51428E+3
   1.40528E+4  -6.48823E+3
   1.39104E+4  -6.05086E+3
   1.38837E+4  -5.92909E+3
   1.36461E+4  -5.78808E+3
   1.40444E+4  -5.65742E+3
   1.34964E+4  -5.66375E+3
   1.34315E+4  -5.19373E+3
   1.35289E+4  -5.31880E+3
   1.31708E+4  -5.07513E+3
   1.31987E+4  -5.18767E+3
   1.33245E+4  -4.71183E+3
   1.31457E+4  -4.65714E+3
   1.30634E+4  -4.70803E+3
