 
 $NMID
 ID=''
 FMTDAT='(2E13.5)'
 TRAMP=   1.00000E+0
 VOLUME=   1.00000E+0
 $END
  -4.73135E+5   5.11602E+5
  -1.71165E+6   8.17775E+5
  -1.59639E+6   1.01692E+6
  -1.51897E+6   9.17374E+5
  -1.57111E+6   8.98819E+5
  -1.53522E+6   9.27317E+5
  -1.51689E+6   9.11109E+5
  -1.52852E+6   9.30017E+5
  -1.47904E+6   9.24297E+5
  -1.48399E+6   8.82751E+5
  -1.50158E+6   8.99948E+5
  -1.45571E+6   8.99305E+5
  -1.44448E+6   8.63369E+5
  -1.45699E+6   8.69200E+5
  -1.42757E+6   8.64439E+5
  -1.41399E+6   8.37934E+5
  -1.41836E+6   8.44365E+5
  -1.39839E+6   8.39403E+5
  -1.39087E+6   8.16194E+5
  -1.38660E+6   8.20922E+5
  -1.36660E+6   8.16831E+5
  -1.36003E+6   8.01890E+5
  -1.35574E+6   8.01265E+5
  -1.33977E+6   7.92309E+5
  -1.33272E+6   7.75418E+5
  -1.32236E+6   7.78575E+5
  -1.31008E+6   7.69944E+5
  -1.30512E+6   7.54596E+5
  -1.29425E+6   7.48685E+5
  -1.27857E+6   7.42273E+5
  -1.27643E+6   7.30825E+5
  -1.26570E+6   7.26806E+5
  -1.25074E+6   7.18665E+5
  -1.24416E+6   7.11020E+5
  -1.23318E+6   7.08076E+5
  -1.21870E+6   7.04794E+5
  -1.21341E+6   7.00689E+5
  -1.20660E+6   6.96129E+5
  -1.19216E+6   6.87107E+5
  -1.18299E+6   6.81691E+5
  -1.17442E+6   6.76099E+5
  -1.16329E+6   6.67160E+5
  -1.15132E+6   6.61082E+5
  -1.14132E+6   6.56594E+5
  -1.13229E+6   6.47733E+5
  -1.12471E+6   6.40224E+5
  -1.11502E+6   6.33138E+5
  -1.10616E+6   6.23375E+5
  -1.09632E+6   6.15121E+5
  -1.08583E+6   6.09352E+5
  -1.07645E+6   6.02859E+5
  -1.06901E+6   5.95785E+5
  -1.06062E+6   5.89692E+5
  -1.05192E+6   5.82727E+5
  -1.04355E+6   5.75157E+5
  -1.03566E+6   5.67653E+5
  -1.02676E+6   5.58088E+5
  -1.01665E+6   5.49425E+5
  -1.00704E+6   5.42985E+5
  -9.99384E+5   5.36323E+5
  -9.91463E+5   5.27559E+5
  -9.82856E+5   5.19170E+5
  -9.75079E+5   5.11990E+5
  -9.67507E+5   5.03601E+5
  -9.58738E+5   4.94104E+5
  -9.48377E+5   4.86685E+5
  -9.39258E+5   4.80638E+5
  -9.31487E+5   4.73167E+5
  -9.24525E+5   4.65292E+5
  -9.17503E+5   4.57988E+5
  -9.09493E+5   4.49386E+5
  -9.01517E+5   4.41216E+5
  -8.93320E+5   4.34077E+5
  -8.86290E+5   4.27068E+5
  -8.78880E+5   4.18733E+5
  -8.71085E+5   4.10380E+5
  -8.62867E+5   4.03314E+5
  -8.55501E+5   3.96181E+5
  -8.48422E+5   3.87634E+5
  -8.40510E+5   3.79195E+5
  -8.32551E+5   3.71779E+5
  -8.24828E+5   3.64662E+5
  -8.17991E+5   3.56736E+5
  -8.11147E+5   3.47829E+5
  -8.03101E+5   3.39205E+5
  -7.95648E+5   3.31566E+5
  -7.88533E+5   3.24163E+5
  -7.81230E+5   3.15880E+5
  -7.73657E+5   3.08122E+5
  -7.65631E+5   3.00719E+5
  -7.58051E+5   2.94262E+5
  -7.50977E+5   2.87588E+5
  -7.43580E+5   2.80490E+5
  -7.36055E+5   2.73244E+5
  -7.27590E+5   2.66335E+5
  -7.19700E+5   2.60572E+5
  -7.12772E+5   2.54808E+5
  -7.05988E+5   2.48300E+5
  -6.98276E+5   2.41285E+5
  -6.90342E+5   2.35213E+5
  -6.83510E+5   2.29466E+5
  -6.77254E+5   2.22658E+5
  -6.69684E+5   2.15366E+5
  -6.60686E+5   2.09242E+5
  -6.53118E+5   2.04051E+5
  -6.46298E+5   1.98654E+5
  -6.39668E+5   1.92820E+5
  -6.32257E+5   1.86557E+5
  -6.24292E+5   1.80425E+5
  -6.16121E+5   1.75605E+5
  -6.09376E+5   1.70778E+5
  -6.03106E+5   1.65268E+5
  -5.96385E+5   1.58763E+5
  -5.89407E+5   1.52681E+5
  -5.82398E+5   1.47026E+5
  -5.75690E+5   1.41208E+5
  -5.69105E+5   1.35143E+5
  -5.61210E+5   1.29137E+5
  -5.53665E+5   1.24422E+5
  -5.46686E+5   1.20023E+5
  -5.40730E+5   1.15031E+5
  -5.34645E+5   1.09797E+5
  -5.27778E+5   1.05186E+5
  -5.21460E+5   1.00171E+5
  -5.15233E+5   9.48478E+4
  -5.08394E+5   8.95595E+4
  -5.01590E+5   8.49832E+4
  -4.95116E+5   8.00182E+4
  -4.88948E+5   7.52701E+4
  -4.83217E+5   6.98791E+4
  -4.77068E+5   6.40879E+4
  -4.70685E+5   5.85568E+4
  -4.64073E+5   5.34420E+4
  -4.57908E+5   4.90098E+4
  -4.52053E+5   4.41020E+4
  -4.45603E+5   3.91918E+4
  -4.39770E+5   3.45225E+4
  -4.33656E+5   3.04118E+4
  -4.28050E+5   2.60143E+4
  -4.22069E+5   2.07882E+4
  -4.15760E+5   1.63421E+4
  -4.09315E+5   1.27467E+4
  -4.03373E+5   9.27551E+3
  -3.98344E+5   4.84654E+3
  -3.92623E+5   6.92465E+2
  -3.86469E+5  -3.66122E+3
  -3.80256E+5  -7.09976E+3
  -3.74344E+5  -1.06593E+4
  -3.68755E+5  -1.44773E+4
  -3.62742E+5  -1.78109E+4
  -3.57009E+5  -2.11217E+4
  -3.51105E+5  -2.41294E+4
  -3.46134E+5  -2.70511E+4
  -3.40796E+5  -2.99223E+4
  -3.34871E+5  -3.30797E+4
  -3.29330E+5  -3.57236E+4
  -3.24075E+5  -3.80515E+4
  -3.18648E+5  -4.06125E+4
  -3.13279E+5  -4.34228E+4
  -3.07697E+5  -4.54479E+4
  -3.02294E+5  -4.78048E+4
  -2.97265E+5  -4.99841E+4
  -2.91876E+5  -5.22572E+4
  -2.86576E+5  -5.40439E+4
  -2.80978E+5  -5.58415E+4
  -2.76000E+5  -5.70542E+4
  -2.71403E+5  -5.91015E+4
  -2.66488E+5  -6.12904E+4
  -2.61253E+5  -6.27962E+4
  -2.55959E+5  -6.43530E+4
  -2.51504E+5  -6.51347E+4
  -2.46809E+5  -6.64647E+4
  -2.41878E+5  -6.80200E+4
  -2.37110E+5  -6.91943E+4
  -2.32495E+5  -7.04842E+4
  -2.27826E+5  -7.14492E+4
  -2.23458E+5  -7.29688E+4
  -2.18658E+5  -7.43125E+4
  -2.13667E+5  -7.52261E+4
  -2.09654E+5  -7.59058E+4
  -2.05405E+5  -7.68253E+4
  -2.01087E+5  -7.78967E+4
  -1.96010E+5  -7.91637E+4
  -1.91851E+5  -7.96048E+4
  -1.87772E+5  -8.02703E+4
  -1.83228E+5  -8.09522E+4
  -1.79136E+5  -8.14818E+4
  -1.74863E+5  -8.16005E+4
  -1.70729E+5  -8.19381E+4
  -1.67148E+5  -8.27629E+4
  -1.63294E+5  -8.31383E+4
  -1.59102E+5  -8.37028E+4
  -1.54469E+5  -8.42544E+4
  -1.50401E+5  -8.43901E+4
  -1.46579E+5  -8.44000E+4
  -1.42803E+5  -8.47459E+4
  -1.38877E+5  -8.51573E+4
  -1.34942E+5  -8.52872E+4
  -1.31270E+5  -8.54637E+4
  -1.27156E+5  -8.56838E+4
  -1.23484E+5  -8.56814E+4
  -1.19636E+5  -8.56384E+4
  -1.15796E+5  -8.53611E+4
  -1.12372E+5  -8.52742E+4
  -1.09000E+5  -8.49693E+4
  -1.05595E+5  -8.50553E+4
  -1.01730E+5  -8.48162E+4
  -9.80696E+4  -8.43794E+4
  -9.50365E+4  -8.40629E+4
  -9.17430E+4  -8.36597E+4
  -8.81833E+4  -8.33900E+4
  -8.49047E+4  -8.23466E+4
  -8.17698E+4  -8.19789E+4
  -7.87959E+4  -8.14071E+4
  -7.52797E+4  -8.10012E+4
  -7.22702E+4  -8.02628E+4
  -6.93199E+4  -7.93919E+4
  -6.64642E+4  -7.86374E+4
  -6.37860E+4  -7.76842E+4
  -6.09950E+4  -7.67295E+4
  -5.80267E+4  -7.61374E+4
  -5.54090E+4  -7.49483E+4
  -5.27138E+4  -7.39203E+4
  -5.01731E+4  -7.30344E+4
  -4.74589E+4  -7.20710E+4
  -4.49004E+4  -7.10442E+4
  -4.26855E+4  -6.98582E+4
  -4.02487E+4  -6.88825E+4
  -3.80114E+4  -6.79549E+4
  -3.56684E+4  -6.68889E+4
  -3.32498E+4  -6.57316E+4
  -3.11713E+4  -6.46461E+4
  -2.92728E+4  -6.32799E+4
  -2.70438E+4  -6.23395E+4
  -2.48965E+4  -6.08920E+4
  -2.31339E+4  -5.97440E+4
  -2.13950E+4  -5.83640E+4
  -1.95632E+4  -5.74553E+4
  -1.74766E+4  -5.60094E+4
  -1.58675E+4  -5.47170E+4
  -1.40368E+4  -5.33895E+4
  -1.26192E+4  -5.22070E+4
  -1.09627E+4  -5.07592E+4
  -9.16041E+3  -4.96922E+4
  -7.78519E+3  -4.82518E+4
  -6.12313E+3  -4.71246E+4
  -5.07283E+3  -4.54863E+4
  -3.34546E+3  -4.45447E+4
  -1.99135E+3  -4.28435E+4
  -9.42598E+2  -4.17268E+4
   2.33049E+2  -4.04098E+4
   1.60795E+3  -3.94600E+4
   2.94422E+3  -3.77455E+4
   4.13064E+3  -3.65209E+4
   5.14717E+3  -3.51820E+4
   6.27105E+3  -3.36256E+4
   7.43122E+3  -3.28201E+4
   8.34823E+3  -3.13702E+4
   9.50882E+3  -3.00439E+4
   1.05312E+4  -2.86310E+4
   1.15139E+4  -2.76146E+4
   1.25143E+4  -2.62940E+4
   1.33303E+4  -2.47969E+4
   1.42058E+4  -2.35149E+4
   1.51881E+4  -2.23294E+4
   1.56215E+4  -2.12633E+4
   1.65263E+4  -2.00084E+4
   1.73319E+4  -1.85554E+4
   1.80164E+4  -1.72403E+4
   1.86998E+4  -1.61165E+4
   1.92063E+4  -1.50398E+4
   1.96908E+4  -1.38761E+4
   2.04304E+4  -1.24485E+4
   2.09144E+4  -1.15097E+4
   2.14074E+4  -1.01931E+4
   2.19744E+4  -9.06317E+3
   2.22312E+4  -7.77593E+3
   2.27465E+4  -6.66176E+3
   2.31076E+4  -5.79516E+3
   2.32769E+4  -4.63590E+3
   2.37028E+4  -3.35966E+3
   2.42346E+4  -2.29007E+3
   2.42356E+4  -1.20217E+3
   2.47370E+4  -1.65566E+2
   2.47118E+4   8.19413E+2
   2.49550E+4   1.86898E+3
   2.51243E+4   2.85831E+3
   2.52655E+4   3.90056E+3
   2.53389E+4   4.77884E+3
   2.55378E+4   5.45611E+3
   2.56863E+4   6.69638E+3
   2.57215E+4   7.73746E+3
   2.54806E+4   8.68454E+3
   2.56772E+4   9.22453E+3
   2.56571E+4   1.01820E+4
   2.56684E+4   1.11998E+4
   2.54948E+4   1.19893E+4
   2.54406E+4   1.29729E+4
   2.53993E+4   1.35794E+4
   2.51408E+4   1.43491E+4
   2.51424E+4   1.53812E+4
   2.49985E+4   1.61116E+4
   2.48525E+4   1.69047E+4
   2.46391E+4   1.75279E+4
   2.44213E+4   1.84314E+4
   2.44088E+4   1.91622E+4
   2.40971E+4   1.96837E+4
   2.37136E+4   2.04844E+4
   2.34728E+4   2.09773E+4
   2.29703E+4   2.17687E+4
   2.29670E+4   2.22910E+4
   2.24576E+4   2.30067E+4
   2.20218E+4   2.34241E+4
   2.17557E+4   2.40376E+4
   2.16306E+4   2.47550E+4
   2.12309E+4   2.52930E+4
   2.10407E+4   2.57983E+4
   2.02126E+4   2.60339E+4
   2.00789E+4   2.65587E+4
   1.95482E+4   2.71291E+4
   1.93802E+4   2.74186E+4
   1.90181E+4   2.79793E+4
   1.83176E+4   2.84906E+4
   1.79060E+4   2.87714E+4
   1.76167E+4   2.92054E+4
   1.70773E+4   2.97388E+4
   1.68714E+4   3.02337E+4
   1.63085E+4   3.04844E+4
   1.58118E+4   3.08222E+4
   1.52551E+4   3.13154E+4
   1.48974E+4   3.14169E+4
   1.44165E+4   3.17728E+4
   1.40246E+4   3.18051E+4
   1.37003E+4   3.23217E+4
   1.30461E+4   3.22556E+4
   1.27562E+4   3.28697E+4
   1.20645E+4   3.32190E+4
   1.13845E+4   3.34467E+4
   1.13748E+4   3.33979E+4
   1.07047E+4   3.37189E+4
   1.01714E+4   3.39451E+4
   9.82108E+3   3.39532E+4
   9.05169E+3   3.42031E+4
   8.75787E+3   3.45464E+4
   8.00974E+3   3.45760E+4
   7.64109E+3   3.45828E+4
   7.20431E+3   3.46196E+4
   6.76692E+3   3.48217E+4
   6.10789E+3   3.49769E+4
   5.50336E+3   3.50644E+4
   5.17725E+3   3.50381E+4
   4.64137E+3   3.49295E+4
   4.10946E+3   3.50660E+4
   3.51472E+3   3.52341E+4
   3.37835E+3   3.49508E+4
   2.71210E+3   3.52146E+4
   2.28250E+3   3.49848E+4
   1.80406E+3   3.50870E+4
   1.38516E+3   3.50735E+4
   8.02622E+2   3.49894E+4
   4.09779E+2   3.46506E+4
  -1.38704E+2   3.46871E+4
  -4.97011E+2   3.44560E+4
  -8.88728E+2   3.43909E+4
  -1.45307E+3   3.42749E+4
  -1.98136E+3   3.45609E+4
  -2.34673E+3   3.41853E+4
