 LCModel (Version 6.3-1N) Copyright: S.W. Provencher.          Ref.: Magn. Reson. Med. 30:672-679 (1993).                
 Slice_N1@9_15  28-Feb-2025 11:44:47
 27 lines in following concentration table = NCONC+1
    Conc.  %SD /Cr+PCr  Metabolite                                         
 1.50E-04  26% 9.6E-04 Mac                                                 
    0.363 169%   2.319 Cr                                                  
    0.889  73%   5.681 PCr                                                 
    1.029  49%   6.575 Ins                                                 
    1.777  31%  11.354 NAA                                                 
    1.087  44%   6.945 Tau                                                 
    0.000 999%   0.000 PCho                                                
    0.231  61%   1.476 GPC                                                 
    3.316  31%  21.187 Glu                                                 
    1.734  32%  11.082 Gln                                                 
    0.000 999%   0.000 Ala                                                 
    0.000 999%   0.000 Asc                                                 
    0.322 102%   2.055 Asp                                                 
    0.000 999%   0.000 GABA                                                
 7.19E-02 289%   0.459 Glc                                                 
    0.000 999%   0.000 GSH                                                 
 3.50E-02 911%   0.224 Lac                                                 
    0.870  41%   5.562 NAAG                                                
    0.414 127%   2.648 PE                                                  
    0.231  61%   1.476 GPC+PCho                                            
    2.647  30%  16.916 NAA+NAAG                                            
    5.050  29%  32.269 Glu+Gln                                             
    1.252  35%   8.000 Cr+PCr                                              
    2.647  30%  16.916 NAA+NAAG                                            
    1.252  35%   8.000 Cr+PCr                                              
    5.050  29%  32.269 Glu+Gln                                             
   6 lines in following misc. output table
  FWHM = 0.033 ppm    S/N =   2                                            
  Data shift = 0.008 ppm                                                   
  Ph:-118 deg       0.0 deg/ppm                                            
  alphaB,S = 1.0E-01,   2.7E+00                                            
   19 spline knots.   Ns = 6(1)                                            
  ( 7) 2 infls.   ( 4) 2 extrs.                                            
  480 points on ppm-axis = NY
      4.100000     4.091866     4.083733     4.075600     4.067466     4.059333     4.051199     4.043066     4.034933     4.026799
      4.018666     4.010532     4.002399     3.994265     3.986132     3.977998     3.969864     3.961731     3.953597     3.945463
      3.937330     3.929196     3.921062     3.912929     3.904795     3.896662     3.888528     3.880394     3.872261     3.864127
      3.855993     3.847860     3.839726     3.831592     3.823459     3.815325     3.807191     3.799058     3.790924     3.782790
      3.774657     3.766523     3.758389     3.750256     3.742122     3.733989     3.725855     3.717721     3.709588     3.701454
      3.693320     3.685187     3.677053     3.668919     3.660786     3.652652     3.644518     3.636385     3.628251     3.620117
      3.611984     3.603850     3.595716     3.587583     3.579449     3.571316     3.563182     3.555048     3.546915     3.538781
      3.530647     3.522514     3.514380     3.506246     3.498113     3.489979     3.481845     3.473712     3.465578     3.457444
      3.449311     3.441177     3.433043     3.424910     3.416776     3.408643     3.400509     3.392375     3.384242     3.376108
      3.367974     3.359841     3.351707     3.343573     3.335440     3.327306     3.319172     3.311039     3.302905     3.294771
      3.286638     3.278504     3.270370     3.262237     3.254103     3.245970     3.237836     3.229702     3.221569     3.213435
      3.205301     3.197168     3.189034     3.180900     3.172767     3.164633     3.156499     3.148366     3.140232     3.132098
      3.123965     3.115831     3.107697     3.099564     3.091430     3.083297     3.075163     3.067029     3.058896     3.050762
      3.042628     3.034495     3.026361     3.018227     3.010094     3.001960     2.993826     2.985693     2.977559     2.969425
      2.961292     2.953158     2.945024     2.936891     2.928757     2.920624     2.912490     2.904356     2.896223     2.888089
      2.879955     2.871822     2.863688     2.855554     2.847421     2.839287     2.831153     2.823020     2.814886     2.806752
      2.798619     2.790485     2.782351     2.774218     2.766084     2.757951     2.749817     2.741683     2.733550     2.725416
      2.717282     2.709149     2.701015     2.692881     2.684748     2.676614     2.668480     2.660347     2.652213     2.644079
      2.635946     2.627812     2.619678     2.611545     2.603411     2.595278     2.587144     2.579010     2.570877     2.562743
      2.554609     2.546476     2.538342     2.530208     2.522075     2.513941     2.505807     2.497674     2.489540     2.481406
      2.473273     2.465139     2.457006     2.448872     2.440738     2.432605     2.424471     2.416337     2.408204     2.400070
      2.391936     2.383803     2.375669     2.367535     2.359402     2.351268     2.343134     2.335001     2.326867     2.318733
      2.310600     2.302466     2.294333     2.286199     2.278065     2.269932     2.261798     2.253664     2.245531     2.237397
      2.229263     2.221130     2.212996     2.204862     2.196729     2.188595     2.180461     2.172328     2.164194     2.156060
      2.147927     2.139793     2.131660     2.123526     2.115392     2.107259     2.099125     2.090991     2.082858     2.074724
      2.066590     2.058457     2.050323     2.042189     2.034056     2.025922     2.017788     2.009655     2.001521     1.993387
      1.985254     1.977120     1.968987     1.960853     1.952719     1.944586     1.936452     1.928318     1.920185     1.912051
      1.903917     1.895784     1.887650     1.879516     1.871383     1.863249     1.855115     1.846982     1.838848     1.830714
      1.822581     1.814447     1.806314     1.798180     1.790046     1.781913     1.773779     1.765645     1.757512     1.749378
      1.741244     1.733111     1.724977     1.716843     1.708710     1.700576     1.692442     1.684309     1.676175     1.668041
      1.659908     1.651774     1.643641     1.635507     1.627373     1.619240     1.611106     1.602972     1.594839     1.586705
      1.578571     1.570438     1.562304     1.554170     1.546037     1.537903     1.529769     1.521636     1.513502     1.505368
      1.497235     1.489101     1.480968     1.472834     1.464700     1.456567     1.448433     1.440299     1.432166     1.424032
      1.415898     1.407765     1.399631     1.391497     1.383364     1.375230     1.367096     1.358963     1.350829     1.342695
      1.334562     1.326428     1.318295     1.310161     1.302027     1.293894     1.285760     1.277626     1.269493     1.261359
      1.253225     1.245092     1.236958     1.228824     1.220691     1.212557     1.204423     1.196290     1.188156     1.180022
      1.171889     1.163755     1.155622     1.147488     1.139354     1.131221     1.123087     1.114953     1.106820     1.098686
      1.090552     1.082419     1.074285     1.066151     1.058018     1.049884     1.041750     1.033617     1.025483     1.017349
      1.009216     1.001082     0.992949     0.984815     0.976681     0.968548     0.960414     0.952280     0.944147     0.936013
      0.927879     0.919746     0.911612     0.903478     0.895345     0.887211     0.879077     0.870944     0.862810     0.854676
      0.846543     0.838409     0.830276     0.822142     0.814008     0.805875     0.797741     0.789607     0.781474     0.773340
      0.765206     0.757073     0.748939     0.740805     0.732672     0.724538     0.716404     0.708271     0.700137     0.692003
      0.683870     0.675736     0.667603     0.659469     0.651335     0.643202     0.635068     0.626934     0.618801     0.610667
      0.602533     0.594400     0.586266     0.578132     0.569999     0.561865     0.553731     0.545598     0.537464     0.529330
      0.521197     0.513063     0.504930     0.496796     0.488662     0.480529     0.472395     0.464261     0.456128     0.447994
      0.439861     0.431727     0.423593     0.415460     0.407326     0.399192     0.391059     0.382925     0.374792     0.366658
      0.358524     0.350391     0.342257     0.334124     0.325990     0.317856     0.309723     0.301589     0.293455     0.285322
      0.277188     0.269055     0.260921     0.252787     0.244654     0.236520     0.228386     0.220253     0.212119     0.203986
 NY phased data points follow
   6.56632E+00  1.73405E+00  9.48011E+00 -5.65832E+00 -2.10280E+01  1.63179E+00  1.25381E+01  3.08281E+00  7.50426E+00  1.62433E+01
  -5.68798E+00 -9.21066E+00 -5.46440E+00 -1.79336E+01 -1.90947E+01 -3.06411E+01 -4.06307E+01 -3.64888E+01 -3.62367E+01 -7.59401E+01
  -8.57030E+01 -7.83237E+01 -9.36946E+01 -6.34558E+01 -6.16561E+01 -4.98458E+01 -1.84817E+01 -3.61676E+01 -9.10242E+00  7.74802E+00
  -3.37370E+00  8.10159E+00 -5.52465E+00  1.57734E+01  2.79496E+01  1.88611E+01  2.48024E+01  1.92249E+01  3.12600E+01 -9.53044E+00
  -2.97315E+01 -3.17840E+01 -6.91586E+01 -5.81042E+01 -4.80803E+01 -2.01262E+01  1.77778E+01  1.65409E+01  2.84210E+01  5.19543E+01
   5.22708E+01  6.87276E+01  4.85697E+01  3.00201E+01  6.68635E+01  2.77511E+01  1.48950E+01  3.85164E+01  2.19205E+01  1.47834E+01
  -8.26464E+00  9.70663E+00  3.38481E+01  8.79589E+00  4.21850E+01  5.85485E+01  4.64968E+01  7.89178E+01  5.00466E+01  3.12177E+01
   1.36675E+01  4.66937E-01  1.44019E+01  8.82781E+00  4.51925E+01  4.25070E+01  5.92376E+01  8.29375E+01  7.50654E+01  7.14352E+01
   7.70962E+01  1.02034E+02  7.02409E+01  7.11822E+01  6.23982E+01  4.07203E+01  4.70394E+01  3.81162E+01  4.33364E+01  4.11505E+01
   7.05534E+01  7.98928E+01  8.12966E+01  8.39782E+01  8.34230E+01  1.21047E+02  1.02422E+02  1.05753E+02  1.26725E+02  1.16864E+02
   1.37786E+02  1.22580E+02  1.20266E+02  1.22340E+02  1.05275E+02  9.46872E+01  7.43837E+01  7.43922E+01  4.48715E+01  3.55755E+01
   1.21546E+01 -4.50364E+01 -8.22490E+01 -9.35574E+01 -6.15960E+01 -5.81883E+01 -4.05809E+01 -3.86106E+01 -4.11869E+01 -4.24237E+01
  -3.93911E+01 -1.14434E+01 -2.50409E+01 -1.40881E+01 -1.38549E+01  4.48087E+00  1.59433E+01  2.84486E+01  6.12989E+01  6.62112E+01
   1.16724E+02  1.36307E+02  1.29590E+02  8.69524E+01  3.22745E+01 -1.76681E-01 -2.75434E+01 -3.48597E+01 -5.42470E+01 -2.06414E+01
  -1.21590E+01 -5.05661E+01 -3.77500E+01 -3.59772E+01 -4.61923E+01 -2.17586E+01 -4.81323E+01 -6.87512E+01 -4.33777E+01 -5.63434E+01
  -4.38301E+01 -3.45931E+01 -3.96344E+01 -3.38657E+01 -4.24149E+01 -4.89952E+01 -4.16794E+01 -4.64318E+01 -5.77116E+01 -3.62409E+01
  -3.99380E+01 -3.69576E+01 -2.78137E+01 -3.46795E+01 -2.75591E+01 -2.72419E+01 -4.10841E+01 -5.15161E+01 -2.23322E+01 -2.22288E+01
  -3.52554E+01 -2.52877E+01 -1.28588E+01 -1.29413E+01 -1.72229E+00  3.20644E+01 -4.15655E+00  2.48489E+00  1.95108E+01  1.30452E+01
   2.74538E+01 -1.91269E+01 -6.61030E+00 -4.97053E-01 -3.11244E+01 -4.62989E+01 -5.20593E+01 -3.85922E+01 -5.47924E+01 -3.61935E+01
  -5.07005E+01 -5.66721E+01 -3.93911E+01 -5.84126E+01 -5.64054E+01 -5.22106E+01 -3.75508E+01 -5.19741E+01 -5.33024E+01 -5.84997E+01
  -6.59115E+01 -4.70274E+01 -4.90392E+01 -4.19935E+01 -3.28749E+01 -1.94699E+01 -3.51544E+01 -4.76510E+01 -5.18158E+01 -5.82407E+01
  -6.83039E+01 -9.31251E+01 -8.37785E+01 -6.73331E+01 -5.50501E+01 -3.33504E+01  2.09894E+00  2.72965E+01  5.78799E+01  5.03778E+01
   3.70055E+01  5.73441E+01  3.57284E+01  1.50244E+01  1.26666E+01  2.31561E+01  2.14498E+01  3.49397E+01  1.90894E+01  6.16067E+00
   3.67124E+01  1.37518E+01  5.84748E+00  6.29418E+00 -7.13798E+00 -2.84417E+01 -2.80484E+01 -3.20139E+01 -6.88838E+01 -7.71919E+01
  -7.05131E+01 -7.92540E+01 -9.72202E+01 -8.22193E+01 -7.53263E+01 -6.66646E+01 -6.23881E+01 -6.70363E+01 -5.53250E+01 -5.37394E+01
  -7.75641E+01 -8.59304E+01 -7.47357E+01 -1.10058E+02 -1.23152E+02 -1.33425E+02 -1.22239E+02 -1.01760E+02 -8.85411E+01 -3.62577E+01
   3.59562E+01  9.45474E+01  7.33523E+01  8.41782E+01  8.53486E+01  8.19770E+01  7.72694E+01  3.98835E+01  4.83931E+01  4.89899E+01
   4.92567E+01  3.36720E+01  4.50674E+01  5.06117E+01  5.00633E+01  4.66697E+01  3.44404E+01  4.22846E+01  3.31843E+01  3.42328E+01
   1.23271E+01  2.71811E+01  2.27509E+01  1.49684E+01  1.28782E+01 -1.84482E+01  5.58094E+00  7.12998E+00 -6.73412E+00 -1.77201E+01
  -2.22741E+01 -3.13723E+01 -2.65969E+01 -4.64165E+01 -8.41065E+01 -8.02903E+01 -8.77672E+01 -9.27301E+01 -1.04188E+02 -1.11457E+02
  -1.40951E+02 -1.28234E+02 -1.20824E+02 -1.39163E+02 -1.06303E+02 -1.13815E+02 -1.06904E+02 -9.45856E+01 -8.21162E+01 -7.54657E+01
  -5.14241E+01 -3.48535E+00 -3.82852E+00  2.38446E+01  4.01697E+01  6.24058E+01  9.91995E+01  8.61977E+01  9.46397E+01  1.15519E+02
   1.26801E+02  1.36699E+02  1.40825E+02  1.49807E+02  1.40572E+02  1.51909E+02  1.65291E+02  1.69969E+02  1.99308E+02  1.88265E+02
   1.68436E+02  1.67283E+02  1.59850E+02  1.13798E+02  7.94744E+01  7.92993E+01  5.27407E+01  4.90194E+01  5.24632E+01  5.82014E+01
   4.10847E+01  3.00262E+01  5.51912E+01  4.69166E+01  5.21013E+01  5.78948E+01  3.91946E+01  4.85673E+01  9.01094E+01  9.43708E+01
   8.50246E+01  1.04886E+02  1.04284E+02  1.03198E+02  9.79852E+01  8.64663E+01  1.00559E+02  9.87482E+01  9.55070E+01  9.78553E+01
   6.92860E+01  8.29240E+01  8.75732E+01  7.15202E+01  8.87823E+01  6.27472E+01  6.02245E+01  7.94329E+01  7.14411E+01  7.03707E+01
   6.58700E+01  7.20443E+01  7.81154E+01  7.21887E+01  7.93785E+01  8.44511E+01  7.61540E+01  8.30282E+01  8.37373E+01  8.61104E+01
   8.60117E+01  9.49550E+01  1.18248E+02  1.13291E+02  1.28589E+02  1.28622E+02  1.37180E+02  1.70894E+02  1.71678E+02  1.94089E+02
   1.91838E+02  1.90181E+02  2.17540E+02  2.02178E+02  1.94648E+02  1.86021E+02  1.63553E+02  1.64365E+02  1.64816E+02  1.62695E+02
   1.58016E+02  1.47130E+02  1.16937E+02  9.25273E+01  1.00451E+02  9.82753E+01  1.05422E+02  9.60551E+01  6.28568E+01  8.42643E+01
   9.21834E+01  6.98262E+01  8.83868E+01  9.38793E+01  7.26312E+01  7.05164E+01  8.05031E+01  7.97343E+01  7.29661E+01  8.03572E+01
   6.19241E+01  4.31067E+01  6.94848E+01  6.86249E+01  6.05039E+01  7.35751E+01  5.49085E+01  4.60144E+01  5.93303E+01  4.75869E+01
   5.51104E+01  7.66153E+01  6.54241E+01  5.49045E+01  6.33156E+01  6.93604E+01  5.78180E+01  5.17897E+01  3.36520E+01  3.42941E+01
   6.18493E+01  5.38623E+01  5.13049E+01  4.96680E+01  5.51199E+01  4.98728E+01  5.84542E+01  8.00968E+01  4.06729E+01  3.59572E+01
   4.95767E+01  5.17575E+01  4.71447E+01  5.06576E+01  6.92626E+01  5.68967E+01  4.91857E+01  3.95275E+01  4.87746E+01  3.72712E+01
   4.44817E+01  6.65830E+01  5.43189E+01  6.03561E+01  3.18749E+01  4.49873E+01  5.66511E+01  5.50260E+01  6.15244E+01  2.36388E+01
   5.31998E+01  6.16580E+01  6.20709E+01  7.89074E+01  4.38627E+01  5.06960E+01  3.85016E+01  3.35184E+01  7.16275E+01  6.32485E+01
 NY points of the fit to the data follow
  -9.88722E+00 -1.04994E+01 -1.27539E+01 -1.55726E+01 -1.78827E+01 -1.79500E+01 -1.52203E+01 -1.00563E+01 -4.29957E+00  4.76601E-02
   2.02929E+00  5.71985E-01 -4.13320E+00 -9.60002E+00 -1.30088E+01 -1.94150E+01 -2.86133E+01 -3.89140E+01 -4.89155E+01 -5.81852E+01
  -6.55992E+01 -6.96422E+01 -6.74056E+01 -5.82587E+01 -4.54742E+01 -3.23333E+01 -2.02544E+01 -9.33957E+00 -1.30799E+00  6.31384E+00
   1.32443E+01  1.88081E+01  2.39892E+01  3.17996E+01  4.02171E+01  5.00134E+01  5.51530E+01  5.41728E+01  4.27950E+01  2.18742E+01
  -5.14415E+00 -3.16915E+01 -5.07504E+01 -5.61556E+01 -4.69445E+01 -2.67789E+01 -1.59428E+00  2.10574E+01  3.88957E+01  4.90751E+01
   5.41493E+01  5.30788E+01  5.04149E+01  4.82846E+01  4.36521E+01  3.75185E+01  3.27908E+01  2.82750E+01  2.39749E+01  1.98598E+01
   1.64317E+01  1.51956E+01  1.83687E+01  2.64482E+01  3.55859E+01  4.38115E+01  5.05087E+01  5.22047E+01  4.82748E+01  3.95796E+01
   2.79960E+01  1.86231E+01  1.41580E+01  1.44511E+01  1.84209E+01  2.67853E+01  3.78202E+01  5.03717E+01  6.08100E+01  6.95856E+01
   7.37321E+01  7.15658E+01  6.36302E+01  5.15568E+01  3.78086E+01  2.55611E+01  1.75239E+01  1.47983E+01  1.72966E+01  2.27536E+01
   3.02075E+01  3.68935E+01  4.33719E+01  4.91474E+01  5.33321E+01  5.60154E+01  5.92575E+01  6.38691E+01  6.92002E+01  7.84211E+01
   8.86429E+01  9.84233E+01  1.03797E+02  1.08443E+02  1.11094E+02  1.07523E+02  9.61774E+01  7.84290E+01  5.63196E+01  3.14774E+01
   3.58051E+00 -2.38255E+01 -4.28104E+01 -5.16435E+01 -5.16460E+01 -4.78518E+01 -4.08629E+01 -3.47046E+01 -3.15817E+01 -3.09644E+01
  -3.20502E+01 -3.31540E+01 -3.06651E+01 -2.32402E+01 -1.36047E+01 -5.23094E+00  1.57279E+01  4.63109E+01  7.76391E+01  1.03351E+02
   1.21264E+02  1.29162E+02  1.23970E+02  1.02032E+02  6.78614E+01  3.39644E+01  9.12793E+00 -7.37485E+00 -1.89443E+01 -2.24242E+01
  -2.51237E+01 -2.87422E+01 -3.26424E+01 -3.65526E+01 -4.01124E+01 -4.25376E+01 -4.35707E+01 -4.33064E+01 -4.18528E+01 -3.96995E+01
  -3.74636E+01 -3.56980E+01 -3.42663E+01 -3.29141E+01 -3.15849E+01 -3.02278E+01 -2.90012E+01 -2.76302E+01 -2.64143E+01 -2.60398E+01
  -2.68543E+01 -2.75059E+01 -2.70372E+01 -2.56108E+01 -2.44949E+01 -2.50637E+01 -2.76319E+01 -3.03195E+01 -3.17133E+01 -3.20659E+01
  -3.10206E+01 -2.85657E+01 -2.42684E+01 -1.84328E+01 -1.36393E+01 -1.09036E+01 -9.03607E+00 -6.54709E+00 -4.03974E+00 -3.15083E+00
  -5.01658E+00 -9.65890E+00 -1.61599E+01 -2.28271E+01 -2.92775E+01 -3.43172E+01 -3.58812E+01 -3.54225E+01 -3.53475E+01 -3.54079E+01
  -3.47454E+01 -3.45169E+01 -3.56713E+01 -3.83849E+01 -4.00923E+01 -4.01195E+01 -3.95770E+01 -3.96029E+01 -3.97210E+01 -3.88923E+01
  -3.76114E+01 -3.70170E+01 -3.43481E+01 -2.89297E+01 -2.15617E+01 -1.47477E+01 -1.22910E+01 -1.35029E+01 -2.65173E+01 -4.74812E+01
  -7.06549E+01 -9.22395E+01 -1.04051E+02 -1.01606E+02 -8.57025E+01 -5.96400E+01 -3.09991E+01 -7.31004E+00  6.60808E+00  1.03519E+01
   8.10997E+00  2.05463E+00  2.98271E-01  4.33953E+00  1.24697E+01  2.45772E+01  3.71096E+01  4.67199E+01  5.21988E+01  5.23792E+01
   4.54401E+01  3.34455E+01  1.64011E+01 -2.73377E+00 -2.23160E+01 -3.89288E+01 -5.34397E+01 -6.53417E+01 -7.45692E+01 -8.27931E+01
  -8.97175E+01 -9.35055E+01 -9.42160E+01 -9.10870E+01 -8.23767E+01 -7.15207E+01 -5.68138E+01 -4.81370E+01 -5.18937E+01 -6.22305E+01
  -6.66555E+01 -7.52619E+01 -9.52579E+01 -1.15744E+02 -1.27287E+02 -1.28075E+02 -1.21279E+02 -1.08610E+02 -8.48740E+01 -4.62476E+01
  -6.21878E+00  2.23424E+01  3.91211E+01  4.80931E+01  4.66668E+01  3.97533E+01  3.37808E+01  2.85892E+01  2.41961E+01  2.05531E+01
   1.77820E+01  1.60335E+01  1.51509E+01  1.50670E+01  1.55617E+01  1.64988E+01  1.75159E+01  1.85627E+01  1.99798E+01  2.14243E+01
   2.26816E+01  2.37421E+01  2.45970E+01  2.56767E+01  2.69718E+01  2.83863E+01  3.00904E+01  3.18363E+01  3.29484E+01  3.24737E+01
   2.97158E+01  2.44799E+01  1.69409E+01  8.00680E+00 -1.49658E+00 -1.02372E+01 -1.70020E+01 -2.12852E+01 -2.30984E+01 -2.26657E+01
  -2.05909E+01 -1.75987E+01 -1.42065E+01 -1.06276E+01 -7.10788E+00 -3.53141E+00  1.32381E-01  3.84592E+00  8.06781E+00  1.30572E+01
   1.84456E+01  2.43413E+01  3.09119E+01  3.80585E+01  4.53940E+01  5.31078E+01  6.08114E+01  6.81256E+01  7.48264E+01  8.08994E+01
   8.70560E+01  9.40461E+01  1.01747E+02  1.09457E+02  1.16593E+02  1.21911E+02  1.23549E+02  1.19882E+02  1.10322E+02  9.51214E+01
   7.63928E+01  5.65007E+01  3.81605E+01  2.38881E+01  1.49665E+01  1.12706E+01  1.19619E+01  1.51240E+01  1.90208E+01  2.26742E+01
   2.61955E+01  3.00778E+01  3.49038E+01  4.14747E+01  4.97791E+01  5.94045E+01  6.98201E+01  8.03735E+01  9.05367E+01  9.93980E+01
   1.05932E+02  1.09211E+02  1.08514E+02  1.03868E+02  9.56768E+01  8.51948E+01  7.42578E+01  6.43656E+01  5.65244E+01  5.13088E+01
   4.87906E+01  4.87133E+01  5.02931E+01  5.30227E+01  5.63537E+01  5.96663E+01  6.27107E+01  6.53300E+01  6.72873E+01  6.83958E+01
   6.89224E+01  6.87693E+01  6.76148E+01  6.58852E+01  6.39809E+01  6.19902E+01  6.00575E+01  5.87700E+01  5.85185E+01  6.03109E+01
   6.53562E+01  7.50476E+01  9.07964E+01  1.13046E+02  1.39941E+02  1.68228E+02  1.94642E+02  2.15265E+02  2.27300E+02  2.30209E+02
   2.26261E+02  2.18306E+02  2.09637E+02  2.02613E+02  1.97546E+02  1.93504E+02  1.88818E+02  1.81829E+02  1.71717E+02  1.58844E+02
   1.44218E+02  1.29428E+02  1.15988E+02  1.04931E+02  9.61868E+01  8.96811E+01  8.50332E+01  8.16657E+01  7.89856E+01  7.65723E+01
   7.43042E+01  7.25281E+01  7.13135E+01  7.02846E+01  6.94380E+01  6.88712E+01  6.85551E+01  6.81787E+01  6.76436E+01  6.71170E+01
   6.69839E+01  6.70037E+01  6.67227E+01  6.62284E+01  6.57874E+01  6.54166E+01  6.49797E+01  6.47349E+01  6.46765E+01  6.47161E+01
   6.47669E+01  6.44744E+01  6.38944E+01  6.31122E+01  6.23137E+01  6.15115E+01  6.10102E+01  6.08522E+01  6.10413E+01  6.13508E+01
   6.15468E+01  6.15731E+01  6.13785E+01  6.08930E+01  6.01970E+01  5.95361E+01  5.88871E+01  5.83803E+01  5.79986E+01  5.75677E+01
   5.71438E+01  5.66291E+01  5.60694E+01  5.55378E+01  5.52850E+01  5.51698E+01  5.51950E+01  5.53286E+01  5.54201E+01  5.54203E+01
   5.51687E+01  5.46002E+01  5.36371E+01  5.26647E+01  5.18243E+01  5.14162E+01  5.13862E+01  5.16444E+01  5.20907E+01  5.25555E+01
   5.25128E+01  5.20436E+01  5.14954E+01  5.08736E+01  5.02758E+01  4.97520E+01  4.89868E+01  4.79376E+01  4.65725E+01  4.49480E+01
 NY background values follow
    -8.476E+00   -7.902E+00   -7.329E+00   -6.755E+00   -6.181E+00   -5.607E+00   -5.032E+00   -4.456E+00   -3.878E+00   -3.299E+00
    -2.719E+00   -2.136E+00   -1.551E+00   -9.634E-01   -3.733E-01    2.199E-01    8.162E-01    1.416E+00    2.019E+00    2.627E+00
     3.238E+00    3.854E+00    4.475E+00    5.100E+00    5.731E+00    6.367E+00    7.009E+00    7.656E+00    8.310E+00    8.969E+00
     9.636E+00    1.031E+01    1.099E+01    1.167E+01    1.236E+01    1.306E+01    1.375E+01    1.445E+01    1.515E+01    1.586E+01
     1.656E+01    1.726E+01    1.797E+01    1.867E+01    1.937E+01    2.007E+01    2.076E+01    2.145E+01    2.213E+01    2.281E+01
     2.349E+01    2.416E+01    2.481E+01    2.547E+01    2.611E+01    2.674E+01    2.737E+01    2.798E+01    2.858E+01    2.917E+01
     2.975E+01    3.031E+01    3.086E+01    3.139E+01    3.191E+01    3.242E+01    3.290E+01    3.337E+01    3.382E+01    3.425E+01
     3.466E+01    3.505E+01    3.542E+01    3.576E+01    3.608E+01    3.638E+01    3.666E+01    3.691E+01    3.713E+01    3.733E+01
     3.750E+01    3.765E+01    3.776E+01    3.785E+01    3.790E+01    3.793E+01    3.792E+01    3.788E+01    3.781E+01    3.770E+01
     3.756E+01    3.738E+01    3.717E+01    3.693E+01    3.666E+01    3.636E+01    3.602E+01    3.566E+01    3.527E+01    3.485E+01
     3.441E+01    3.394E+01    3.345E+01    3.294E+01    3.240E+01    3.185E+01    3.128E+01    3.068E+01    3.007E+01    2.945E+01
     2.880E+01    2.815E+01    2.748E+01    2.680E+01    2.610E+01    2.540E+01    2.469E+01    2.397E+01    2.324E+01    2.251E+01
     2.177E+01    2.103E+01    2.028E+01    1.953E+01    1.878E+01    1.803E+01    1.727E+01    1.651E+01    1.576E+01    1.500E+01
     1.425E+01    1.349E+01    1.274E+01    1.199E+01    1.124E+01    1.050E+01    9.762E+00    9.028E+00    8.299E+00    7.575E+00
     6.859E+00    6.149E+00    5.446E+00    4.751E+00    4.065E+00    3.388E+00    2.721E+00    2.064E+00    1.417E+00    7.821E-01
     1.589E-01   -4.522E-01   -1.051E+00   -1.638E+00   -2.214E+00   -2.777E+00   -3.329E+00   -3.869E+00   -4.398E+00   -4.915E+00
    -5.421E+00   -5.916E+00   -6.400E+00   -6.872E+00   -7.335E+00   -7.786E+00   -8.226E+00   -8.657E+00   -9.076E+00   -9.486E+00
    -9.885E+00   -1.027E+01   -1.065E+01   -1.102E+01   -1.138E+01   -1.173E+01   -1.207E+01   -1.240E+01   -1.272E+01   -1.303E+01
    -1.334E+01   -1.363E+01   -1.391E+01   -1.419E+01   -1.446E+01   -1.472E+01   -1.497E+01   -1.521E+01   -1.544E+01   -1.567E+01
    -1.589E+01   -1.611E+01   -1.631E+01   -1.651E+01   -1.671E+01   -1.689E+01   -1.708E+01   -1.725E+01   -1.742E+01   -1.758E+01
    -1.774E+01   -1.790E+01   -1.805E+01   -1.819E+01   -1.833E+01   -1.846E+01   -1.860E+01   -1.872E+01   -1.885E+01   -1.897E+01
    -1.908E+01   -1.920E+01   -1.931E+01   -1.941E+01   -1.952E+01   -1.962E+01   -1.972E+01   -1.982E+01   -1.991E+01   -2.001E+01
    -2.010E+01   -2.019E+01   -2.028E+01   -2.037E+01   -2.046E+01   -2.054E+01   -2.063E+01   -2.071E+01   -2.080E+01   -2.088E+01
    -2.096E+01   -2.105E+01   -2.113E+01   -2.122E+01   -2.130E+01   -2.139E+01   -2.147E+01   -2.156E+01   -2.165E+01   -2.174E+01
    -2.183E+01   -2.192E+01   -2.201E+01   -2.211E+01   -2.220E+01   -2.229E+01   -2.239E+01   -2.248E+01   -2.256E+01   -2.265E+01
    -2.273E+01   -2.281E+01   -2.288E+01   -2.295E+01   -2.302E+01   -2.308E+01   -2.313E+01   -2.318E+01   -2.322E+01   -2.325E+01
    -2.327E+01   -2.329E+01   -2.330E+01   -2.329E+01   -2.328E+01   -2.326E+01   -2.322E+01   -2.318E+01   -2.312E+01   -2.305E+01
    -2.297E+01   -2.287E+01   -2.276E+01   -2.263E+01   -2.248E+01   -2.231E+01   -2.212E+01   -2.191E+01   -2.167E+01   -2.140E+01
    -2.111E+01   -2.078E+01   -2.043E+01   -2.004E+01   -1.962E+01   -1.916E+01   -1.866E+01   -1.813E+01   -1.755E+01   -1.693E+01
    -1.627E+01   -1.556E+01   -1.480E+01   -1.400E+01   -1.314E+01   -1.224E+01   -1.128E+01   -1.026E+01   -9.190E+00   -8.060E+00
    -6.870E+00   -5.622E+00   -4.318E+00   -2.961E+00   -1.555E+00   -1.011E-01    1.397E+00    2.936E+00    4.514E+00    6.128E+00
     7.774E+00    9.450E+00    1.115E+01    1.288E+01    1.463E+01    1.640E+01    1.818E+01    1.997E+01    2.178E+01    2.359E+01
     2.541E+01    2.723E+01    2.904E+01    3.085E+01    3.266E+01    3.445E+01    3.623E+01    3.800E+01    3.974E+01    4.147E+01
     4.317E+01    4.484E+01    4.649E+01    4.811E+01    4.971E+01    5.127E+01    5.281E+01    5.433E+01    5.581E+01    5.727E+01
     5.869E+01    6.009E+01    6.146E+01    6.279E+01    6.410E+01    6.537E+01    6.662E+01    6.783E+01    6.901E+01    7.016E+01
     7.127E+01    7.235E+01    7.340E+01    7.442E+01    7.540E+01    7.634E+01    7.725E+01    7.813E+01    7.897E+01    7.977E+01
     8.054E+01    8.127E+01    8.196E+01    8.262E+01    8.325E+01    8.384E+01    8.440E+01    8.492E+01    8.542E+01    8.588E+01
     8.631E+01    8.672E+01    8.709E+01    8.744E+01    8.775E+01    8.804E+01    8.831E+01    8.854E+01    8.876E+01    8.894E+01
     8.911E+01    8.925E+01    8.936E+01    8.946E+01    8.953E+01    8.958E+01    8.961E+01    8.962E+01    8.961E+01    8.959E+01
     8.954E+01    8.948E+01    8.940E+01    8.930E+01    8.919E+01    8.906E+01    8.892E+01    8.876E+01    8.858E+01    8.839E+01
     8.819E+01    8.797E+01    8.774E+01    8.749E+01    8.723E+01    8.696E+01    8.668E+01    8.638E+01    8.607E+01    8.575E+01
     8.542E+01    8.508E+01    8.473E+01    8.437E+01    8.400E+01    8.362E+01    8.323E+01    8.283E+01    8.242E+01    8.200E+01
     8.158E+01    8.115E+01    8.071E+01    8.027E+01    7.982E+01    7.936E+01    7.890E+01    7.843E+01    7.796E+01    7.748E+01
     7.700E+01    7.652E+01    7.603E+01    7.554E+01    7.505E+01    7.455E+01    7.405E+01    7.355E+01    7.305E+01    7.255E+01
     7.204E+01    7.154E+01    7.104E+01    7.053E+01    7.003E+01    6.953E+01    6.903E+01    6.853E+01    6.803E+01    6.754E+01
     6.705E+01    6.656E+01    6.608E+01    6.559E+01    6.511E+01    6.464E+01    6.416E+01    6.369E+01    6.322E+01    6.275E+01
     6.228E+01    6.182E+01    6.135E+01    6.089E+01    6.043E+01    5.997E+01    5.951E+01    5.906E+01    5.860E+01    5.814E+01
     5.769E+01    5.724E+01    5.678E+01    5.633E+01    5.588E+01    5.543E+01    5.498E+01    5.453E+01    5.407E+01    5.362E+01
 Mac      Conc. = 1.50E-04
  -1.45044E+01 -1.32540E+01 -1.13895E+01 -9.26349E+00 -7.54382E+00 -6.56872E+00 -6.89160E+00 -8.34849E+00 -1.01372E+01 -1.13279E+01
  -1.16289E+01 -1.25088E+01 -1.47621E+01 -1.83123E+01 -2.36235E+01 -3.07259E+01 -3.79655E+01 -4.32329E+01 -4.45965E+01 -4.21892E+01
  -3.70551E+01 -3.08981E+01 -2.48775E+01 -1.99135E+01 -1.68102E+01 -1.48195E+01 -1.29789E+01 -1.06725E+01 -7.44887E+00 -3.26837E+00
   9.35181E-01  4.05125E+00  5.49189E+00  5.73639E+00  5.36996E+00  4.86696E+00  4.89408E+00  5.90447E+00  7.89988E+00  1.04876E+01
   1.29763E+01  1.50532E+01  1.70008E+01  1.96651E+01  2.32774E+01  2.74260E+01  3.15218E+01  3.47827E+01  3.66842E+01  3.72069E+01
   3.62418E+01  3.38502E+01  3.09863E+01  2.80423E+01  2.50284E+01  2.23215E+01  2.08050E+01  2.07628E+01  2.25782E+01  2.58021E+01
   2.98096E+01  3.39804E+01  3.79972E+01  4.08202E+01  4.14367E+01  3.98953E+01  3.68364E+01  3.30317E+01  2.94131E+01  2.68783E+01
   2.61814E+01  2.80465E+01  3.19965E+01  3.69816E+01  4.18228E+01  4.59827E+01  4.87505E+01  4.96063E+01  4.90413E+01  4.73769E+01
   4.52401E+01  4.28255E+01  4.07746E+01  3.93071E+01  3.86994E+01  3.88625E+01  3.97206E+01  4.09298E+01  4.27238E+01  4.50555E+01
   4.78835E+01  5.14309E+01  5.53162E+01  5.89688E+01  6.16989E+01  6.35164E+01  6.41750E+01  6.39452E+01  6.36846E+01  6.44379E+01
   6.69290E+01  7.06341E+01  7.36566E+01  7.43442E+01  7.11867E+01  6.33381E+01  5.07326E+01  3.51121E+01  1.90529E+01  5.20796E+00
