 
 $NMID
 ID=''
 FMTDAT='(2E13.5)'
 TRAMP=   1.00000E+0
 VOLUME=   1.00000E+0
 $END
  -9.08540E+3   1.51579E+4
  -2.43878E+3   3.59276E+4
   3.75008E+4   1.68195E+4
   2.32226E+4  -2.51244E+4
  -2.50656E+4  -2.71091E+4
  -2.97937E+4   7.99372E+3
   4.13240E+3   2.67563E+4
   2.34503E+4   9.16796E+3
   1.17350E+4  -1.65278E+4
  -1.23240E+4  -1.76955E+4
  -1.90357E+4   3.93091E+3
  -6.75271E+2   1.57947E+4
   1.32759E+4   4.30459E+3
   6.49821E+3  -1.07045E+4
  -4.17975E+3  -1.07931E+4
  -6.10991E+3   1.22621E+3
  -2.08192E+3   9.35345E+3
   4.06964E+3   4.36367E+3
   5.19404E+3  -3.62860E+3
  -9.64693E+2  -3.08621E+3
  -5.30255E+3  -2.02297E+2
  -2.39421E+3   1.54118E+3
   1.83874E+3   3.24791E+3
   1.61820E+3   1.05188E+3
  -1.23118E+1  -3.81772E+3
   1.25905E+2  -1.90800E+3
  -8.41814E+2   2.74325E+3
  -1.71137E+3   2.12538E+3
   4.51626E+2  -8.30357E+2
   2.01626E+3  -1.00999E+3
   1.02787E+2   3.41759E+2
  -2.01655E+3   4.91113E+2
  -1.41956E+3  -1.36730E+2
   4.36567E+2  -9.82384E+2
   1.76007E+3  -9.93596E+2
   1.88275E+3   8.40655E+2
  -4.50113E+2   1.37652E+3
  -1.59438E+3  -3.32718E+2
  -7.82498E+1  -4.97394E+2
   2.34481E+2   3.96109E+2
  -6.42294E+2  -7.71923E+2
   5.30270E+2  -2.21344E+3
   1.48323E+3  -5.13439E+2
   5.83289E+2   1.27085E+3
  -1.72883E+2   8.60946E+2
   4.10675E+2   3.31076E+2
  -4.21779E+2   7.54103E+2
  -1.75308E+3  -7.59752E+2
  -9.69676E+2  -1.79682E+3
   7.72700E+2  -9.42853E+2
   1.40679E+3   2.68195E+1
   4.64943E+2  -4.13900E+2
   1.47467E+2  -2.85704E+2
  -3.02476E+2   4.00220E+2
  -2.89540E+1   1.03977E+3
  -3.25094E+2   1.27443E+2
  -6.09596E+2  -1.32655E+3
   4.48056E+2  -1.26585E+3
   9.89244E+2   2.16256E+2
   5.73802E+2   7.89979E+2
  -2.49511E+1   1.76502E+2
  -1.76313E+1   5.25712E+2
  -7.42170E+2   9.92341E+2
  -1.84698E+3   9.09073E+1
  -1.17320E+3  -1.56817E+3
   4.60621E+2  -1.47274E+3
   7.91085E+2  -5.28869E+2
   7.78534E+2  -2.70502E+2
   6.09545E+2   5.27564E+2
   3.58779E+2   5.19260E+2
  -3.15824E+2   1.18388E+2
  -1.06768E+2  -3.23166E+2
   2.71099E+2   5.67685E+2
  -6.08623E+1   8.12421E+2
  -6.31630E+2  -1.63521E+2
   1.56893E+2  -6.05766E+2
   9.40499E+1   2.24810E+2
  -1.45998E+2   8.99052E+2
  -3.73885E+2   2.63081E+1
  -1.56055E+2  -5.66475E+2
  -1.82500E+2  -2.61712E+2
   8.85739E+1  -7.66231E+1
   3.12089E+2  -1.01652E+2
   2.02761E+2  -2.60524E+2
   2.62190E+2  -1.48760E+2
   2.49377E+2  -9.25954E+1
   3.51712E+2   6.37143E+2
   2.69688E+2   8.35713E+2
   5.32946E+1   4.10078E+2
  -1.70386E+2   1.88814E+2
  -4.39715E+1   6.21226E+2
  -3.71610E+2   8.28554E+2
  -4.99668E+2   4.62445E+2
  -4.32190E+2  -5.23581E+2
   2.63209E+2  -7.83438E+2
   4.32752E+2   2.38470E+2
  -5.18992E+1   5.01447E+2
   4.02989E+1   2.05017E+2
   3.64861E+2  -2.88620E+2
   3.31891E+2   1.91633E+2
  -2.72357E+2   9.46181E+2
  -5.21104E+2   3.24213E+2
  -8.98407E+1   2.54484E+2
   4.86885E+2  -1.44306E+2
   4.81805E+2  -1.08761E+2
   2.19964E+2   4.08413E+2
  -4.16383E+2   4.53357E+2
  -3.46035E+2   1.09690E+1
   2.60894E+2  -7.28864E+2
   9.77019E+2  -3.00070E+2
   5.45711E+2   8.14507E+2
  -3.28989E+1   9.17336E+2
  -3.32616E+2   1.75695E+2
   6.43726E+1   2.51405E+2
   6.60324E+0   1.73135E+2
  -3.76211E+2  -1.12074E+2
  -2.55706E+2  -3.57015E+2
   8.34103E+1  -5.85616E+2
   5.09168E+2  -3.55514E+2
   1.03880E+3   2.44395E+1
   4.74036E+2   4.65608E+2
   2.21714E+2   5.56978E+2
  -1.34694E+2   2.94190E+2
  -4.26844E+2   1.09075E+2
  -1.64866E+2  -2.08808E+2
   1.68775E+2  -5.85223E+2
   2.80519E+2  -2.24211E+2
   2.80784E+2  -1.91262E+2
   1.00659E+2   2.44263E+2
  -8.79718E+1   3.57770E+2
  -2.80299E+2  -6.37304E+1
  -1.26365E+2  -3.44985E+2
   1.29650E+2  -3.61485E+2
   1.22389E+2   1.13642E+2
   2.97297E+2   5.28707E+1
   4.77344E+2  -2.26506E+2
   2.86136E+2  -1.09803E+2
   1.34212E+2   3.33285E+2
  -3.16827E+2   5.05675E+2
  -4.01427E+2  -2.97830E+2
  -3.24845E+2  -2.69618E+2
   2.15539E+2  -2.65522E+2
   5.73919E+2   1.48544E+2
   8.31220E+0   3.29684E+2
  -2.58547E+2   1.19789E+2
  -4.14505E+2  -1.20032E+2
  -8.29006E+1  -6.36211E+1
  -2.70611E+2  -3.27611E+2
  -7.01070E+1  -2.77355E+2
  -7.13044E+1  -3.85846E+2
   6.78697E+1  -1.10704E+2
   2.92119E+2  -1.65164E+2
   7.86182E+1   2.50562E+2
  -4.15725E+1   2.06707E+2
  -2.56413E+2   2.66489E+2
  -3.63812E+1  -9.13195E+1
  -4.54754E+1   2.22179E+2
  -5.37450E+2   1.61279E+2
  -2.78526E+2  -1.83895E+2
   1.21180E+2  -1.37157E+2
  -4.76078E+1   1.63691E+2
  -3.35361E+2  -4.86969E+1
  -3.36119E+2  -1.99810E+2
  -5.65493E+1  -1.24016E+2
   2.59558E+2  -3.69941E+1
   2.78291E+1  -1.94254E+1
  -2.40722E+2   1.12044E+2
  -3.09445E+2  -4.03713E+1
  -7.02426E+1  -2.81278E+1
  -1.17185E+1   2.28192E+1
  -1.60679E+2   1.82533E+1
  -3.04040E+2  -1.06226E+2
  -1.15504E+2   2.46422E+2
  -2.46659E+2  -5.73619E+1
   4.97534E+1   2.81129E+1
  -1.64997E+2  -8.77338E+1
  -2.93789E+2   2.09049E+2
  -2.96503E+2  -2.30430E+2
   1.61509E+2  -7.38083E+1
   2.96418E+2   7.47292E+1
  -8.59097E+1   3.09315E+2
  -1.80571E+2   1.40480E+2
  -2.39997E+2   1.01123E+2
  -3.08574E+1   9.99936E+0
   1.35783E+2  -2.66026E+2
  -1.09182E+2  -1.81521E+2
   1.45173E+2  -1.67318E+2
   1.20967E+2  -1.18710E+2
   2.70832E+2   2.80230E+2
  -1.76157E+2   6.82103E+2
  -2.93078E+2   3.63694E+2
  -2.98157E+2  -2.39570E+2
  -5.40811E+1  -4.47975E+2
   1.39014E+2  -1.00978E+2
   3.76199E+2  -1.06365E+2
   2.22540E+2  -1.03299E+2
  -2.12814E+2  -6.94741E+1
  -1.82519E+2   1.92450E+2
  -9.56633E+1   1.29594E+2
  -2.55445E+2  -8.23326E+1
  -1.64838E+2  -2.81368E+2
   7.22308E+1  -3.55863E+2
   4.50619E+2  -1.11952E+2
   2.29245E+2  -5.21849E+1
  -5.10000E+1   1.77195E+2
  -1.46185E+2   1.07433E+2
  -5.94417E+1  -1.60676E+2
  -1.45539E+2  -9.23755E+1
  -1.87420E+2  -1.73318E+2
   1.39021E+2  -2.96150E+2
  -1.35211E+2  -1.16838E+2
   2.62061E+2   1.77722E+2
   1.39059E+2   4.47180E+2
  -2.61172E+2   1.59173E+2
  -2.78612E+2  -1.40158E+2
  -2.34491E+2  -4.04061E+2
   6.41740E+0  -4.50106E+2
   2.67853E+2  -1.04505E+2
   1.84909E+2   8.12041E+1
  -5.87934E+1  -2.29155E+1
   1.05200E+2   2.29992E+2
  -3.53285E+1   3.78954E+2
  -1.80612E+2   1.27145E+2
  -2.53264E+2  -1.45485E+2
  -2.42949E+2  -2.92131E+2
   2.92611E+2  -2.20507E+2
   2.23001E+1  -2.39219E+2
  -2.33772E+2   3.28556E+2
  -2.08162E+2   8.25050E+1
   2.33092E+1  -1.83025E+2
  -8.71933E-1  -1.72660E+2
   2.44231E+1  -7.08680E-2
  -1.27294E+2   4.89807E+1
  -1.98753E+2  -1.53020E+2
   1.76014E+1  -1.64951E+2
  -1.74437E+2  -4.92976E+1
  -3.03861E+1   5.97441E+1
   5.83634E+1  -1.00977E+2
  -7.05299E+1   1.61542E+2
  -4.27361E+0  -5.50400E+1
   1.27536E+2   2.75984E+1
   5.08280E+1  -1.69868E+2
  -1.11885E+2   8.97754E+1
  -9.61995E+1  -3.02615E+2
  -1.37738E+2  -9.06665E+1
  -7.52382E+1   6.90748E+1
  -2.17975E+2   9.54772E+1
  -1.47561E+2  -2.56529E+1
  -1.71933E+1  -1.92566E+1
   1.18914E+2   2.96179E+2
  -1.14135E+2   1.80596E+2
  -1.98102E+2  -4.17840E-1
  -6.20646E+0  -1.58825E+2
   2.27996E+2  -1.40514E+2
   4.67841E+2   1.66397E+1
   2.49402E+2   2.00094E+1
  -7.57004E+1   1.77915E+2
   9.69707E+1   9.74304E+1
  -8.97202E+1   6.63503E+1
  -1.92726E+2  -7.95669E+1
  -2.21887E+2  -1.02174E+2
  -1.83531E+2  -1.80736E+2
   2.35071E+1  -1.23194E+2
   2.80812E+2  -4.80211E+1
   2.88836E+2   3.14466E+2
  -1.61835E+2   2.23161E+2
  -2.71883E+2   2.46571E+2
  -7.78055E+1  -1.40989E+2
  -6.00966E+0  -4.70365E+1
  -1.57011E+2  -2.16804E+2
   1.66513E+2   1.51563E+2
   1.22533E+2   2.14597E+2
   1.51611E+2   1.81296E+2
  -9.89480E+1   2.69268E+2
  -3.42839E+1   9.60975E+1
  -1.73591E+1  -2.87444E+2
  -7.13945E+1  -9.06939E+1
   1.10149E+2  -1.16809E+2
   4.14230E+1   1.76930E+2
   1.15636E+2   1.09424E+2
   3.46408E+1  -6.27150E+1
   5.80643E+1   1.95696E+2
  -6.68652E+1   9.49571E+1
   5.30393E+1   7.12142E+1
  -2.35598E+2  -3.41210E+1
   8.80597E+1  -2.88866E+2
   8.10595E+1  -3.79616E+1
   3.32325E+1   1.49495E+2
  -2.48028E+2   2.78400E+2
  -4.87629E+1   3.83410E+1
  -1.45972E+1   4.47554E+1
  -5.33768E+1  -1.31712E+1
   4.42721E+1  -5.13530E+1
   3.34493E+2  -1.08880E+2
   1.48706E+2  -1.00945E+1
  -2.28944E+2   1.10174E+2
   2.57911E+2   1.34937E+2
  -2.47779E+2   8.57989E+1
  -1.98298E+2   1.55768E+2
   5.47864E+1   2.65480E+0
   2.95839E+2   4.88391E+1
   1.67291E+2  -3.62774E+1
  -6.52505E+1   3.54499E+2
  -9.90309E+1   3.80757E+1
   2.17363E+2  -2.29892E+1
   1.02292E+2  -1.36573E+1
   1.52308E+1   6.17271E+1
   1.46077E+2   1.55203E+2
   1.85539E+2   1.34069E+2
  -3.21276E+1   9.48531E+1
   8.74906E+0  -1.07618E+2
  -1.16787E+2   1.55260E+2
   6.24309E+1  -9.35659E+1
  -6.97280E+1  -3.86777E+1
  -7.25001E+0  -1.28921E+2
   8.81487E+1   4.84256E+1
  -2.24585E+2   1.94750E+2
   2.54687E+2   2.51960E+1
   5.26974E+1  -2.93833E+2
   4.94426E+1  -8.28652E+1
  -1.48411E+2  -3.39722E+1
   3.52914E+1   6.01149E+1
  -2.62549E+1  -2.19969E+1
  -5.91535E+1   3.48929E+1
   1.54748E+2  -5.16128E+1
  -1.20830E+2  -1.58515E+1
  -1.01996E+2   1.03983E+2
  -8.74778E+1  -1.24642E+2
   1.47396E+2  -1.89923E+2
   2.17557E+2  -1.25502E+2
   6.50643E+1   2.04953E+1
   1.33951E+2   7.50915E+1
  -1.05131E+2   3.26590E+1
   3.14805E+2   2.29683E+1
  -1.34712E+2   1.04341E+2
  -1.80300E+2  -7.53351E+1
  -3.34125E+1  -2.53515E+1
  -2.85748E+1  -2.42291E+2
   1.75242E+2  -7.77044E+1
   8.54352E+1   3.17207E+2
  -7.83183E+1   6.19131E+1
  -1.72260E+2   2.94161E+2
  -1.46505E+2  -1.05109E+1
   3.11937E+2   5.80704E+1
  -1.84107E+1  -2.29870E+2
   2.07116E+1   1.63938E+1
   1.27700E+2   7.10999E+1
   2.34946E+2  -8.65050E+1
   2.24010E+2   9.91743E+1
  -6.81702E+1   1.96476E+1
   8.88904E+1  -1.85239E+2
  -4.09701E+0  -1.46829E+2
  -6.44339E+1  -1.44219E+2
   1.75577E+2   1.80294E+2
  -1.25968E+2   1.59862E+2
  -2.37825E-1   7.80168E+1
   1.42191E+1  -1.75033E+2
  -7.26959E+1  -1.52454E+2
  -2.50115E+2   3.07178E+1
  -6.00343E+1   2.51318E+2
  -1.15172E+2   1.72802E+1
  -1.65333E+1  -1.77037E+0
   1.30295E+2   8.89811E+1
  -5.23390E+1   2.99954E+2
  -1.42746E+2   6.33710E+1
  -1.52427E+2   1.30471E+1
   3.12461E+1  -3.65912E+1
