 
 $NMID
 ID=''
 FMTDAT='(2E13.5)'
 TRAMP=   1.00000E+0
 VOLUME=   1.00000E+0
 $END
   2.96784E+5   5.87749E+5
   1.81298E+5   1.77073E+6
   4.07626E+5   1.68693E+6
   3.60886E+5   1.57435E+6
   4.08869E+5   1.62336E+6
   5.51887E+5   1.54931E+6
   5.79857E+5   1.46706E+6
   6.11647E+5   1.47703E+6
   6.71996E+5   1.41790E+6
   6.67998E+5   1.35876E+6
   6.90635E+5   1.34907E+6
   7.32641E+5   1.29124E+6
   7.31782E+5   1.23615E+6
   7.44281E+5   1.21859E+6
   7.61006E+5   1.16769E+6
   7.54630E+5   1.11870E+6
   7.74936E+5   1.09195E+6
   8.01872E+5   1.03783E+6
   8.03559E+5   9.82846E+5
   8.24740E+5   9.40335E+5
   8.41993E+5   8.83796E+5
   8.38740E+5   8.36231E+5
   8.47672E+5   7.98274E+5
   8.54419E+5   7.45435E+5
   8.42902E+5   7.00783E+5
   8.42849E+5   6.62035E+5
   8.39123E+5   6.21453E+5
   8.21987E+5   5.88203E+5
   8.12045E+5   5.55842E+5
   8.04421E+5   5.11920E+5
   7.91646E+5   4.76842E+5
   7.83543E+5   4.41773E+5
   7.72719E+5   4.00046E+5
   7.59104E+5   3.63673E+5
   7.49047E+5   3.27594E+5
   7.36591E+5   2.85494E+5
   7.21920E+5   2.50963E+5
   7.09096E+5   2.20823E+5
   6.90240E+5   1.90069E+5
   6.70102E+5   1.62939E+5
   6.52112E+5   1.38590E+5
   6.31696E+5   1.14652E+5
   6.09707E+5   9.34390E+4
   5.91229E+5   7.35463E+4
   5.71094E+5   5.41274E+4
   5.51014E+5   3.77338E+4
   5.31884E+5   2.15865E+4
   5.11008E+5   5.86378E+3
   4.89809E+5  -9.13206E+3
   4.71338E+5  -2.41509E+4
   4.51867E+5  -3.76253E+4
   4.32165E+5  -4.97166E+4
   4.13072E+5  -6.05896E+4
   3.94462E+5  -7.02020E+4
   3.76032E+5  -7.72182E+4
   3.58287E+5  -8.39420E+4
   3.40840E+5  -8.96804E+4
   3.24002E+5  -9.34348E+4
   3.06873E+5  -9.68374E+4
   2.90940E+5  -1.00232E+5
   2.76484E+5  -1.02417E+5
   2.62240E+5  -1.03777E+5
   2.47524E+5  -1.04083E+5
   2.33426E+5  -1.04093E+5
   2.20721E+5  -1.03764E+5
   2.08380E+5  -1.02848E+5
   1.96180E+5  -1.01467E+5
   1.83959E+5  -9.95240E+4
   1.74173E+5  -9.70817E+4
   1.64916E+5  -9.39016E+4
   1.55639E+5  -9.01607E+4
   1.46353E+5  -8.67605E+4
   1.38561E+5  -8.35822E+4
   1.31313E+5  -7.89900E+4
   1.24088E+5  -7.40618E+4
   1.17298E+5  -6.97837E+4
   1.11966E+5  -6.52872E+4
   1.06521E+5  -6.00394E+4
   1.01598E+5  -5.50728E+4
   9.71254E+4  -5.03817E+4
   9.33532E+4  -4.50121E+4
   8.97130E+4  -3.98602E+4
   8.65572E+4  -3.48542E+4
   8.41414E+4  -2.98724E+4
   8.23295E+4  -2.49112E+4
   8.02880E+4  -2.00492E+4
   7.88023E+4  -1.49846E+4
   7.76276E+4  -1.04564E+4
   7.68603E+4  -6.10011E+3
   7.65120E+4  -1.51801E+3
   7.62425E+4   2.52390E+3
   7.59946E+4   6.64685E+3
   7.58441E+4   1.06528E+4
   7.62434E+4   1.46468E+4
   7.65852E+4   1.80570E+4
   7.71507E+4   2.16405E+4
   7.79081E+4   2.52143E+4
   7.83360E+4   2.85987E+4
   7.92058E+4   3.18624E+4
   8.04665E+4   3.46964E+4
   8.15212E+4   3.76341E+4
   8.20962E+4   4.01578E+4
   8.29313E+4   4.23805E+4
   8.37661E+4   4.44816E+4
   8.49565E+4   4.62975E+4
   8.58559E+4   4.83292E+4
   8.66524E+4   4.98128E+4
   8.75283E+4   5.14342E+4
   8.84836E+4   5.32834E+4
   8.90012E+4   5.46549E+4
   8.98541E+4   5.55838E+4
   9.04312E+4   5.69776E+4
   9.09072E+4   5.86410E+4
   9.11756E+4   5.97884E+4
   9.14123E+4   6.09949E+4
   9.17896E+4   6.19559E+4
   9.17149E+4   6.32007E+4
   9.15674E+4   6.40393E+4
   9.13018E+4   6.44475E+4
   9.11795E+4   6.50547E+4
   9.09764E+4   6.63100E+4
   9.03887E+4   6.69855E+4
   8.97595E+4   6.72549E+4
   8.92739E+4   6.81205E+4
   8.84633E+4   6.88180E+4
   8.74720E+4   6.96358E+4
   8.63042E+4   7.02595E+4
   8.57877E+4   7.07619E+4
   8.42568E+4   7.19472E+4
   8.31047E+4   7.27096E+4
   8.17199E+4   7.35269E+4
   8.00543E+4   7.43487E+4
   7.85238E+4   7.52054E+4
   7.68658E+4   7.61481E+4
   7.51069E+4   7.69653E+4
   7.35848E+4   7.76841E+4
   7.13892E+4   7.86737E+4
   6.97873E+4   7.93461E+4
   6.82149E+4   8.06060E+4
   6.59926E+4   8.14899E+4
   6.39475E+4   8.22829E+4
   6.18932E+4   8.32568E+4
   6.00319E+4   8.40510E+4
   5.79603E+4   8.50435E+4
   5.59001E+4   8.58866E+4
   5.35553E+4   8.67680E+4
   5.14682E+4   8.75047E+4
   4.91888E+4   8.86542E+4
   4.69822E+4   8.94237E+4
   4.50474E+4   9.03707E+4
   4.27829E+4   9.11809E+4
   4.08462E+4   9.19313E+4
   3.85653E+4   9.29191E+4
   3.64045E+4   9.38713E+4
   3.44871E+4   9.45550E+4
   3.23286E+4   9.54149E+4
   3.03256E+4   9.59055E+4
   2.82775E+4   9.66554E+4
   2.62858E+4   9.77183E+4
   2.44287E+4   9.82700E+4
   2.24997E+4   9.90882E+4
   2.05566E+4   9.95966E+4
   1.85776E+4   1.00214E+5
   1.70513E+4   1.00616E+5
   1.49433E+4   1.01383E+5
   1.34528E+4   1.02057E+5
   1.18085E+4   1.02462E+5
   1.02700E+4   1.02994E+5
   8.54837E+3   1.03120E+5
   7.22087E+3   1.03611E+5
   5.75806E+3   1.03969E+5
   4.03040E+3   1.04266E+5
   2.58397E+3   1.04918E+5
   1.19550E+3   1.04878E+5
  -5.88514E+1   1.05076E+5
  -1.38658E+3   1.05367E+5
  -2.89973E+3   1.05518E+5
  -4.32557E+3   1.05681E+5
  -5.64229E+3   1.05549E+5
  -6.62940E+3   1.05735E+5
  -7.88015E+3   1.05671E+5
  -9.01070E+3   1.05721E+5
  -1.03210E+4   1.05562E+5
  -1.14658E+4   1.05276E+5
  -1.22944E+4   1.05065E+5
  -1.34152E+4   1.04661E+5
  -1.39547E+4   1.04265E+5
  -1.48447E+4   1.04219E+5
  -1.54620E+4   1.03686E+5
  -1.63028E+4   1.03432E+5
  -1.67758E+4   1.02922E+5
  -1.79804E+4   1.02860E+5
  -1.89785E+4   1.01979E+5
  -1.92934E+4   1.01001E+5
  -1.99893E+4   1.00194E+5
  -2.07651E+4   9.96065E+4
  -2.14988E+4   9.87970E+4
  -2.20893E+4   9.82814E+4
  -2.26377E+4   9.72095E+4
  -2.32701E+4   9.65587E+4
  -2.38355E+4   9.54341E+4
  -2.43603E+4   9.40227E+4
  -2.48817E+4   9.30228E+4
  -2.54102E+4   9.21316E+4
  -2.60363E+4   9.12827E+4
  -2.66279E+4   9.00407E+4
  -2.70732E+4   8.91905E+4
  -2.75267E+4   8.76062E+4
  -2.81158E+4   8.64224E+4
  -2.84532E+4   8.50591E+4
  -2.87784E+4   8.36628E+4
  -2.91232E+4   8.25264E+4
  -2.96014E+4   8.12118E+4
  -3.00344E+4   7.99221E+4
  -3.07212E+4   7.83273E+4
  -3.12253E+4   7.68752E+4
  -3.13723E+4   7.51795E+4
  -3.16376E+4   7.39419E+4
  -3.18380E+4   7.25369E+4
  -3.19610E+4   7.10186E+4
  -3.25639E+4   6.93888E+4
  -3.25648E+4   6.80354E+4
  -3.31091E+4   6.67785E+4
  -3.33129E+4   6.52980E+4
  -3.36899E+4   6.37924E+4
  -3.38273E+4   6.23032E+4
  -3.39856E+4   6.11092E+4
  -3.43435E+4   5.95429E+4
  -3.48316E+4   5.82904E+4
  -3.53181E+4   5.64602E+4
  -3.53571E+4   5.52236E+4
  -3.55665E+4   5.39507E+4
  -3.59806E+4   5.23296E+4
  -3.58742E+4   5.09342E+4
  -3.64393E+4   4.98214E+4
  -3.63268E+4   4.81477E+4
  -3.67738E+4   4.70564E+4
  -3.70670E+4   4.58870E+4
  -3.71696E+4   4.46227E+4
  -3.72871E+4   4.31746E+4
  -3.74107E+4   4.20107E+4
  -3.75200E+4   4.10718E+4
  -3.76313E+4   3.98839E+4
  -3.76879E+4   3.87505E+4
  -3.79504E+4   3.77829E+4
  -3.79519E+4   3.66186E+4
  -3.79950E+4   3.57808E+4
  -3.83353E+4   3.45235E+4
  -3.83300E+4   3.35216E+4
  -3.78375E+4   3.24862E+4
  -3.81368E+4   3.16836E+4
  -3.80758E+4   3.05951E+4
  -3.82506E+4   2.99333E+4
  -3.80924E+4   2.91264E+4
  -3.78255E+4   2.80461E+4
  -3.77743E+4   2.75319E+4
  -3.79933E+4   2.66138E+4
  -3.76648E+4   2.56498E+4
  -3.75282E+4   2.51027E+4
  -3.72455E+4   2.39334E+4
  -3.73899E+4   2.31787E+4
  -3.69452E+4   2.27953E+4
  -3.67353E+4   2.17713E+4
  -3.66571E+4   2.11940E+4
  -3.63639E+4   2.06002E+4
  -3.60849E+4   1.98791E+4
  -3.56768E+4   1.94373E+4
  -3.55966E+4   1.82828E+4
  -3.49266E+4   1.78798E+4
  -3.46596E+4   1.73335E+4
  -3.43834E+4   1.67210E+4
  -3.40505E+4   1.60952E+4
  -3.35980E+4   1.54654E+4
  -3.30573E+4   1.50691E+4
  -3.27940E+4   1.44825E+4
  -3.23684E+4   1.38725E+4
  -3.17346E+4   1.32475E+4
  -3.12350E+4   1.27436E+4
  -3.09249E+4   1.23939E+4
  -3.06058E+4   1.15139E+4
  -2.97915E+4   1.14704E+4
  -2.96992E+4   1.07780E+4
  -2.89734E+4   1.03220E+4
  -2.82949E+4   1.00446E+4
  -2.79830E+4   9.43830E+3
  -2.77402E+4   8.92364E+3
  -2.71047E+4   8.55019E+3
  -2.64199E+4   8.12833E+3
  -2.59758E+4   8.01585E+3
  -2.56644E+4   7.51582E+3
  -2.50039E+4   7.09912E+3
  -2.46683E+4   6.80461E+3
  -2.39839E+4   6.26236E+3
  -2.34966E+4   6.06273E+3
  -2.31739E+4   5.41769E+3
  -2.24592E+4   5.41005E+3
  -2.18201E+4   5.08910E+3
  -2.15813E+4   4.82324E+3
  -2.12409E+4   4.45277E+3
  -2.06721E+4   4.14765E+3
  -1.99066E+4   3.79744E+3
  -1.99565E+4   3.57233E+3
  -1.91813E+4   3.30606E+3
  -1.87019E+4   3.01026E+3
  -1.85122E+4   2.87414E+3
  -1.78913E+4   2.15222E+3
  -1.74577E+4   2.13455E+3
  -1.70753E+4   1.87895E+3
  -1.65293E+4   1.61583E+3
  -1.63318E+4   1.69278E+3
  -1.58914E+4   1.66589E+3
  -1.54517E+4   1.30637E+3
  -1.51179E+4   9.04659E+2
  -1.49376E+4   8.63047E+2
  -1.45547E+4   7.21520E+2
  -1.41880E+4   5.13105E+2
  -1.36109E+4   3.37600E+2
  -1.35287E+4   2.65850E+2
  -1.30511E+4  -1.25305E+2
  -1.25565E+4  -1.63328E+2
  -1.25976E+4  -1.25020E+2
  -1.20399E+4  -2.32939E+2
  -1.19508E+4  -7.17524E+2
  -1.14474E+4  -6.18611E+2
  -1.11257E+4  -8.31977E+2
  -1.09206E+4  -8.61494E+2
  -1.07436E+4  -6.63030E+2
  -1.07607E+4  -1.07455E+3
  -1.01767E+4  -1.18832E+3
  -1.02035E+4  -1.18853E+3
  -9.69300E+3  -1.20133E+3
  -9.51162E+3  -1.37422E+3
  -9.32032E+3  -1.10610E+3
  -9.12588E+3  -1.35980E+3
  -8.87954E+3  -1.42129E+3
  -8.69299E+3  -1.44564E+3
  -8.39210E+3  -1.43769E+3
  -8.30659E+3  -1.74742E+3
  -7.95019E+3  -1.63178E+3
  -7.82022E+3  -1.56367E+3
  -7.76693E+3  -1.62028E+3
  -7.55937E+3  -1.94630E+3
  -7.05285E+3  -1.81010E+3
  -7.16620E+3  -1.78339E+3
  -7.00985E+3  -1.68117E+3
  -6.62718E+3  -1.64504E+3
  -6.46971E+3  -1.84534E+3
  -6.33114E+3  -1.57366E+3
  -6.45310E+3  -1.74036E+3
  -5.95874E+3  -1.81279E+3
  -5.89839E+3  -1.89225E+3
  -5.71974E+3  -1.48428E+3
  -5.77511E+3  -1.81259E+3
  -5.61742E+3  -1.73863E+3
  -5.33995E+3  -1.57026E+3
  -5.18537E+3  -1.41872E+3
  -5.20255E+3  -1.56199E+3
  -5.06976E+3  -1.77966E+3
  -5.04709E+3  -1.45721E+3
  -4.80771E+3  -1.69452E+3
  -4.83672E+3  -1.50878E+3
  -4.46531E+3  -1.35667E+3
  -4.42009E+3  -1.69624E+3
  -4.38101E+3  -1.50818E+3
  -4.54113E+3  -1.65003E+3
  -4.37043E+3  -1.34512E+3
  -4.23560E+3  -1.59968E+3
