 
 $NMID
 ID=''
 FMTDAT='(2E13.5)'
 TRAMP=   1.00000E+0
 VOLUME=   1.00000E+0
 $END
  -1.18920E+5   7.23373E+5
  -9.27614E+5   1.66302E+6
  -7.16278E+5   1.67847E+6
  -8.34631E+5   1.50737E+6
  -9.70693E+5   1.57314E+6
  -9.11678E+5   1.55780E+6
  -9.40273E+5   1.43782E+6
  -1.02443E+6   1.43051E+6
  -1.01920E+6   1.42102E+6
  -1.04467E+6   1.37759E+6
  -1.06637E+6   1.36679E+6
  -1.05589E+6   1.31173E+6
  -1.09756E+6   1.25818E+6
  -1.12135E+6   1.26854E+6
  -1.10129E+6   1.24105E+6
  -1.11356E+6   1.18774E+6
  -1.14010E+6   1.17020E+6
  -1.15245E+6   1.13165E+6
  -1.18209E+6   1.08489E+6
  -1.19588E+6   1.06091E+6
  -1.19780E+6   1.01515E+6
  -1.22167E+6   9.70557E+5
  -1.23511E+6   9.47046E+5
  -1.23630E+6   9.08404E+5
  -1.24871E+6   8.66934E+5
  -1.24902E+6   8.47993E+5
  -1.24698E+6   8.16997E+5
  -1.25360E+6   7.88953E+5
  -1.25131E+6   7.66448E+5
  -1.24672E+6   7.36792E+5
  -1.25591E+6   7.01971E+5
  -1.25514E+6   6.72725E+5
  -1.25412E+6   6.36444E+5
  -1.25959E+6   6.02648E+5
  -1.25721E+6   5.70661E+5
  -1.25420E+6   5.34719E+5
  -1.25915E+6   5.00066E+5
  -1.25800E+6   4.65847E+5
  -1.25032E+6   4.32569E+5
  -1.24688E+6   4.06010E+5
  -1.23958E+6   3.79500E+5
  -1.23111E+6   3.49923E+5
  -1.22242E+6   3.26713E+5
  -1.21456E+6   3.05404E+5
  -1.20597E+6   2.79134E+5
  -1.19842E+6   2.55151E+5
  -1.18946E+6   2.29086E+5
  -1.18129E+6   1.97415E+5
  -1.17104E+6   1.67327E+5
  -1.15974E+6   1.40122E+5
  -1.14961E+6   1.11621E+5
  -1.14028E+6   8.19304E+4
  -1.12939E+6   5.37916E+4
  -1.11865E+6   2.67520E+4
  -1.10650E+6   5.00775E+2
  -1.09360E+6  -2.57968E+4
  -1.08056E+6  -5.04359E+4
  -1.06644E+6  -7.25871E+4
  -1.05192E+6  -9.36917E+4
  -1.03863E+6  -1.15527E+5
  -1.02560E+6  -1.38157E+5
  -1.01087E+6  -1.59751E+5
  -9.96654E+5  -1.82012E+5
  -9.81384E+5  -2.04984E+5
  -9.64212E+5  -2.27769E+5
  -9.46442E+5  -2.48878E+5
  -9.29694E+5  -2.69574E+5
  -9.12877E+5  -2.89677E+5
  -8.96661E+5  -3.09508E+5
  -8.79933E+5  -3.29166E+5
  -8.61995E+5  -3.47598E+5
  -8.44231E+5  -3.64098E+5
  -8.27516E+5  -3.79975E+5
  -8.10420E+5  -3.96367E+5
  -7.92002E+5  -4.12576E+5
  -7.73451E+5  -4.27996E+5
  -7.55067E+5  -4.43068E+5
  -7.36251E+5  -4.58000E+5
  -7.16879E+5  -4.73187E+5
  -6.96544E+5  -4.87837E+5
  -6.76301E+5  -5.01819E+5
  -6.56469E+5  -5.14348E+5
  -6.36532E+5  -5.26647E+5
  -6.16511E+5  -5.38621E+5
  -5.95974E+5  -5.49120E+5
  -5.76458E+5  -5.58384E+5
  -5.57389E+5  -5.67031E+5
  -5.38466E+5  -5.75554E+5
  -5.19292E+5  -5.83168E+5
  -5.00471E+5  -5.89568E+5
  -4.82140E+5  -5.96114E+5
  -4.63108E+5  -6.02616E+5
  -4.43729E+5  -6.09490E+5
  -4.23742E+5  -6.15634E+5
  -4.03878E+5  -6.20839E+5
  -3.84131E+5  -6.25283E+5
  -3.65330E+5  -6.30120E+5
  -3.46148E+5  -6.34875E+5
  -3.26127E+5  -6.38899E+5
  -3.07751E+5  -6.41539E+5
  -2.90085E+5  -6.44271E+5
  -2.71572E+5  -6.47176E+5
  -2.52679E+5  -6.48612E+5
  -2.35117E+5  -6.48825E+5
  -2.18832E+5  -6.49109E+5
  -2.02316E+5  -6.49703E+5
  -1.85451E+5  -6.50024E+5
  -1.68125E+5  -6.49755E+5
  -1.51370E+5  -6.48597E+5
  -1.35261E+5  -6.46839E+5
  -1.19724E+5  -6.45873E+5
  -1.03284E+5  -6.44938E+5
  -8.65174E+4  -6.43246E+5
  -6.98970E+4  -6.40925E+5
  -5.42490E+4  -6.38296E+5
  -3.85885E+4  -6.35459E+5
  -2.29516E+4  -6.32563E+5
  -7.49680E+3  -6.28398E+5
   6.45527E+3  -6.23449E+5
   1.98764E+4  -6.19248E+5
   3.35552E+4  -6.15167E+5
   4.73608E+4  -6.10852E+5
   6.09150E+4  -6.05937E+5
   7.40936E+4  -6.00729E+5
   8.77075E+4  -5.95065E+5
   1.00599E+5  -5.88678E+5
   1.12552E+5  -5.82114E+5
   1.24755E+5  -5.75576E+5
   1.37176E+5  -5.68908E+5
   1.49530E+5  -5.61905E+5
   1.61884E+5  -5.54677E+5
   1.73676E+5  -5.46676E+5
   1.84902E+5  -5.38477E+5
   1.95677E+5  -5.30364E+5
   2.06579E+5  -5.22313E+5
   2.17196E+5  -5.13572E+5
   2.27124E+5  -5.04759E+5
   2.36715E+5  -4.96209E+5
   2.47112E+5  -4.87876E+5
   2.56926E+5  -4.78163E+5
   2.65983E+5  -4.68192E+5
   2.74096E+5  -4.58374E+5
   2.81708E+5  -4.49013E+5
   2.89882E+5  -4.39363E+5
   2.97962E+5  -4.29705E+5
   3.05550E+5  -4.19531E+5
   3.12522E+5  -4.09250E+5
   3.18996E+5  -3.98783E+5
   3.25329E+5  -3.88593E+5
   3.30779E+5  -3.78454E+5
   3.36318E+5  -3.68045E+5
   3.41531E+5  -3.57655E+5
   3.46417E+5  -3.48166E+5
   3.51284E+5  -3.38664E+5
   3.55941E+5  -3.27923E+5
   3.60141E+5  -3.17825E+5
   3.63707E+5  -3.08050E+5
   3.67970E+5  -2.98044E+5
   3.71130E+5  -2.88166E+5
   3.74088E+5  -2.77743E+5
   3.76911E+5  -2.68041E+5
   3.79608E+5  -2.57984E+5
   3.82106E+5  -2.48066E+5
   3.83994E+5  -2.37735E+5
   3.85774E+5  -2.28297E+5
   3.86906E+5  -2.18962E+5
   3.88378E+5  -2.09770E+5
   3.89866E+5  -2.00230E+5
   3.90705E+5  -1.90598E+5
   3.91096E+5  -1.81935E+5
   3.91489E+5  -1.72794E+5
   3.91720E+5  -1.63772E+5
   3.91950E+5  -1.55269E+5
   3.91725E+5  -1.46223E+5
   3.91134E+5  -1.37328E+5
   3.90800E+5  -1.29209E+5
   3.90308E+5  -1.20248E+5
   3.89243E+5  -1.11131E+5
   3.87864E+5  -1.02696E+5
   3.86440E+5  -9.45104E+4
   3.85245E+5  -8.65378E+4
   3.83898E+5  -7.81987E+4
   3.82238E+5  -6.94621E+4
   3.80139E+5  -6.14242E+4
   3.77732E+5  -5.33820E+4
   3.75619E+5  -4.58855E+4
   3.72718E+5  -3.84634E+4
   3.70095E+5  -3.09535E+4
   3.67265E+5  -2.41089E+4
   3.64846E+5  -1.71235E+4
   3.62453E+5  -9.89757E+3
   3.59209E+5  -2.32279E+3
   3.55624E+5   5.51947E+3
   3.51741E+5   1.22661E+4
   3.48176E+5   1.90713E+4
   3.44648E+5   2.58610E+4
   3.41021E+5   3.25859E+4
   3.37000E+5   3.94276E+4
   3.32846E+5   4.58872E+4
   3.28941E+5   5.25113E+4
   3.24534E+5   5.91628E+4
   3.19969E+5   6.53865E+4
   3.14916E+5   7.11759E+4
   3.10565E+5   7.67696E+4
   3.06129E+5   8.26345E+4
   3.00978E+5   8.82991E+4
   2.96096E+5   9.37549E+4
   2.91132E+5   9.89036E+4
   2.86135E+5   1.04375E+5
   2.80715E+5   1.09539E+5
   2.75524E+5   1.14590E+5
   2.69990E+5   1.19292E+5
   2.64850E+5   1.23738E+5
   2.59549E+5   1.27885E+5
   2.54018E+5   1.32372E+5
   2.48339E+5   1.37054E+5
   2.42641E+5   1.40526E+5
   2.37249E+5   1.43927E+5
   2.31588E+5   1.47596E+5
   2.26031E+5   1.50904E+5
   2.20413E+5   1.54161E+5
   2.15132E+5   1.56887E+5
   2.09508E+5   1.59881E+5
   2.03897E+5   1.62995E+5
   1.98254E+5   1.65777E+5
   1.92362E+5   1.67579E+5
   1.87086E+5   1.69648E+5
   1.81472E+5   1.71906E+5
   1.76259E+5   1.74107E+5
   1.70708E+5   1.75935E+5
   1.64933E+5   1.77330E+5
   1.59497E+5   1.78938E+5
   1.54437E+5   1.79924E+5
   1.49083E+5   1.81171E+5
   1.43931E+5   1.82243E+5
   1.38836E+5   1.83197E+5
   1.34107E+5   1.84014E+5
   1.29166E+5   1.84823E+5
   1.23812E+5   1.85087E+5
   1.18924E+5   1.85298E+5
   1.14194E+5   1.85544E+5
   1.09657E+5   1.85765E+5
   1.04794E+5   1.86135E+5
   9.96749E+4   1.85958E+5
   9.50942E+4   1.85685E+5
   9.07984E+4   1.85258E+5
   8.63794E+4   1.85240E+5
   8.17995E+4   1.84730E+5
   7.72863E+4   1.84106E+5
   7.35341E+4   1.83473E+5
   6.88770E+4   1.82912E+5
   6.48284E+4   1.82256E+5
   6.02643E+4   1.81547E+5
   5.62162E+4   1.80459E+5
   5.21873E+4   1.79002E+5
   4.83925E+4   1.77955E+5
   4.45051E+4   1.76813E+5
   4.03776E+4   1.75783E+5
   3.65840E+4   1.74697E+5
   3.26200E+4   1.73310E+5
   2.87854E+4   1.72033E+5
   2.47833E+4   1.70481E+5
   2.10672E+4   1.68695E+5
   1.76896E+4   1.66742E+5
   1.42809E+4   1.65602E+5
   1.08952E+4   1.63778E+5
   7.31975E+3   1.62133E+5
   3.85794E+3   1.60108E+5
   7.18017E+2   1.57925E+5
  -2.26131E+3   1.56137E+5
  -5.45349E+3   1.54245E+5
  -8.49484E+3   1.52202E+5
  -1.13828E+4   1.49973E+5
  -1.43033E+4   1.48043E+5
  -1.75405E+4   1.45958E+5
  -2.02618E+4   1.43938E+5
  -2.31680E+4   1.41452E+5
  -2.57397E+4   1.39064E+5
  -2.80770E+4   1.36907E+5
  -3.07580E+4   1.34543E+5
  -3.28354E+4   1.32343E+5
  -3.54952E+4   1.29774E+5
  -3.78403E+4   1.27481E+5
  -3.97942E+4   1.25350E+5
  -4.21472E+4   1.22868E+5
  -4.41534E+4   1.20334E+5
  -4.57570E+4   1.17677E+5
  -4.77379E+4   1.15478E+5
  -4.94817E+4   1.13119E+5
  -5.12648E+4   1.10703E+5
  -5.30296E+4   1.08047E+5
  -5.46417E+4   1.05820E+5
  -5.60660E+4   1.03231E+5
  -5.73018E+4   1.00810E+5
  -5.89534E+4   9.82499E+4
  -6.01393E+4   9.57980E+4
  -6.11556E+4   9.35221E+4
  -6.26023E+4   9.11061E+4
  -6.34831E+4   8.89102E+4
  -6.48634E+4   8.64062E+4
  -6.55750E+4   8.40239E+4
  -6.64564E+4   8.14126E+4
  -6.72694E+4   7.94462E+4
  -6.83566E+4   7.68879E+4
  -6.89799E+4   7.44634E+4
  -6.94118E+4   7.18246E+4
  -7.01934E+4   6.96629E+4
  -7.06889E+4   6.74604E+4
  -7.13182E+4   6.51586E+4
  -7.13292E+4   6.28938E+4
  -7.16991E+4   6.07914E+4
  -7.25170E+4   5.85192E+4
  -7.27142E+4   5.61334E+4
  -7.27275E+4   5.39969E+4
  -7.29917E+4   5.16461E+4
  -7.31314E+4   4.94089E+4
  -7.30179E+4   4.72185E+4
  -7.31541E+4   4.52077E+4
  -7.29760E+4   4.32354E+4
  -7.27408E+4   4.11492E+4
  -7.28656E+4   3.90107E+4
  -7.27309E+4   3.68669E+4
  -7.24316E+4   3.50177E+4
  -7.20967E+4   3.29970E+4
  -7.19119E+4   3.09901E+4
  -7.15832E+4   2.91535E+4
  -7.11532E+4   2.74006E+4
  -7.07971E+4   2.52428E+4
  -7.03461E+4   2.36343E+4
  -6.98133E+4   2.15302E+4
  -6.92916E+4   1.97970E+4
  -6.86411E+4   1.80655E+4
  -6.82061E+4   1.62268E+4
  -6.75013E+4   1.46161E+4
  -6.70781E+4   1.28729E+4
  -6.66229E+4   1.12484E+4
  -6.57254E+4   9.52039E+3
  -6.46362E+4   8.19765E+3
  -6.40802E+4   6.39675E+3
  -6.31843E+4   5.08724E+3
  -6.24650E+4   3.44178E+3
  -6.17816E+4   2.14062E+3
  -6.09794E+4   6.86342E+2
  -5.99208E+4  -8.30629E+2
  -5.92155E+4  -2.41705E+3
  -5.84022E+4  -3.50021E+3
  -5.74125E+4  -4.76546E+3
  -5.63711E+4  -5.97164E+3
  -5.58061E+4  -7.23961E+3
  -5.46580E+4  -8.42127E+3
  -5.36391E+4  -9.33087E+3
  -5.29629E+4  -1.06887E+4
  -5.17661E+4  -1.18403E+4
  -5.06526E+4  -1.28292E+4
  -4.99410E+4  -1.37825E+4
  -4.90294E+4  -1.47954E+4
  -4.77076E+4  -1.55320E+4
  -4.69052E+4  -1.64980E+4
  -4.61090E+4  -1.73775E+4
  -4.49558E+4  -1.85161E+4
  -4.37920E+4  -1.92048E+4
  -4.28506E+4  -1.97848E+4
  -4.17101E+4  -2.05215E+4
  -4.10273E+4  -2.11421E+4
  -3.98702E+4  -2.17208E+4
  -3.91160E+4  -2.26819E+4
  -3.78568E+4  -2.32443E+4
