 
 $NMID
 ID=''
 FMTDAT='(2E13.5)'
 TRAMP=   1.00000E+0
 VOLUME=   1.00000E+0
 $END
   5.90638E+5  -1.80476E+4
   1.52028E+6   5.17774E+5
   1.54033E+6   3.09998E+5
   1.43425E+6   3.16773E+5
   1.50185E+6   2.99209E+5
   1.50366E+6   1.56055E+5
   1.45448E+6   1.09212E+5
   1.48330E+6   9.46749E+4
   1.46833E+6   2.92408E+4
   1.42908E+6   1.58253E+4
   1.43974E+6  -3.08197E+3
   1.41774E+6  -5.46876E+4
   1.38320E+6  -6.85997E+4
   1.38470E+6  -8.08646E+4
   1.36116E+6  -1.09108E+5
   1.33157E+6  -1.18174E+5
   1.32901E+6  -1.43012E+5
   1.30455E+6  -1.85261E+5
   1.27297E+6  -2.08351E+5
   1.26054E+6  -2.44527E+5
   1.23194E+6  -2.82753E+5
   1.20213E+6  -3.00670E+5
   1.18639E+6  -3.24369E+5
   1.15691E+6  -3.52233E+5
   1.12724E+6  -3.63036E+5
   1.10628E+6  -3.82313E+5
   1.08055E+6  -3.97286E+5
   1.05627E+6  -3.97793E+5
   1.03508E+6  -4.05137E+5
   1.00526E+6  -4.20746E+5
   9.79915E+5  -4.29651E+5
   9.54157E+5  -4.44103E+5
   9.21757E+5  -4.59032E+5
   8.92612E+5  -4.69806E+5
   8.63874E+5  -4.85101E+5
   8.28973E+5  -5.02367E+5
   7.97853E+5  -5.15248E+5
   7.70062E+5  -5.25945E+5
   7.38652E+5  -5.31001E+5
   7.10368E+5  -5.33599E+5
   6.84776E+5  -5.36682E+5
   6.57412E+5  -5.37190E+5
   6.30678E+5  -5.35069E+5
   6.06042E+5  -5.34755E+5
   5.80781E+5  -5.31998E+5
   5.57752E+5  -5.27860E+5
   5.33545E+5  -5.25436E+5
   5.07309E+5  -5.22360E+5
   4.81185E+5  -5.19079E+5
   4.55613E+5  -5.16505E+5
   4.29567E+5  -5.12861E+5
   4.04920E+5  -5.08301E+5
   3.80928E+5  -5.04137E+5
   3.57303E+5  -4.98195E+5
   3.34954E+5  -4.90800E+5
   3.13542E+5  -4.83183E+5
   2.93926E+5  -4.74300E+5
   2.74420E+5  -4.64654E+5
   2.54877E+5  -4.54886E+5
   2.36111E+5  -4.45335E+5
   2.18512E+5  -4.35987E+5
   2.01198E+5  -4.25738E+5
   1.83747E+5  -4.15706E+5
   1.66780E+5  -4.05106E+5
   1.50530E+5  -3.94776E+5
   1.34384E+5  -3.83265E+5
   1.18781E+5  -3.72369E+5
   1.04297E+5  -3.61464E+5
   9.02164E+4  -3.50464E+5
   7.75022E+4  -3.39438E+5
   6.51671E+4  -3.28134E+5
   5.33239E+4  -3.16776E+5
   4.24429E+4  -3.05508E+5
   3.18121E+4  -2.93869E+5
   2.15545E+4  -2.82601E+5
   1.14290E+4  -2.71310E+5
   2.19582E+3  -2.60043E+5
  -7.40408E+3  -2.48854E+5
  -1.59478E+4  -2.38377E+5
  -2.42360E+4  -2.27784E+5
  -3.15901E+4  -2.17094E+5
  -3.93474E+4  -2.06899E+5
  -4.61646E+4  -1.96674E+5
  -5.19774E+4  -1.86677E+5
  -5.73896E+4  -1.77069E+5
  -6.22512E+4  -1.67361E+5
  -6.77003E+4  -1.58407E+5
  -7.19658E+4  -1.49244E+5
  -7.61920E+4  -1.40774E+5
  -7.95561E+4  -1.31993E+5
  -8.34207E+4  -1.23508E+5
  -8.72047E+4  -1.15413E+5
  -9.04396E+4  -1.07858E+5
  -9.35822E+4  -1.00205E+5
  -9.63371E+4  -9.28232E+4
  -9.87113E+4  -8.55075E+4
  -1.01470E+5  -7.87784E+4
  -1.03447E+5  -7.24803E+4
  -1.05321E+5  -6.62494E+4
  -1.06793E+5  -6.00780E+4
  -1.08069E+5  -5.42487E+4
  -1.09380E+5  -4.89156E+4
  -1.10165E+5  -4.41594E+4
  -1.10892E+5  -3.91271E+4
  -1.11613E+5  -3.43302E+4
  -1.12111E+5  -2.98361E+4
  -1.12739E+5  -2.56133E+4
  -1.12958E+5  -2.19308E+4
  -1.12789E+5  -1.79316E+4
  -1.12956E+5  -1.46026E+4
  -1.12773E+5  -1.10728E+4
  -1.12906E+5  -8.13285E+3
  -1.13162E+5  -5.37906E+3
  -1.12479E+5  -2.90375E+3
  -1.12303E+5  -4.60154E+2
  -1.12201E+5   1.61596E+3
  -1.11944E+5   3.37913E+3
  -1.11240E+5   4.87886E+3
  -1.10814E+5   6.58243E+3
  -1.10279E+5   7.79636E+3
  -1.09757E+5   9.39840E+3
  -1.09058E+5   1.03004E+4
  -1.08481E+5   1.14160E+4
  -1.08317E+5   1.23650E+4
  -1.08092E+5   1.27289E+4
  -1.07445E+5   1.32684E+4
  -1.06838E+5   1.37780E+4
  -1.06352E+5   1.40855E+4
  -1.06148E+5   1.42050E+4
  -1.05982E+5   1.41297E+4
  -1.05452E+5   1.38626E+4
  -1.05159E+5   1.33126E+4
  -1.04645E+5   1.27035E+4
  -1.04525E+5   1.23374E+4
  -1.04451E+5   1.18711E+4
  -1.04322E+5   1.09869E+4
  -1.03964E+5   1.02599E+4
  -1.03874E+5   9.54558E+3
  -1.03862E+5   8.73387E+3
  -1.04126E+5   7.63667E+3
  -1.03970E+5   6.65624E+3
  -1.03819E+5   5.51105E+3
  -1.03794E+5   4.64932E+3
  -1.03516E+5   3.73809E+3
  -1.03810E+5   2.73791E+3
  -1.03715E+5   1.19881E+3
  -1.03524E+5   3.99628E+2
  -1.03557E+5  -8.80211E+2
  -1.03696E+5  -2.13321E+3
  -1.03348E+5  -3.05579E+3
  -1.03563E+5  -4.47249E+3
  -1.03567E+5  -5.45594E+3
  -1.03967E+5  -6.49477E+3
  -1.04011E+5  -7.48304E+3
  -1.04006E+5  -8.90812E+3
  -1.04056E+5  -9.79011E+3
  -1.04083E+5  -1.06630E+4
  -1.04023E+5  -1.15496E+4
  -1.04029E+5  -1.24994E+4
  -1.03704E+5  -1.38487E+4
  -1.03895E+5  -1.46134E+4
  -1.03886E+5  -1.56436E+4
  -1.03543E+5  -1.65232E+4
  -1.03356E+5  -1.73505E+4
  -1.03401E+5  -1.86304E+4
  -1.03265E+5  -1.91727E+4
  -1.03046E+5  -1.98413E+4
  -1.03217E+5  -2.06762E+4
  -1.02761E+5  -2.16748E+4
  -1.02410E+5  -2.24987E+4
  -1.02436E+5  -2.32455E+4
  -1.02211E+5  -2.39354E+4
  -1.02010E+5  -2.47319E+4
  -1.01748E+5  -2.55845E+4
  -1.01178E+5  -2.62400E+4
  -1.01075E+5  -2.68654E+4
  -1.00702E+5  -2.74776E+4
  -1.00586E+5  -2.81971E+4
  -1.00084E+5  -2.91579E+4
  -9.96020E+4  -2.96230E+4
  -9.95418E+4  -3.00577E+4
  -9.88541E+4  -3.10140E+4
  -9.86319E+4  -3.16961E+4
  -9.80576E+4  -3.22753E+4
  -9.74366E+4  -3.26424E+4
  -9.71088E+4  -3.34210E+4
  -9.68627E+4  -3.36726E+4
  -9.61845E+4  -3.42379E+4
  -9.61284E+4  -3.46193E+4
  -9.56166E+4  -3.50532E+4
  -9.50941E+4  -3.55861E+4
  -9.45714E+4  -3.65823E+4
  -9.40612E+4  -3.67349E+4
  -9.34778E+4  -3.72044E+4
  -9.28522E+4  -3.75609E+4
  -9.26026E+4  -3.82233E+4
  -9.19538E+4  -3.86440E+4
  -9.10935E+4  -3.91119E+4
  -9.05318E+4  -3.95133E+4
  -8.99316E+4  -3.98127E+4
  -8.92275E+4  -4.04801E+4
  -8.84748E+4  -4.07969E+4
  -8.77032E+4  -4.12524E+4
  -8.71594E+4  -4.14626E+4
  -8.69529E+4  -4.16040E+4
  -8.58931E+4  -4.18277E+4
  -8.51077E+4  -4.22854E+4
  -8.46872E+4  -4.26574E+4
  -8.39666E+4  -4.28435E+4
  -8.30939E+4  -4.28476E+4
  -8.24159E+4  -4.32388E+4
  -8.14438E+4  -4.35192E+4
  -8.07639E+4  -4.36381E+4
  -7.99900E+4  -4.38353E+4
  -7.92825E+4  -4.41212E+4
  -7.81557E+4  -4.43066E+4
  -7.71650E+4  -4.41661E+4
  -7.63796E+4  -4.40617E+4
  -7.53765E+4  -4.44565E+4
  -7.48889E+4  -4.45950E+4
  -7.37132E+4  -4.41881E+4
  -7.29549E+4  -4.44348E+4
  -7.20330E+4  -4.45664E+4
  -7.12593E+4  -4.45568E+4
  -7.01588E+4  -4.42899E+4
  -6.88365E+4  -4.43187E+4
  -6.83372E+4  -4.41463E+4
  -6.71927E+4  -4.44408E+4
  -6.64201E+4  -4.44295E+4
  -6.54383E+4  -4.45028E+4
  -6.43984E+4  -4.43075E+4
  -6.35976E+4  -4.41108E+4
  -6.26324E+4  -4.39731E+4
  -6.16645E+4  -4.39345E+4
  -6.05925E+4  -4.37191E+4
  -5.96034E+4  -4.35436E+4
  -5.86833E+4  -4.35531E+4
  -5.77858E+4  -4.35300E+4
  -5.68605E+4  -4.31481E+4
  -5.57302E+4  -4.32447E+4
  -5.48895E+4  -4.28682E+4
  -5.39976E+4  -4.29104E+4
  -5.31794E+4  -4.25181E+4
  -5.20619E+4  -4.28597E+4
  -5.12484E+4  -4.25947E+4
  -5.00624E+4  -4.21461E+4
  -4.93732E+4  -4.21758E+4
  -4.83711E+4  -4.19383E+4
  -4.73500E+4  -4.20043E+4
  -4.65052E+4  -4.16471E+4
  -4.56610E+4  -4.16043E+4
  -4.46283E+4  -4.14622E+4
  -4.37979E+4  -4.14018E+4
  -4.28107E+4  -4.10776E+4
  -4.18468E+4  -4.08619E+4
  -4.10693E+4  -4.08654E+4
  -4.01796E+4  -4.07252E+4
  -3.91798E+4  -4.09309E+4
  -3.82805E+4  -4.07809E+4
  -3.74869E+4  -4.05951E+4
  -3.66819E+4  -4.04553E+4
  -3.57549E+4  -4.03569E+4
  -3.48865E+4  -4.03707E+4
  -3.39166E+4  -4.02854E+4
  -3.33048E+4  -3.99684E+4
  -3.25014E+4  -3.98414E+4
  -3.13991E+4  -3.98199E+4
  -3.03003E+4  -3.97667E+4
  -2.97678E+4  -3.95142E+4
  -2.90368E+4  -3.93149E+4
  -2.79622E+4  -3.90936E+4
  -2.73453E+4  -3.89552E+4
  -2.66177E+4  -3.86646E+4
  -2.59753E+4  -3.87111E+4
  -2.50203E+4  -3.86509E+4
  -2.41263E+4  -3.84564E+4
  -2.31914E+4  -3.83884E+4
  -2.25105E+4  -3.81774E+4
  -2.19371E+4  -3.78974E+4
  -2.10789E+4  -3.79266E+4
  -2.03629E+4  -3.76221E+4
  -1.95048E+4  -3.76624E+4
  -1.91725E+4  -3.74764E+4
  -1.82746E+4  -3.72937E+4
  -1.76675E+4  -3.71667E+4
  -1.69760E+4  -3.65651E+4
  -1.59786E+4  -3.66168E+4
  -1.54212E+4  -3.63353E+4
  -1.51745E+4  -3.60641E+4
  -1.40514E+4  -3.59539E+4
  -1.35151E+4  -3.55053E+4
  -1.27789E+4  -3.56757E+4
  -1.22995E+4  -3.53184E+4
  -1.17854E+4  -3.51144E+4
  -1.13788E+4  -3.46347E+4
  -1.06569E+4  -3.45616E+4
  -1.02419E+4  -3.46448E+4
  -9.80695E+3  -3.41779E+4
  -9.10607E+3  -3.37969E+4
  -8.38100E+3  -3.36662E+4
  -7.73765E+3  -3.34476E+4
  -7.19772E+3  -3.31315E+4
  -6.73903E+3  -3.26637E+4
  -6.46668E+3  -3.27948E+4
  -5.57083E+3  -3.22690E+4
  -5.09279E+3  -3.21283E+4
  -4.61625E+3  -3.17154E+4
  -4.32032E+3  -3.15723E+4
  -3.80015E+3  -3.11540E+4
  -3.20135E+3  -3.09341E+4
  -2.58065E+3  -3.07644E+4
  -2.18456E+3  -3.04238E+4
  -1.93222E+3  -3.01452E+4
  -1.32987E+3  -2.98854E+4
  -7.51995E+2  -2.95482E+4
  -6.17572E+2  -2.93350E+4
  -2.20296E+2  -2.90252E+4
   4.09321E+2  -2.85394E+4
   7.28316E+2  -2.83815E+4
   1.39143E+3  -2.80660E+4
   1.57404E+3  -2.75498E+4
   1.88277E+3  -2.71583E+4
   2.39815E+3  -2.71900E+4
   3.10638E+3  -2.68020E+4
   3.37771E+3  -2.64063E+4
   3.69556E+3  -2.61388E+4
   4.12799E+3  -2.61680E+4
   4.86060E+3  -2.54421E+4
   4.82252E+3  -2.51453E+4
   5.46165E+3  -2.49515E+4
   5.63767E+3  -2.47515E+4
   6.27317E+3  -2.44927E+4
   6.44989E+3  -2.41442E+4
   7.08104E+3  -2.39980E+4
   7.01374E+3  -2.39307E+4
   7.44058E+3  -2.35489E+4
   8.03145E+3  -2.34498E+4
   8.34862E+3  -2.26992E+4
   8.62122E+3  -2.29760E+4
   8.85077E+3  -2.25807E+4
   9.28445E+3  -2.24628E+4
   9.74569E+3  -2.20304E+4
   9.84878E+3  -2.20092E+4
   9.85410E+3  -2.16104E+4
   1.04833E+4  -2.13842E+4
   1.06331E+4  -2.12993E+4
   1.11403E+4  -2.11129E+4
   1.13909E+4  -2.05256E+4
   1.12376E+4  -2.04958E+4
   1.17669E+4  -2.02215E+4
   1.19406E+4  -2.01327E+4
   1.22592E+4  -1.96612E+4
   1.25073E+4  -1.94484E+4
   1.25011E+4  -1.93223E+4
   1.27932E+4  -1.91918E+4
   1.28376E+4  -1.89433E+4
   1.31776E+4  -1.87284E+4
   1.30189E+4  -1.86602E+4
   1.34640E+4  -1.83535E+4
   1.36284E+4  -1.83379E+4
   1.36749E+4  -1.77855E+4
   1.37871E+4  -1.75625E+4
   1.39048E+4  -1.75754E+4
   1.38868E+4  -1.73885E+4
   1.41631E+4  -1.72812E+4
   1.40300E+4  -1.72114E+4
   1.41555E+4  -1.68613E+4
