 LCModel (Version 6.3-1N) Copyright: S.W. Provencher.          Ref.: Magn. Reson. Med. 30:672-679 (1993).                
 Slice_N1@14_11  28-Feb-2025 11:39:10
 27 lines in following concentration table = NCONC+1
    Conc.  %SD /Cr+PCr  Metabolite                                         
 3.51E-04   4% 3.5E-04 Mac                                                 
    3.642  34%   3.679 Cr                                                  
    4.278  29%   4.321 PCr                                                 
    5.344  16%   5.398 Ins                                                 
   10.509   7%  10.616 NAA                                                 
    5.975  14%   6.036 Tau                                                 
    1.498  19%   1.513 PCho                                                
    0.000 999%   0.000 GPC                                                 
    9.783  11%   9.883 Glu                                                 
    4.926  16%   4.976 Gln                                                 
    3.757  19%   3.795 Ala                                                 
    1.360  84%   1.374 Asc                                                 
    2.691  34%   2.718 Asp                                                 
    0.118 418%   0.119 GABA                                                
    0.752  83%   0.760 Glc                                                 
    1.032  48%   1.042 GSH                                                 
    2.224  30%   2.246 Lac                                                 
    2.478  24%   2.503 NAAG                                                
    1.422  78%   1.437 PE                                                  
    1.498  19%   1.513 GPC+PCho                                            
   12.987   7%  13.119 NAA+NAAG                                            
   14.709   9%  14.858 Glu+Gln                                             
    7.920   9%   8.000 Cr+PCr                                              
   12.987   7%  13.119 NAA+NAAG                                            
    7.920   9%   8.000 Cr+PCr                                              
   14.709   9%  14.858 Glu+Gln                                             
   6 lines in following misc. output table
  FWHM = 0.033 ppm    S/N =   5                                            
  Data shift = 0.008 ppm                                                   
  Ph: 161 deg       0.0 deg/ppm                                            
  alphaB,S = 1.4E-01,   1.3E+01                                            
   19 spline knots.   Ns = 5(1)                                            
  ( 6) 3 infls.   ( 2) 2 extrs.                                            
  480 points on ppm-axis = NY
      4.100000     4.091866     4.083733     4.075600     4.067466     4.059333     4.051199     4.043066     4.034933     4.026799
      4.018666     4.010532     4.002399     3.994265     3.986132     3.977998     3.969864     3.961731     3.953597     3.945463
      3.937330     3.929196     3.921062     3.912929     3.904795     3.896662     3.888528     3.880394     3.872261     3.864127
      3.855993     3.847860     3.839726     3.831592     3.823459     3.815325     3.807191     3.799058     3.790924     3.782790
      3.774657     3.766523     3.758389     3.750256     3.742122     3.733989     3.725855     3.717721     3.709588     3.701454
      3.693320     3.685187     3.677053     3.668919     3.660786     3.652652     3.644518     3.636385     3.628251     3.620117
      3.611984     3.603850     3.595716     3.587583     3.579449     3.571316     3.563182     3.555048     3.546915     3.538781
      3.530647     3.522514     3.514380     3.506246     3.498113     3.489979     3.481845     3.473712     3.465578     3.457444
      3.449311     3.441177     3.433043     3.424910     3.416776     3.408643     3.400509     3.392375     3.384242     3.376108
      3.367974     3.359841     3.351707     3.343573     3.335440     3.327306     3.319172     3.311039     3.302905     3.294771
      3.286638     3.278504     3.270370     3.262237     3.254103     3.245970     3.237836     3.229702     3.221569     3.213435
      3.205301     3.197168     3.189034     3.180900     3.172767     3.164633     3.156499     3.148366     3.140232     3.132098
      3.123965     3.115831     3.107697     3.099564     3.091430     3.083297     3.075163     3.067029     3.058896     3.050762
      3.042628     3.034495     3.026361     3.018227     3.010094     3.001960     2.993826     2.985693     2.977559     2.969425
      2.961292     2.953158     2.945024     2.936891     2.928757     2.920624     2.912490     2.904356     2.896223     2.888089
      2.879955     2.871822     2.863688     2.855554     2.847421     2.839287     2.831153     2.823020     2.814886     2.806752
      2.798619     2.790485     2.782351     2.774218     2.766084     2.757951     2.749817     2.741683     2.733550     2.725416
      2.717282     2.709149     2.701015     2.692881     2.684748     2.676614     2.668480     2.660347     2.652213     2.644079
      2.635946     2.627812     2.619678     2.611545     2.603411     2.595278     2.587144     2.579010     2.570877     2.562743
      2.554609     2.546476     2.538342     2.530208     2.522075     2.513941     2.505807     2.497674     2.489540     2.481406
      2.473273     2.465139     2.457006     2.448872     2.440738     2.432605     2.424471     2.416337     2.408204     2.400070
      2.391936     2.383803     2.375669     2.367535     2.359402     2.351268     2.343134     2.335001     2.326867     2.318733
      2.310600     2.302466     2.294333     2.286199     2.278065     2.269932     2.261798     2.253664     2.245531     2.237397
      2.229263     2.221130     2.212996     2.204862     2.196729     2.188595     2.180461     2.172328     2.164194     2.156060
      2.147927     2.139793     2.131660     2.123526     2.115392     2.107259     2.099125     2.090991     2.082858     2.074724
      2.066590     2.058457     2.050323     2.042189     2.034056     2.025922     2.017788     2.009655     2.001521     1.993387
      1.985254     1.977120     1.968987     1.960853     1.952719     1.944586     1.936452     1.928318     1.920185     1.912051
      1.903917     1.895784     1.887650     1.879516     1.871383     1.863249     1.855115     1.846982     1.838848     1.830714
      1.822581     1.814447     1.806314     1.798180     1.790046     1.781913     1.773779     1.765645     1.757512     1.749378
      1.741244     1.733111     1.724977     1.716843     1.708710     1.700576     1.692442     1.684309     1.676175     1.668041
      1.659908     1.651774     1.643641     1.635507     1.627373     1.619240     1.611106     1.602972     1.594839     1.586705
      1.578571     1.570438     1.562304     1.554170     1.546037     1.537903     1.529769     1.521636     1.513502     1.505368
      1.497235     1.489101     1.480968     1.472834     1.464700     1.456567     1.448433     1.440299     1.432166     1.424032
      1.415898     1.407765     1.399631     1.391497     1.383364     1.375230     1.367096     1.358963     1.350829     1.342695
      1.334562     1.326428     1.318295     1.310161     1.302027     1.293894     1.285760     1.277626     1.269493     1.261359
      1.253225     1.245092     1.236958     1.228824     1.220691     1.212557     1.204423     1.196290     1.188156     1.180022
      1.171889     1.163755     1.155622     1.147488     1.139354     1.131221     1.123087     1.114953     1.106820     1.098686
      1.090552     1.082419     1.074285     1.066151     1.058018     1.049884     1.041750     1.033617     1.025483     1.017349
      1.009216     1.001082     0.992949     0.984815     0.976681     0.968548     0.960414     0.952280     0.944147     0.936013
      0.927879     0.919746     0.911612     0.903478     0.895345     0.887211     0.879077     0.870944     0.862810     0.854676
      0.846543     0.838409     0.830276     0.822142     0.814008     0.805875     0.797741     0.789607     0.781474     0.773340
      0.765206     0.757073     0.748939     0.740805     0.732672     0.724538     0.716404     0.708271     0.700137     0.692003
      0.683870     0.675736     0.667603     0.659469     0.651335     0.643202     0.635068     0.626934     0.618801     0.610667
      0.602533     0.594400     0.586266     0.578132     0.569999     0.561865     0.553731     0.545598     0.537464     0.529330
      0.521197     0.513063     0.504930     0.496796     0.488662     0.480529     0.472395     0.464261     0.456128     0.447994
      0.439861     0.431727     0.423593     0.415460     0.407326     0.399192     0.391059     0.382925     0.374792     0.366658
      0.358524     0.350391     0.342257     0.334124     0.325990     0.317856     0.309723     0.301589     0.293455     0.285322
      0.277188     0.269055     0.260921     0.252787     0.244654     0.236520     0.228386     0.220253     0.212119     0.203986
 NY phased data points follow
  -1.02639E+02 -1.14959E+02 -1.26793E+02 -1.21057E+02 -1.32602E+02 -1.23081E+02 -1.06169E+02 -1.15260E+02 -1.12876E+02 -1.28077E+02
  -1.41004E+02 -1.31289E+02 -1.43120E+02 -1.47241E+02 -1.39691E+02 -1.38590E+02 -1.53248E+02 -1.70561E+02 -1.55307E+02 -1.75472E+02
  -1.73699E+02 -1.43313E+02 -1.38320E+02 -9.96883E+01 -9.06362E+01 -6.70166E+01 -4.90033E+01 -7.05936E+01 -6.64020E+01 -6.79241E+01
  -6.03323E+01 -7.03745E+01 -8.02922E+01 -7.96648E+01 -8.57935E+01 -8.10021E+01 -8.64398E+01 -1.10380E+02 -1.21792E+02 -1.28149E+02
  -1.55882E+02 -1.35941E+02 -1.23409E+02 -1.13418E+02 -6.78713E+01 -5.56047E+01 -2.44644E+01 -2.17972E+01 -2.55209E+01 -9.55122E+00
  -3.17313E+01 -1.86173E+01 -4.36102E+01 -7.09033E+01 -5.00416E+01 -6.97819E+01 -6.32893E+01 -7.39310E+01 -8.00276E+01 -5.93141E+01
  -7.07127E+01 -4.60590E+01 -2.78004E+01 -3.60336E+01 -3.52889E+01 -2.72713E+01 -3.23365E+01 -5.21071E+01 -7.46046E+01 -9.38516E+01
  -9.67900E+01 -9.21627E+01 -6.18193E+01 -4.74558E+01 -4.12280E+01 -1.32733E+01 -1.62567E+01 -2.98161E+01 -2.02125E+01 -3.34919E+01
  -3.83648E+01 -2.95858E+01 -5.83246E+01 -5.97959E+01 -7.34240E+01 -8.78243E+01 -5.68263E+01 -4.24478E+01 -3.35581E+01 -2.34835E+01
  -2.42611E+01 -1.65174E+01 -8.13694E+00 -2.10461E+01 -6.27627E+00 -3.15155E+00 -1.58278E+01 -8.23778E+00 -6.19468E+00 -1.72323E+01
  -3.85176E+01 -3.82683E+01 -5.76060E+01 -6.52510E+01 -7.91130E+01 -9.79400E+01 -1.00212E+02 -1.26597E+02 -1.36727E+02 -1.66470E+02
  -1.87862E+02 -2.10038E+02 -2.12695E+02 -1.54881E+02 -1.10484E+02 -8.88401E+01 -8.44825E+01 -8.30382E+01 -7.03907E+01 -6.27992E+01
  -6.63004E+01 -5.04321E+01 -5.03040E+01 -5.33329E+01 -4.43819E+01 -3.42896E+01 -1.69355E+01 -1.37234E+01  2.40617E+01  5.69817E+01
   4.54972E+01  6.27638E+00 -5.43175E+01 -1.39628E+02 -1.95974E+02 -1.93453E+02 -1.71896E+02 -1.39926E+02 -1.41084E+02 -1.38247E+02
  -1.33328E+02 -1.38760E+02 -1.41875E+02 -1.35216E+02 -1.26894E+02 -1.31047E+02 -1.17677E+02 -1.21680E+02 -1.15293E+02 -1.14326E+02
  -1.13395E+02 -1.01571E+02 -9.19828E+01 -9.03396E+01 -1.04278E+02 -8.81786E+01 -8.00493E+01 -5.93001E+01 -7.76691E+01 -8.61690E+01
  -6.22392E+01 -8.58992E+01 -6.88131E+01 -7.12628E+01 -7.58368E+01 -6.96960E+01 -6.92492E+01 -5.61776E+01 -7.69921E+01 -6.44672E+01
  -4.63382E+01 -4.05620E+01 -4.02304E+01 -4.98214E+01 -2.86124E+01 -3.19563E+01 -4.78762E+01 -4.74994E+01 -5.26330E+01 -5.39302E+01
  -8.10768E+01 -1.05069E+02 -8.85788E+01 -8.96763E+01 -9.86552E+01 -9.83949E+01 -1.06138E+02 -9.24867E+01 -8.66762E+01 -8.68025E+01
  -7.95916E+01 -7.30017E+01 -5.81770E+01 -7.51317E+01 -7.06075E+01 -6.25705E+01 -6.08044E+01 -4.54321E+01 -5.52695E+01 -4.36924E+01
  -5.45298E+01 -5.31650E+01 -4.75951E+01 -5.64914E+01 -4.74827E+01 -5.44743E+01 -5.73680E+01 -8.24332E+01 -7.65941E+01 -8.69174E+01
  -9.51491E+01 -6.87734E+01 -6.70956E+01 -5.00906E+01 -3.68030E+01  2.06271E+00  1.06185E+01  2.72995E+01  2.56278E+01 -2.83233E+01
  -3.01565E+01 -4.55975E+01 -5.60623E+01 -6.09875E+01 -5.62001E+01 -5.39639E+01 -5.48305E+01 -5.20050E+01 -5.83021E+01 -5.77011E+01
  -8.39268E+01 -7.79451E+01 -9.64418E+01 -1.05055E+02 -8.45621E+01 -1.10043E+02 -1.27575E+02 -1.34450E+02 -1.17961E+02 -1.26507E+02
  -1.20485E+02 -9.20303E+01 -9.42132E+01 -6.90733E+01 -5.41264E+01 -6.16777E+01 -5.49699E+01 -5.85568E+01 -6.94597E+01 -6.60585E+01
  -7.68241E+01 -8.56710E+01 -9.05323E+01 -1.03633E+02 -1.04177E+02 -9.79176E+01 -6.27142E+01 -1.87894E+00  7.91259E+01  1.75893E+02
   1.81680E+02  1.17931E+02  1.25118E+02  1.01115E+02  5.76000E+01  6.53959E+01  3.99794E+01  4.15007E+01  4.10011E+01  3.59314E+01
   4.73520E+01  3.83151E+01  3.19478E+01  1.82658E+01  3.21621E+01  3.63095E+01  1.85366E+01  3.13854E+01  3.31483E+01  1.90614E+01
   3.11981E+01  2.77294E+01  2.33965E+01  2.35022E+01 -1.81459E+00  1.64942E+01  1.04470E+01  2.20619E+00  2.72168E+01  1.68441E+01
   1.70075E+01  1.59115E+01  2.22303E+01  1.10082E+01  4.87774E-01 -1.13263E+00 -2.31185E+01  5.40304E+00  3.28928E+00 -3.71671E+00
   2.57231E+01  2.56394E+01  3.25573E+01  3.68298E+01  5.42482E+01  5.23260E+01  5.34035E+01  8.21576E+01  7.78126E+01  8.80057E+01
   8.91278E+01  9.57035E+01  1.05380E+02  9.24483E+01  9.18126E+01  9.23257E+01  1.02492E+02  8.47905E+01  7.44144E+01  7.63808E+01
   6.09987E+01  5.35019E+01  3.42856E+01  1.62854E+01 -2.78962E+00 -1.69816E+01 -2.33063E+01 -3.10182E+01 -3.90357E+01 -4.57795E+01
  -5.86895E+01 -7.28023E+01 -7.39635E+01 -8.96836E+01 -9.32115E+01 -7.49453E+01 -7.67310E+01 -8.59584E+01 -9.05809E+01 -9.23093E+01
  -8.70349E+01 -9.51803E+01 -8.55117E+01 -7.01786E+01 -6.40104E+01 -4.80687E+01 -5.80094E+01 -4.25984E+01 -4.46314E+01 -6.48471E+01
  -4.88500E+01 -6.15016E+01 -6.81914E+01 -6.42738E+01 -6.40927E+01 -5.74628E+01 -6.50565E+01 -6.82504E+01 -6.57841E+01 -7.25695E+01
  -6.00221E+01 -5.42476E+01 -5.98845E+01 -5.28026E+01 -5.49657E+01 -4.94078E+01 -4.87895E+01 -3.82868E+01 -3.77416E+01 -3.52728E+01
  -2.53181E+01 -3.37163E+01 -2.08379E+01 -2.18475E+01 -6.78626E+00  2.86225E+00 -2.94508E-01  1.00846E+01  1.05474E+01  1.82578E+01
   1.87995E+01  3.67838E+01  4.45883E+01  4.19130E+01  5.19631E+01  5.87204E+01  7.34972E+01  8.07232E+01  7.43893E+01  6.72113E+01
   5.99308E+01  3.75196E+01  1.24187E+01  7.52721E+00 -4.19216E+00 -3.84971E+01 -3.36554E+01 -2.29633E+01 -3.07651E+01 -2.90624E+01
  -5.66565E+01 -6.91152E+01 -6.75639E+01 -8.30380E+01 -8.24981E+01 -8.08450E+01 -7.59388E+01 -6.62441E+01 -8.82880E+01 -8.77773E+01
  -7.71863E+01 -8.33247E+01 -7.35358E+01 -8.31087E+01 -7.50469E+01 -6.74420E+01 -6.79786E+01 -6.34825E+01 -5.60466E+01 -5.51034E+01
  -7.53049E+01 -6.22540E+01 -6.39130E+01 -6.39802E+01 -6.63139E+01 -7.32544E+01 -5.54956E+01 -5.97541E+01 -6.58214E+01 -6.77502E+01
  -6.12545E+01 -6.42722E+01 -6.79068E+01 -5.61460E+01 -5.37028E+01 -6.68674E+01 -5.92093E+01 -5.53475E+01 -6.91329E+01 -5.42697E+01
  -5.57510E+01 -5.83210E+01 -6.12633E+01 -5.76765E+01 -5.97281E+01 -6.50878E+01 -5.69542E+01 -6.97170E+01 -4.60606E+01 -4.46162E+01
  -5.90141E+01 -4.79690E+01 -4.32601E+01 -4.62677E+01 -6.08667E+01 -5.01804E+01 -5.31255E+01 -5.87215E+01 -4.89822E+01 -4.60922E+01
  -3.90997E+01 -4.03303E+01 -4.92404E+01 -5.12957E+01 -5.05230E+01 -5.52610E+01 -4.46670E+01 -4.03672E+01 -3.69483E+01 -3.31411E+01
  -5.07330E+01 -5.46862E+01 -4.81701E+01 -3.70894E+01 -3.73799E+01 -4.36956E+01 -4.11273E+01 -4.58984E+01 -4.07787E+01 -4.62521E+01
 NY points of the fit to the data follow
  -1.21154E+02 -1.25255E+02 -1.29991E+02 -1.31787E+02 -1.28736E+02 -1.21191E+02 -1.12956E+02 -1.08918E+02 -1.12777E+02 -1.22256E+02
  -1.31459E+02 -1.36580E+02 -1.38401E+02 -1.39383E+02 -1.40468E+02 -1.41752E+02 -1.44501E+02 -1.50250E+02 -1.57598E+02 -1.63572E+02
  -1.64139E+02 -1.53719E+02 -1.30328E+02 -9.98077E+01 -7.39198E+01 -5.86473E+01 -5.35528E+01 -5.52881E+01 -5.90171E+01 -6.10875E+01
  -6.04491E+01 -6.15845E+01 -6.48000E+01 -6.91683E+01 -7.41104E+01 -8.01392E+01 -8.87177E+01 -1.01450E+02 -1.18454E+02 -1.36277E+02
  -1.48518E+02 -1.47830E+02 -1.30425E+02 -1.00774E+02 -6.96382E+01 -4.68468E+01 -3.47531E+01 -3.13306E+01 -3.32419E+01 -3.73578E+01
  -4.12164E+01 -4.45875E+01 -4.94453E+01 -5.65522E+01 -6.50352E+01 -7.41635E+01 -8.20809E+01 -8.55820E+01 -8.40268E+01 -7.94672E+01
  -7.31826E+01 -6.43063E+01 -5.40582E+01 -4.52829E+01 -3.82548E+01 -3.46306E+01 -3.86692E+01 -5.16980E+01 -6.80217E+01 -8.08348E+01
  -8.58092E+01 -7.97279E+01 -6.52944E+01 -5.04366E+01 -3.92015E+01 -3.04570E+01 -2.35091E+01 -2.07013E+01 -2.24785E+01 -2.71375E+01
  -3.56520E+01 -4.89927E+01 -6.54943E+01 -8.01423E+01 -8.73754E+01 -8.43118E+01 -7.18102E+01 -5.54772E+01 -4.01369E+01 -2.99605E+01
  -2.41385E+01 -2.11464E+01 -1.84876E+01 -1.55213E+01 -1.26797E+01 -1.04721E+01 -9.50172E+00 -9.29961E+00 -9.10467E+00 -9.66649E+00
  -1.18580E+01 -1.70364E+01 -2.80168E+01 -4.59497E+01 -6.68024E+01 -8.28631E+01 -9.38949E+01 -1.07235E+02 -1.26986E+02 -1.53978E+02
  -1.80442E+02 -1.94044E+02 -1.80509E+02 -1.46689E+02 -1.14659E+02 -9.76800E+01 -9.21285E+01 -8.65772E+01 -8.03804E+01 -7.38347E+01
  -6.70115E+01 -5.94660E+01 -5.07231E+01 -4.03021E+01 -2.80501E+01 -1.46206E+01 -1.36022E+00  1.36054E+01  3.19469E+01  4.46881E+01
   3.81710E+01  3.62438E+00 -5.71783E+01 -1.29324E+02 -1.83640E+02 -1.93558E+02 -1.68454E+02 -1.40144E+02 -1.29477E+02 -1.29049E+02
  -1.29411E+02 -1.29720E+02 -1.29736E+02 -1.29336E+02 -1.28235E+02 -1.26069E+02 -1.22743E+02 -1.18570E+02 -1.14176E+02 -1.10200E+02
  -1.06978E+02 -1.04390E+02 -1.01825E+02 -9.89189E+01 -9.56337E+01 -9.25053E+01 -9.02064E+01 -8.89486E+01 -8.80254E+01 -8.64787E+01
  -8.42561E+01 -8.23416E+01 -8.18291E+01 -8.28002E+01 -8.40555E+01 -8.40950E+01 -8.28562E+01 -8.13791E+01 -7.92499E+01 -7.38879E+01
  -6.39853E+01 -5.23308E+01 -4.41465E+01 -4.32501E+01 -4.80659E+01 -5.25688E+01 -5.19971E+01 -4.87966E+01 -5.09069E+01 -6.22263E+01
  -7.78560E+01 -8.93066E+01 -9.34429E+01 -9.33740E+01 -9.25721E+01 -9.18339E+01 -9.03115E+01 -8.83924E+01 -8.62247E+01 -8.42334E+01
  -8.23305E+01 -7.94056E+01 -7.51540E+01 -7.02262E+01 -6.50388E+01 -5.97878E+01 -5.61415E+01 -5.50813E+01 -5.43311E+01 -5.17806E+01
  -4.87299E+01 -4.69907E+01 -4.53008E+01 -4.28000E+01 -4.29014E+01 -4.82746E+01 -5.76945E+01 -6.76566E+01 -7.66460E+01 -8.41748E+01
  -8.83164E+01 -8.61136E+01 -7.50233E+01 -5.59946E+01 -3.18436E+01 -7.85437E+00  9.31472E+00  1.43872E+01  6.64646E+00 -6.74894E+00
  -1.97331E+01 -2.71414E+01 -2.92457E+01 -2.69214E+01 -2.44546E+01 -2.57650E+01 -3.09535E+01 -3.96398E+01 -5.11477E+01 -6.44058E+01
  -7.82185E+01 -9.16993E+01 -1.03930E+02 -1.13845E+02 -1.20978E+02 -1.24964E+02 -1.25725E+02 -1.23521E+02 -1.19520E+02 -1.14281E+02
  -1.07661E+02 -9.90430E+01 -8.85875E+01 -7.71369E+01 -6.69449E+01 -6.13280E+01 -6.12909E+01 -6.61232E+01 -7.35621E+01 -8.33005E+01
  -9.20218E+01 -9.58929E+01 -9.81197E+01 -1.04163E+02 -1.08450E+02 -9.80569E+01 -6.49187E+01 -5.42040E+00  7.47599E+01  1.44121E+02
   1.62708E+02  1.31686E+02  9.11115E+01  7.16793E+01  6.65577E+01  6.34789E+01  6.04765E+01  5.73140E+01  5.45008E+01  5.25552E+01
   5.16756E+01  5.16010E+01  5.19350E+01  5.20861E+01  5.18296E+01  5.11408E+01  5.01852E+01  4.90814E+01  4.78415E+01  4.63834E+01
   4.44725E+01  4.21627E+01  3.96556E+01  3.71974E+01  3.47701E+01  3.21971E+01  2.93470E+01  2.61615E+01  2.25816E+01  1.84288E+01
   1.36915E+01  8.60008E+00  3.74183E+00 -2.90403E-01 -2.83277E+00 -3.36240E+00 -1.75426E+00  1.51307E+00  5.49312E+00  9.44895E+00
   1.31136E+01  1.66041E+01  2.00225E+01  2.32571E+01  2.61171E+01  2.87659E+01  3.14753E+01  3.44565E+01  3.76350E+01  4.08079E+01
   4.36482E+01  4.59751E+01  4.79075E+01  4.96884E+01  5.13607E+01  5.26017E+01  5.31185E+01  5.30304E+01  5.28723E+01  5.15338E+01
   4.61035E+01  3.44416E+01  1.49874E+01 -1.04739E+01 -3.62046E+01 -5.44875E+01 -6.20250E+01 -6.27509E+01 -6.11829E+01 -6.18607E+01
  -6.52398E+01 -7.05546E+01 -7.35896E+01 -7.21608E+01 -6.69613E+01 -5.89939E+01 -4.95475E+01 -4.08189E+01 -3.53196E+01 -3.46136E+01
  -3.94936E+01 -4.83752E+01 -5.75253E+01 -6.21308E+01 -5.99587E+01 -5.30708E+01 -4.46017E+01 -3.88046E+01 -3.65549E+01 -3.80319E+01
  -4.09486E+01 -4.52283E+01 -5.08912E+01 -5.72097E+01 -6.31164E+01 -6.74837E+01 -6.95383E+01 -6.91223E+01 -6.67759E+01 -6.31865E+01
  -5.87861E+01 -5.39633E+01 -4.90339E+01 -4.43094E+01 -3.99957E+01 -3.61408E+01 -3.26124E+01 -2.91444E+01 -2.56551E+01 -2.20500E+01
  -1.83635E+01 -1.45498E+01 -1.04812E+01 -5.94274E+00 -7.72376E-01  5.10444E+00  1.18079E+01  1.93110E+01  2.74944E+01  3.63403E+01
   4.58005E+01  5.57278E+01  6.57948E+01  7.55341E+01  8.36959E+01  8.83939E+01  8.78875E+01  8.14415E+01  6.95664E+01  5.41392E+01
   3.79773E+01  2.39118E+01  1.32190E+01  5.34776E+00 -1.53765E+00 -8.95213E+00 -1.79243E+01 -2.86419E+01 -4.02781E+01 -5.13156E+01
  -6.04563E+01 -6.73253E+01 -7.19047E+01 -7.46171E+01 -7.61159E+01 -7.69843E+01 -7.74278E+01 -7.76825E+01 -7.80401E+01 -7.85323E+01
  -7.88422E+01 -7.88512E+01 -7.85051E+01 -7.79575E+01 -7.73436E+01 -7.68404E+01 -7.64083E+01 -7.59409E+01 -7.55222E+01 -7.50833E+01
  -7.44809E+01 -7.36488E+01 -7.29562E+01 -7.25439E+01 -7.21839E+01 -7.16574E+01 -7.09942E+01 -7.03262E+01 -6.95085E+01 -6.85862E+01
  -6.77763E+01 -6.73442E+01 -6.71809E+01 -6.69544E+01 -6.64375E+01 -6.56164E+01 -6.46638E+01 -6.37040E+01 -6.28856E+01 -6.21388E+01
  -6.14305E+01 -6.07719E+01 -6.02747E+01 -5.99298E+01 -5.96469E+01 -5.93427E+01 -5.87840E+01 -5.79392E+01 -5.70063E+01 -5.63028E+01
  -5.58226E+01 -5.54008E+01 -5.48738E+01 -5.41541E+01 -5.32590E+01 -5.23430E+01 -5.15962E+01 -5.09833E+01 -5.03731E+01 -4.97750E+01
  -4.92501E+01 -4.88732E+01 -4.86059E+01 -4.83897E+01 -4.79282E+01 -4.71582E+01 -4.60554E+01 -4.48663E+01 -4.38102E+01 -4.31978E+01
  -4.30839E+01 -4.32125E+01 -4.32015E+01 -4.27872E+01 -4.20437E+01 -4.12790E+01 -4.07407E+01 -4.04043E+01 -4.00881E+01 -3.96662E+01
 NY background values follow
    -9.293E+01   -9.259E+01   -9.226E+01   -9.192E+01   -9.158E+01   -9.125E+01   -9.091E+01   -9.057E+01   -9.023E+01   -8.989E+01
    -8.955E+01   -8.921E+01   -8.887E+01   -8.853E+01   -8.819E+01   -8.785E+01   -8.751E+01   -8.716E+01   -8.682E+01   -8.648E+01
    -8.613E+01   -8.579E+01   -8.545E+01   -8.510E+01   -8.476E+01   -8.441E+01   -8.407E+01   -8.372E+01   -8.338E+01   -8.303E+01
    -8.268E+01   -8.234E+01   -8.199E+01   -8.165E+01   -8.130E+01   -8.096E+01   -8.061E+01   -8.027E+01   -7.993E+01   -7.959E+01
    -7.925E+01   -7.891E+01   -7.858E+01   -7.824E+01   -7.791E+01   -7.759E+01   -7.726E+01   -7.694E+01   -7.662E+01   -7.630E+01
    -7.599E+01   -7.568E+01   -7.537E+01   -7.507E+01   -7.477E+01   -7.448E+01   -7.419E+01   -7.391E+01   -7.363E+01   -7.336E+01
    -7.309E+01   -7.283E+01   -7.257E+01   -7.232E+01   -7.207E+01   -7.183E+01   -7.159E+01   -7.135E+01   -7.112E+01   -7.090E+01
    -7.067E+01   -7.045E+01   -7.024E+01   -7.002E+01   -6.981E+01   -6.961E+01   -6.940E+01   -6.920E+01   -6.900E+01   -6.880E+01
    -6.860E+01   -6.841E+01   -6.821E+01   -6.802E+01   -6.783E+01   -6.764E+01   -6.745E+01   -6.726E+01   -6.707E+01   -6.688E+01
    -6.669E+01   -6.650E+01   -6.630E+01   -6.611E+01   -6.592E+01   -6.572E+01   -6.553E+01   -6.533E+01   -6.513E+01   -6.493E+01
    -6.473E+01   -6.453E+01   -6.432E+01   -6.411E+01   -6.390E+01   -6.368E+01   -6.347E+01   -6.325E+01   -6.302E+01   -6.280E+01
    -6.257E+01   -6.233E+01   -6.210E+01   -6.186E+01   -6.161E+01   -6.136E+01   -6.111E+01   -6.085E+01   -6.058E+01   -6.031E+01
    -6.004E+01   -5.976E+01   -5.948E+01   -5.919E+01   -5.890E+01   -5.860E+01   -5.830E+01   -5.800E+01   -5.769E+01   -5.738E+01
    -5.706E+01   -5.675E+01   -5.643E+01   -5.611E+01   -5.578E+01   -5.546E+01   -5.513E+01   -5.480E+01   -5.447E+01   -5.415E+01
    -5.382E+01   -5.349E+01   -5.316E+01   -5.283E+01   -5.250E+01   -5.217E+01   -5.184E+01   -5.152E+01   -5.119E+01   -5.087E+01
    -5.055E+01   -5.023E+01   -4.992E+01   -4.960E+01   -4.929E+01   -4.898E+01   -4.868E+01   -4.838E+01   -4.808E+01   -4.778E+01
    -4.748E+01   -4.719E+01   -4.691E+01   -4.662E+01   -4.634E+01   -4.606E+01   -4.579E+01   -4.552E+01   -4.525E+01   -4.499E+01
    -4.473E+01   -4.447E+01   -4.422E+01   -4.397E+01   -4.373E+01   -4.349E+01   -4.326E+01   -4.303E+01   -4.280E+01   -4.258E+01
    -4.237E+01   -4.216E+01   -4.195E+01   -4.175E+01   -4.155E+01   -4.136E+01   -4.117E+01   -4.098E+01   -4.080E+01   -4.062E+01
    -4.044E+01   -4.027E+01   -4.010E+01   -3.993E+01   -3.976E+01   -3.960E+01   -3.944E+01   -3.928E+01   -3.912E+01   -3.897E+01
    -3.881E+01   -3.866E+01   -3.851E+01   -3.835E+01   -3.820E+01   -3.805E+01   -3.790E+01   -3.775E+01   -3.760E+01   -3.745E+01
    -3.730E+01   -3.715E+01   -3.700E+01   -3.685E+01   -3.670E+01   -3.655E+01   -3.640E+01   -3.625E+01   -3.610E+01   -3.595E+01
    -3.580E+01   -3.565E+01   -3.551E+01   -3.536E+01   -3.522E+01   -3.507E+01   -3.493E+01   -3.479E+01   -3.466E+01   -3.452E+01
    -3.439E+01   -3.425E+01   -3.413E+01   -3.400E+01   -3.387E+01   -3.375E+01   -3.363E+01   -3.352E+01   -3.341E+01   -3.330E+01
    -3.319E+01   -3.309E+01   -3.299E+01   -3.289E+01   -3.280E+01   -3.271E+01   -3.262E+01   -3.254E+01   -3.246E+01   -3.238E+01
    -3.230E+01   -3.223E+01   -3.216E+01   -3.209E+01   -3.203E+01   -3.196E+01   -3.190E+01   -3.184E+01   -3.178E+01   -3.173E+01
    -3.167E+01   -3.162E+01   -3.157E+01   -3.152E+01   -3.148E+01   -3.143E+01   -3.139E+01   -3.135E+01   -3.130E+01   -3.126E+01
    -3.123E+01   -3.119E+01   -3.115E+01   -3.112E+01   -3.109E+01   -3.106E+01   -3.103E+01   -3.101E+01   -3.100E+01   -3.099E+01
    -3.098E+01   -3.098E+01   -3.099E+01   -3.100E+01   -3.102E+01   -3.105E+01   -3.109E+01   -3.113E+01   -3.119E+01   -3.125E+01
    -3.133E+01   -3.141E+01   -3.151E+01   -3.161E+01   -3.173E+01   -3.186E+01   -3.200E+01   -3.216E+01   -3.233E+01   -3.251E+01
    -3.271E+01   -3.293E+01   -3.315E+01   -3.340E+01   -3.365E+01   -3.392E+01   -3.420E+01   -3.450E+01   -3.480E+01   -3.512E+01
    -3.545E+01   -3.579E+01   -3.615E+01   -3.651E+01   -3.689E+01   -3.727E+01   -3.767E+01   -3.807E+01   -3.849E+01   -3.891E+01
    -3.934E+01   -3.979E+01   -4.023E+01   -4.069E+01   -4.116E+01   -4.163E+01   -4.211E+01   -4.260E+01   -4.309E+01   -4.359E+01
    -4.409E+01   -4.460E+01   -4.512E+01   -4.563E+01   -4.616E+01   -4.668E+01   -4.720E+01   -4.773E+01   -4.825E+01   -4.878E+01
    -4.930E+01   -4.982E+01   -5.034E+01   -5.085E+01   -5.136E+01   -5.187E+01   -5.236E+01   -5.286E+01   -5.334E+01   -5.381E+01
    -5.428E+01   -5.473E+01   -5.518E+01   -5.561E+01   -5.603E+01   -5.644E+01   -5.684E+01   -5.722E+01   -5.758E+01   -5.793E+01
    -5.826E+01   -5.858E+01   -5.888E+01   -5.916E+01   -5.943E+01   -5.968E+01   -5.991E+01   -6.013E+01   -6.033E+01   -6.051E+01
    -6.068E+01   -6.083E+01   -6.097E+01   -6.109E+01   -6.120E+01   -6.129E+01   -6.136E+01   -6.142E+01   -6.147E+01   -6.150E+01
    -6.151E+01   -6.151E+01   -6.150E+01   -6.147E+01   -6.142E+01   -6.137E+01   -6.129E+01   -6.121E+01   -6.111E+01   -6.099E+01
    -6.086E+01   -6.072E+01   -6.057E+01   -6.040E+01   -6.022E+01   -6.003E+01   -5.982E+01   -5.961E+01   -5.938E+01   -5.914E+01
    -5.890E+01   -5.864E+01   -5.838E+01   -5.810E+01   -5.782E+01   -5.753E+01   -5.723E+01   -5.692E+01   -5.661E+01   -5.629E+01
    -5.597E+01   -5.564E+01   -5.530E+01   -5.496E+01   -5.461E+01   -5.426E+01   -5.391E+01   -5.355E+01   -5.319E+01   -5.283E+01
    -5.246E+01   -5.209E+01   -5.172E+01   -5.135E+01   -5.098E+01   -5.061E+01   -5.023E+01   -4.985E+01   -4.947E+01   -4.909E+01
    -4.871E+01   -4.833E+01   -4.794E+01   -4.756E+01   -4.717E+01   -4.679E+01   -4.640E+01   -4.601E+01   -4.563E+01   -4.524E+01
    -4.485E+01   -4.446E+01   -4.407E+01   -4.368E+01   -4.330E+01   -4.291E+01   -4.252E+01   -4.213E+01   -4.175E+01   -4.136E+01
    -4.098E+01   -4.059E+01   -4.021E+01   -3.983E+01   -3.944E+01   -3.906E+01   -3.868E+01   -3.830E+01   -3.792E+01   -3.754E+01
    -3.716E+01   -3.679E+01   -3.641E+01   -3.603E+01   -3.565E+01   -3.528E+01   -3.490E+01   -3.452E+01   -3.415E+01   -3.377E+01
    -3.340E+01   -3.302E+01   -3.265E+01   -3.227E+01   -3.190E+01   -3.152E+01   -3.115E+01   -3.077E+01   -3.040E+01   -3.003E+01
 Mac      Conc. = 3.51E-04
  -1.18380E+02 -1.18651E+02 -1.18653E+02 -1.18668E+02 -1.19181E+02 -1.20462E+02 -1.22407E+02 -1.24628E+02 -1.26523E+02 -1.27631E+02
  -1.27817E+02 -1.27427E+02 -1.27144E+02 -1.27687E+02 -1.29097E+02 -1.30357E+02 -1.30149E+02 -1.27295E+02 -1.21576E+02 -1.14151E+02
  -1.07305E+02 -1.02554E+02 -9.95978E+01 -9.76729E+01 -9.63642E+01 -9.52809E+01 -9.35582E+01 -9.09222E+01 -8.79517E+01 -8.52400E+01
  -8.30870E+01 -8.16667E+01 -8.09812E+01 -8.08845E+01 -8.10000E+01 -8.06977E+01 -7.92625E+01 -7.65071E+01 -7.31798E+01 -7.05448E+01
  -6.94353E+01 -6.94511E+01 -6.93193E+01 -6.80934E+01 -6.60473E+01 -6.42658E+01 -6.36341E+01 -6.43289E+01 -6.58852E+01 -6.77257E+01
  -6.93723E+01 -7.06158E+01 -7.13689E+01 -7.16218E+01 -7.14149E+01 -7.06927E+01 -6.94589E+01 -6.76196E+01 -6.52574E+01 -6.27853E+01
  -6.07290E+01 -5.94062E+01 -5.89008E+01 -5.93507E+01 -6.05832E+01 -6.20022E+01 -6.30612E+01 -6.35332E+01 -6.32830E+01 -6.20830E+01
  -5.97328E+01 -5.63537E+01 -5.25904E+01 -4.97295E+01 -4.85772E+01 -4.89286E+01 -4.99599E+01 -5.11237E+01 -5.22078E+01 -5.30598E+01
  -5.34652E+01 -5.34275E+01 -5.29846E+01 -5.21355E+01 -5.08297E+01 -4.92437E+01 -4.77686E+01 -4.65662E+01 -4.55863E+01 -4.48067E+01
  -4.41986E+01 -4.37752E+01 -4.36048E+01 -4.40454E+01 -4.53447E+01 -4.76585E+01 -5.07780E+01 -5.42037E+01 -5.72894E+01 -5.98453E+01
  -6.20187E+01 -6.43433E+01 -6.74732E+01 -7.21781E+01 -7.87034E+01 -8.66201E+01 -9.48574E+01 -1.01824E+02 -1.05721E+02 -1.05549E+02
