 
 $NMID
 ID=''
 FMTDAT='(2E13.5)'
 TRAMP=   1.00000E+0
 VOLUME=   1.00000E+0
 $END
  -2.28551E+4  -2.49228E+3
  -8.84422E+3   1.50434E+4
   1.86975E+4  -3.51855E+2
   1.57434E+2  -1.19279E+4
  -1.54628E+4   6.82186E+3
   5.45073E+3   4.22071E+3
   7.72673E+3  -1.04170E+4
  -5.08462E+3   1.84510E+3
   2.83126E+3   7.02086E+3
   4.00108E+3  -4.64967E+3
  -6.64515E+3   3.46101E+2
  -1.69642E+3   4.72995E+3
   2.67204E+3  -2.70716E+3
  -2.66622E+3   3.33281E+0
  -9.06383E+2   1.97595E+3
   2.08572E+3  -4.46655E+3
   3.24613E+2  -8.93270E+2
   1.71333E+3   3.29504E+3
   9.57732E+2  -1.63449E+3
  -1.66289E+3  -1.19296E+3
   2.73480E+2   5.64077E+2
   1.45890E+3  -2.60627E+3
  -3.29755E+2   1.29466E+2
  -4.03683E+2   2.64672E+3
  -3.05213E+2  -2.13859E+3
   5.00339E+2  -2.13494E+3
   1.85372E+3   3.13849E+3
  -1.45890E+3   1.85569E+3
  -2.51262E+3  -1.61845E+3
   1.78272E+3  -6.40931E+1
   1.17031E+3   2.12372E+3
  -2.15170E+3   1.19796E+3
  -8.44008E+2  -6.94505E+2
   2.26152E+2  -1.10206E+3
   5.08720E+1  -9.20305E+2
   1.72472E+3  -1.15074E+3
   1.67960E+3   4.02545E+2
   1.53704E+2   2.05063E+3
  -4.38893E+2   3.21016E+2
  -3.56650E+1  -9.91405E+2
  -9.45937E+2   1.01330E+3
  -4.65434E+2   1.43893E+2
   6.28209E+2  -2.17344E+3
   1.48446E+3  -1.09545E+3
   1.56615E+3   8.22082E+2
   5.42976E+2   1.35661E+3
  -7.88841E+2   1.73323E+3
  -1.53701E+3   5.04170E+2
  -9.00236E+2  -1.70389E+3
  -6.48000E+2  -1.52333E+3
  -2.63599E+2  -4.93045E+2
   2.62172E+2  -8.81908E+2
   5.37572E+2  -7.87791E+2
   4.52672E+2   5.35127E+2
   2.50821E+2   2.08268E+2
  -1.61747E+2  -7.32446E+1
  -1.19976E+3   5.38240E+2
  -1.07556E+3  -5.70968E+2
   1.07848E+2  -1.70905E+3
   9.63481E+2  -5.41874E+2
   8.29397E+2   9.22580E+2
  -8.15392E+1   9.31133E+2
  -3.91833E+2   1.08757E+3
  -5.29376E+2   1.07792E+3
  -1.83948E+3   4.37431E+2
  -2.09673E+3  -5.00333E+2
  -2.87942E+2  -1.81658E+3
   1.13239E+3  -1.60622E+3
   6.62387E+2   4.37513E+2
  -2.80796E+2   1.15453E+3
  -7.62576E+2  -1.86877E+2
   3.04632E+1  -7.53489E+2
   8.26257E+2   4.26168E+2
  -2.63105E+1   8.52187E+2
  -6.45506E+2   2.57216E+2
   4.02245E+2   1.83844E+2
   3.65606E+2   3.53504E+2
  -1.63263E+2   7.25472E+2
  -1.66173E+2   6.50548E+2
   7.95978E+0   1.62814E+2
  -6.91101E+2   3.64741E+1
  -6.05983E+2  -4.61046E+2
   2.23207E+2  -4.37328E+2
   3.97000E+2   5.65379E+1
  -5.82550E+2   3.20697E+2
   1.52188E+1  -4.68651E+2
   7.05041E+2  -4.75395E+2
   7.34384E+2   5.01092E+2
  -2.82417E+1   5.21345E+2
   3.14174E+1   3.75933E+1
   7.63923E+2  -1.66178E-3
   5.63580E+2   4.71122E+2
  -3.22068E+2   1.13873E+3
  -8.99655E+2   5.90550E+2
  -4.21113E+2  -6.43154E+2
   3.10738E+2  -6.23210E+2
   5.13592E+0  -5.22424E+1
  -1.97311E+2   2.43172E+2
   4.13523E+1  -2.86696E+2
   4.37507E+2   4.34416E+1
   7.37232E+2   4.51493E+2
  -1.06354E+1   6.30405E+2
  -4.44456E+2   6.64065E+1
  -3.05130E+2  -3.48422E+2
   1.43608E+2  -3.51911E+2
   6.75393E+2   3.69891E+2
   4.10444E+2   7.70305E+2
  -7.75099E+2   2.85682E+2
  -9.98620E+2  -4.12446E+2
   1.48101E+2  -7.40100E+2
   1.10845E+3  -3.59401E+2
   6.61571E+2   5.08729E+2
  -7.27690E+1   7.53445E+2
  -2.54103E+2   2.89668E+2
   1.49661E+2   4.23658E+2
   1.30593E+2   5.94543E+2
  -8.12776E+2   2.28369E+2
  -9.88389E+2  -2.98333E+2
   1.66618E+1  -9.02056E+2
   7.31510E+2  -6.90145E+2
   5.70854E+2  -1.12589E+2
   4.16316E+2   3.20942E+2
   5.50158E+2   1.74358E+2
   9.99341E+1   4.08903E+2
  -4.72844E+2   2.77747E+2
  -4.37423E+2  -7.63766E+1
   1.46488E+2  -5.32190E+2
   3.05783E+2  -9.80228E+1
   1.96254E+2   7.61602E+1
   1.30466E+1   2.67859E+2
  -1.10693E+2   5.31078E+2
  -5.69279E+2   4.48321E+2
  -3.95851E+2  -4.07903E+2
   2.53678E+2  -2.78835E+2
   1.39704E+2   2.03540E+2
   1.07963E+1   2.86980E+0
  -1.18257E+2  -6.26370E+1
   6.41812E+2  -1.20415E+2
   3.74237E+2   4.90116E+2
  -3.50104E+2   6.86972E+2
  -7.48566E+2   4.28814E+1
  -2.35904E+2  -4.23137E+2
   7.18573E+2  -2.91635E+2
   2.14245E+2   4.04585E+2
   3.80043E+0   5.47473E+2
  -3.15046E+2   5.12157E+2
  -2.39243E+2   2.08205E+2
  -1.21271E+2   1.26698E+2
  -1.34657E+2   4.17532E+1
  -2.28121E+2  -1.51888E+2
  -4.15135E+0  -5.20023E+2
   2.07953E+2  -1.23089E+2
   4.44738E+2   1.28478E+2
   3.46640E+2   3.48919E+2
  -9.68683E+1   1.46753E+2
  -3.99802E+1  -2.42583E+2
   2.29402E+2  -1.36518E+2
   1.28337E+1   2.91764E+2
   1.18003E+2   3.32821E+2
   1.68073E+1   1.10995E+2
   1.64989E+2   3.73029E+2
  -1.37853E+2   2.62214E+2
  -1.71661E+2   8.40669E+1
  -2.43792E+2  -1.74342E+2
   9.01412E+1  -3.06253E+2
   3.99433E+2  -1.45090E+2
   3.41250E+2   2.87411E+1
   1.72355E+1   4.53508E+2
  -1.80754E+2  -1.85292E+2
   1.85897E+2  -2.62783E+2
   8.41846E+1  -5.67598E+1
   3.34118E+2   1.43219E+0
  -9.67676E+1   2.48365E+2
  -2.15929E+2   2.87196E+1
  -1.37447E+1  -1.36149E+2
   1.33260E+2  -1.09545E+2
   5.77500E+1  -8.72754E+1
  -2.32079E+2   1.42400E+2
  -5.83477E+1  -3.02340E+2
   1.41315E+2  -2.53234E+2
   2.85936E+2  -1.20429E+1
   2.92096E+2   3.01239E+2
   4.67378E+1   1.04708E+2
  -1.09334E+2  -5.02227E+1
  -2.67494E+2  -3.45668E+1
  -2.24625E+2  -1.53347E+2
   3.87259E+0  -1.51846E+2
  -4.32617E+1  -3.93297E+2
   5.81201E+1  -5.21457E+0
   6.02405E+2   1.92505E+1
   1.78308E+2   1.26326E+2
  -1.47639E+2   3.25935E+2
  -5.11427E+2  -5.09558E+1
  -1.32111E+2  -2.95254E+2
   4.88860E+0  -3.75837E+2
   2.17442E+2  -1.37528E+2
  -1.69348E+2   1.11278E+2
  -2.98210E+1   3.77048E+1
  -1.67648E+0  -4.39896E+1
  -6.74014E+1   1.59137E+2
  -3.82308E+2  -1.28083E+2
  -2.76182E+2  -2.51583E+2
  -2.08123E+2  -2.81604E+2
   2.93192E+2  -2.56075E+2
   2.66741E+2  -1.73009E+2
  -3.67559E+1  -1.01649E+2
  -1.20934E+2  -1.04010E+1
   5.76920E+1  -4.49477E+1
   2.04530E+2   1.57580E+1
   2.58524E+1  -8.89259E+1
  -1.06502E+2   7.33345E+1
  -7.86623E+1  -2.25354E+2
   7.70326E+1   2.83645E+1
  -2.43162E+1   1.31059E+2
  -2.63482E+2   5.19217E+1
  -4.09172E+2   5.20164E+1
  -1.56217E+1  -1.31063E+2
  -2.45365E+1  -7.72594E+1
   1.76386E+2  -2.43228E+2
   2.82099E+0  -3.63192E+2
  -8.19701E+1  -1.88854E+2
   8.13122E+1  -6.19336E+1
  -1.33062E+2   6.86007E+1
  -2.38744E+1   1.03992E+2
  -3.83757E+2   1.43723E+2
  -7.68315E+1  -1.01802E+2
   1.31539E+2  -7.05142E+1
   1.36159E+2  -4.49591E+1
  -1.38414E+1  -8.94758E+1
  -7.91203E+1  -1.07114E+1
  -1.99372E+1  -2.66004E+2
  -5.91854E+1  -2.90016E+2
  -4.90597E+1  -1.32865E+2
   1.07663E+2   1.14983E+1
  -1.55669E+2   2.70220E+1
  -1.13024E+2  -1.02422E+2
   1.38388E+2  -6.94896E+1
   1.40879E+2   2.17343E+2
  -3.23175E+1   5.97057E+0
  -4.10693E+1  -2.02373E+2
  -3.65376E+1  -1.45594E+2
   2.30263E+2  -2.43728E+2
   1.95752E+2   1.45952E+2
   2.42358E+1   1.31378E+2
   8.88652E+1   7.69122E+0
  -1.37913E+2  -4.58980E+1
   1.45611E+2  -1.18033E+2
   1.20198E+2   3.35547E+2
   4.64193E+1  -7.31255E+1
   9.48114E+1  -3.53501E+2
   2.00338E+2  -1.76471E+2
   1.84261E+1   2.83772E+2
  -1.55833E+2   8.66928E+1
  -1.80370E+2  -4.54887E+1
   7.28580E+1  -2.94088E+2
   1.89113E+2  -1.98357E+2
   4.72009E+1   8.60301E+1
   2.43971E+2  -1.74060E+2
   5.72553E+0  -2.77315E+1
  -5.97734E+1  -8.28797E+0
   2.48292E+2   4.26934E+1
  -2.59253E+2  -1.52492E+2
  -2.46936E+2  -7.80363E+1
  -1.65656E+2  -2.65407E+2
   2.80081E+2  -2.88155E+2
   2.53328E+2   9.48985E+1
  -1.02882E+2   4.78573E+1
  -1.79237E+2  -8.59145E+1
  -3.97653E+1  -3.86101E+2
   9.97189E+1  -9.91208E+1
   1.46833E+1   5.50673E+1
  -1.23345E+2  -7.44388E+1
  -9.22769E+1  -7.02889E+1
  -2.18382E+1  -4.86018E+1
   1.45027E+2  -1.03439E+2
   9.68281E+1   1.34764E+2
  -1.29189E+2  -1.59905E+2
  -6.96202E+0  -4.17842E+2
   2.36005E+2  -2.95046E+2
   2.36685E+2  -1.81858E+2
   3.51348E+1  -2.25925E+2
   2.97402E+1   5.93098E+1
  -1.38645E+2  -4.07269E+1
  -9.71815E+1   1.19704E+2
  -7.21499E+1   1.68060E+1
  -1.98814E+2   1.16762E+2
  -7.57191E+1  -2.23667E+2
   1.18965E+2  -1.39744E+2
  -4.46216E+1  -6.03382E+1
  -5.95530E-3  -8.65455E+0
  -1.44953E+2   1.62958E+2
  -9.04579E+1  -9.01887E+1
  -9.07535E+1   1.56585E+1
   7.24603E+1   1.90208E+1
  -2.09860E+1  -6.81961E+1
  -2.85703E+2  -1.49127E+2
  -4.61643E+1  -1.62289E+2
  -7.41836E+1   1.43138E+1
  -1.02908E+2   2.23241E+1
  -3.94050E+1   7.64883E+1
  -1.92867E+2  -1.36257E+2
  -6.18647E+1  -2.28227E+2
   2.67592E+2   1.28017E+2
  -2.96828E+0   2.63403E+2
  -6.73309E+1  -1.82346E+1
  -2.92767E+1  -2.15153E+2
   1.02183E+2   5.90921E+1
   2.21704E+1  -2.22166E+2
  -7.44973E+1  -1.08179E+1
   1.11203E+2  -4.44862E+0
   3.31100E+1   9.45919E+0
  -1.46574E+2  -4.87973E+1
   5.58351E+1  -2.74934E+1
  -2.64538E+2   2.87021E+2
  -8.13963E+1  -1.33103E+2
   4.34158E+1  -6.67627E+1
   1.29589E+1  -6.77074E+1
   5.57169E+1   2.39104E+2
   7.23102E+1   1.85216E+2
   4.08791E+1  -2.13718E+2
   1.41143E+2  -1.17171E+2
   8.71875E+0  -8.71774E+1
  -8.87202E+1   1.16666E+2
  -1.77679E+2   1.48971E+2
  -8.93555E+1  -3.61169E+2
   1.74510E+2  -9.21791E+1
   2.07348E+2   1.66130E+2
  -9.03048E+0   1.62991E+2
   1.19338E+2  -7.97368E+1
   1.85333E+2  -3.14812E+1
  -1.43801E+2   2.42490E+1
   2.80934E+2  -9.49008E+0
   1.30531E+2   1.28939E+1
  -1.17087E+2  -1.63710E+2
   1.55339E+2   1.48522E+2
   8.60426E+1  -3.54656E+1
  -1.53903E+2   1.27997E+2
  -9.81776E+1   1.33799E+2
   1.43926E+2  -1.85370E+2
  -1.99533E+1   6.59713E+1
   2.65582E+1  -1.52565E+2
   1.07163E+2  -1.02369E+2
  -6.33336E+1   8.22324E+1
  -1.18753E+2  -1.46421E+2
   3.93956E+1  -8.50781E+1
   1.03778E+2  -7.08192E+1
  -2.93711E+1  -3.01992E+2
   3.62111E+1  -1.27900E+2
  -7.38233E+1   7.62436E+1
   2.41561E+2  -8.41586E+1
  -1.72756E+2   1.78904E+2
   4.02008E+0  -1.24508E+2
   5.34152E+1  -5.82305E+1
   3.47769E+1  -1.72382E+2
  -3.13778E+1  -2.24843E+2
  -2.09509E+2  -1.80604E+2
  -1.04310E+2  -2.88282E+2
   9.70440E+1   3.25700E+1
   1.44576E+2   2.38448E+1
  -2.33924E+1   4.31579E+1
  -2.20099E+2  -1.65174E+2
  -1.75092E+2  -2.26487E+2
   2.08796E+2  -8.43902E+1
  -5.38749E+1   1.79781E+2
  -3.58753E+1   1.50254E+2
  -1.62943E+1  -3.37703E+1
  -3.85161E+1   5.84078E+0
