 LCModel (Version 6.3-1N) Copyright: S.W. Provencher.          Ref.: Magn. Reson. Med. 30:672-679 (1993).                
 Slice_N1@16_18  28-Feb-2025 11:37:56
 27 lines in following concentration table = NCONC+1
    Conc.  %SD /Cr+PCr  Metabolite                                         
 2.80E-04   5% 2.6E-04 Mac                                                 
    3.550  29%   3.340 Cr                                                  
    4.953  20%   4.660 PCr                                                 
    7.926  13%   7.457 Ins                                                 
   11.676   8%  10.985 NAA                                                 
    7.352  14%   6.917 Tau                                                 
    1.083  65%   1.019 PCho                                                
    0.837  83%   0.788 GPC                                                 
    8.519  14%   8.016 Glu                                                 
    3.478  26%   3.273 Gln                                                 
    3.532  22%   3.323 Ala                                                 
    2.581  52%   2.428 Asc                                                 
    1.906  56%   1.793 Asp                                                 
    0.762  75%   0.717 GABA                                                
    0.766  96%   0.721 Glc                                                 
    1.539  34%   1.448 GSH                                                 
    0.000 999%   0.000 Lac                                                 
    1.842  34%   1.733 NAAG                                                
    0.591 209%   0.556 PE                                                  
    1.920  18%   1.807 GPC+PCho                                            
   13.518   7%  12.718 NAA+NAAG                                            
   11.998  12%  11.288 Glu+Gln                                             
    8.503  10%   8.000 Cr+PCr                                              
   13.518   7%  12.718 NAA+NAAG                                            
    8.503  10%   8.000 Cr+PCr                                              
   11.998  12%  11.288 Glu+Gln                                             
   6 lines in following misc. output table
  FWHM = 0.016 ppm    S/N =   4                                            
  Data shift = 0.024 ppm                                                   
  Ph: -99 deg       0.0 deg/ppm                                            
  alphaB,S = 1.6E-01,   4.0E-01                                            
   19 spline knots.   Ns = 5(1)                                            
   2 inflections.     1 extrema                                            
  480 points on ppm-axis = NY
      4.100000     4.091866     4.083733     4.075600     4.067466     4.059333     4.051199     4.043066     4.034933     4.026799
      4.018666     4.010532     4.002399     3.994265     3.986132     3.977998     3.969864     3.961731     3.953597     3.945463
      3.937330     3.929196     3.921062     3.912929     3.904795     3.896662     3.888528     3.880394     3.872261     3.864127
      3.855993     3.847860     3.839726     3.831592     3.823459     3.815325     3.807191     3.799058     3.790924     3.782790
      3.774657     3.766523     3.758389     3.750256     3.742122     3.733989     3.725855     3.717721     3.709588     3.701454
      3.693320     3.685187     3.677053     3.668919     3.660786     3.652652     3.644518     3.636385     3.628251     3.620117
      3.611984     3.603850     3.595716     3.587583     3.579449     3.571316     3.563182     3.555048     3.546915     3.538781
      3.530647     3.522514     3.514380     3.506246     3.498113     3.489979     3.481845     3.473712     3.465578     3.457444
      3.449311     3.441177     3.433043     3.424910     3.416776     3.408643     3.400509     3.392375     3.384242     3.376108
      3.367974     3.359841     3.351707     3.343573     3.335440     3.327306     3.319172     3.311039     3.302905     3.294771
      3.286638     3.278504     3.270370     3.262237     3.254103     3.245970     3.237836     3.229702     3.221569     3.213435
      3.205301     3.197168     3.189034     3.180900     3.172767     3.164633     3.156499     3.148366     3.140232     3.132098
      3.123965     3.115831     3.107697     3.099564     3.091430     3.083297     3.075163     3.067029     3.058896     3.050762
      3.042628     3.034495     3.026361     3.018227     3.010094     3.001960     2.993826     2.985693     2.977559     2.969425
      2.961292     2.953158     2.945024     2.936891     2.928757     2.920624     2.912490     2.904356     2.896223     2.888089
      2.879955     2.871822     2.863688     2.855554     2.847421     2.839287     2.831153     2.823020     2.814886     2.806752
      2.798619     2.790485     2.782351     2.774218     2.766084     2.757951     2.749817     2.741683     2.733550     2.725416
      2.717282     2.709149     2.701015     2.692881     2.684748     2.676614     2.668480     2.660347     2.652213     2.644079
      2.635946     2.627812     2.619678     2.611545     2.603411     2.595278     2.587144     2.579010     2.570877     2.562743
      2.554609     2.546476     2.538342     2.530208     2.522075     2.513941     2.505807     2.497674     2.489540     2.481406
      2.473273     2.465139     2.457006     2.448872     2.440738     2.432605     2.424471     2.416337     2.408204     2.400070
      2.391936     2.383803     2.375669     2.367535     2.359402     2.351268     2.343134     2.335001     2.326867     2.318733
      2.310600     2.302466     2.294333     2.286199     2.278065     2.269932     2.261798     2.253664     2.245531     2.237397
      2.229263     2.221130     2.212996     2.204862     2.196729     2.188595     2.180461     2.172328     2.164194     2.156060
      2.147927     2.139793     2.131660     2.123526     2.115392     2.107259     2.099125     2.090991     2.082858     2.074724
      2.066590     2.058457     2.050323     2.042189     2.034056     2.025922     2.017788     2.009655     2.001521     1.993387
      1.985254     1.977120     1.968987     1.960853     1.952719     1.944586     1.936452     1.928318     1.920185     1.912051
      1.903917     1.895784     1.887650     1.879516     1.871383     1.863249     1.855115     1.846982     1.838848     1.830714
      1.822581     1.814447     1.806314     1.798180     1.790046     1.781913     1.773779     1.765645     1.757512     1.749378
      1.741244     1.733111     1.724977     1.716843     1.708710     1.700576     1.692442     1.684309     1.676175     1.668041
      1.659908     1.651774     1.643641     1.635507     1.627373     1.619240     1.611106     1.602972     1.594839     1.586705
      1.578571     1.570438     1.562304     1.554170     1.546037     1.537903     1.529769     1.521636     1.513502     1.505368
      1.497235     1.489101     1.480968     1.472834     1.464700     1.456567     1.448433     1.440299     1.432166     1.424032
      1.415898     1.407765     1.399631     1.391497     1.383364     1.375230     1.367096     1.358963     1.350829     1.342695
      1.334562     1.326428     1.318295     1.310161     1.302027     1.293894     1.285760     1.277626     1.269493     1.261359
      1.253225     1.245092     1.236958     1.228824     1.220691     1.212557     1.204423     1.196290     1.188156     1.180022
      1.171889     1.163755     1.155622     1.147488     1.139354     1.131221     1.123087     1.114953     1.106820     1.098686
      1.090552     1.082419     1.074285     1.066151     1.058018     1.049884     1.041750     1.033617     1.025483     1.017349
      1.009216     1.001082     0.992949     0.984815     0.976681     0.968548     0.960414     0.952280     0.944147     0.936013
      0.927879     0.919746     0.911612     0.903478     0.895345     0.887211     0.879077     0.870944     0.862810     0.854676
      0.846543     0.838409     0.830276     0.822142     0.814008     0.805875     0.797741     0.789607     0.781474     0.773340
      0.765206     0.757073     0.748939     0.740805     0.732672     0.724538     0.716404     0.708271     0.700137     0.692003
      0.683870     0.675736     0.667603     0.659469     0.651335     0.643202     0.635068     0.626934     0.618801     0.610667
      0.602533     0.594400     0.586266     0.578132     0.569999     0.561865     0.553731     0.545598     0.537464     0.529330
      0.521197     0.513063     0.504930     0.496796     0.488662     0.480529     0.472395     0.464261     0.456128     0.447994
      0.439861     0.431727     0.423593     0.415460     0.407326     0.399192     0.391059     0.382925     0.374792     0.366658
      0.358524     0.350391     0.342257     0.334124     0.325990     0.317856     0.309723     0.301589     0.293455     0.285322
      0.277188     0.269055     0.260921     0.252787     0.244654     0.236520     0.228386     0.220253     0.212119     0.203986
 NY phased data points follow
  -1.12163E+02 -1.14202E+02 -1.26708E+02 -1.24574E+02 -1.30022E+02 -1.39322E+02 -1.24605E+02 -1.02222E+02 -1.15820E+02 -1.21997E+02
  -1.25047E+02 -1.24442E+02 -1.30174E+02 -1.43101E+02 -1.38959E+02 -1.50482E+02 -1.42463E+02 -1.41051E+02 -1.61378E+02 -1.59301E+02
  -1.94573E+02 -2.18027E+02 -1.42118E+02 -1.35781E+02 -1.40829E+02 -8.35319E+01 -8.36950E+01 -8.19620E+01 -9.13079E+01 -8.66232E+01
  -7.70386E+01 -7.83354E+01 -8.06130E+01 -8.96062E+01 -7.80324E+01 -8.63484E+01 -7.80865E+01 -7.48493E+01 -9.39189E+01 -1.12926E+02
  -1.21760E+02 -1.39403E+02 -1.42860E+02 -1.31338E+02 -1.39207E+02 -1.13532E+02 -8.60883E+01 -5.66502E+01 -4.86849E+01 -4.45139E+01
  -3.07841E+01 -3.47478E+01 -4.08372E+01 -4.97016E+01 -4.83198E+01 -6.78540E+01 -7.62478E+01 -8.47378E+01 -9.27208E+01 -1.22709E+02
  -1.22062E+02 -6.90597E+01 -9.63677E+01 -9.34586E+01 -5.47444E+01 -4.52343E+01 -4.37671E+01 -5.40547E+01 -4.72843E+01 -8.98676E+01
  -1.42288E+02 -1.15333E+02 -9.98104E+01 -9.88867E+01 -7.35232E+01 -6.08869E+01 -4.42533E+01 -3.93496E+01 -3.31198E+01 -3.28414E+01
  -2.94064E+01 -2.22913E+01 -4.75045E+01 -5.38006E+01 -8.23485E+01 -1.13805E+02 -9.31506E+01 -8.92099E+01 -7.62869E+01 -2.19150E+01
  -2.96300E+01 -4.07461E+01 -1.30571E+01 -2.95306E+01 -1.19808E+01  4.57665E+00  1.48222E+00  1.56262E+01  5.74074E+00  7.58386E+00
   4.88954E+00  1.89435E+00  3.57148E+00 -1.95311E+01 -2.61532E+01 -4.18017E+01 -7.31544E+01 -8.33619E+01 -8.83972E+01 -8.52152E+01
  -1.38329E+02 -2.08402E+02 -1.98650E+02 -1.65350E+02 -1.48254E+02 -1.41225E+02 -1.20841E+02 -1.06630E+02 -1.00905E+02 -9.28551E+01
  -8.98932E+01 -7.15261E+01 -6.85705E+01 -7.40744E+01 -5.63297E+01 -4.90011E+01 -4.12250E+01 -2.21856E+01  9.87721E+00  4.09297E+01
   4.74646E+01  9.99080E+01  7.67791E+01 -6.03036E+01 -1.30266E+02 -1.35825E+02 -1.32162E+02 -1.33293E+02 -1.16619E+02 -1.14940E+02
  -1.24317E+02 -1.20422E+02 -1.17893E+02 -1.15530E+02 -1.19595E+02 -1.12227E+02 -1.25103E+02 -1.32577E+02 -1.21640E+02 -1.17052E+02
  -1.19692E+02 -1.12560E+02 -1.07083E+02 -1.07208E+02 -1.05889E+02 -1.08042E+02 -9.20711E+01 -1.06059E+02 -1.00497E+02 -9.85907E+01
  -1.02340E+02 -8.25995E+01 -8.48528E+01 -7.92729E+01 -8.66142E+01 -7.81772E+01 -9.24122E+01 -9.66800E+01 -8.61714E+01 -8.92030E+01
  -6.87878E+01 -6.96232E+01 -5.25964E+01 -4.02585E+01 -4.40919E+01 -5.57492E+01 -5.56444E+01 -3.88385E+01 -2.49767E+01 -3.74382E+01
  -7.28134E+01 -7.63921E+01 -1.00504E+02 -1.06296E+02 -9.95977E+01 -1.00777E+02 -9.84192E+01 -1.12412E+02 -1.02035E+02 -9.96214E+01
  -1.06124E+02 -8.82003E+01 -7.04037E+01 -8.50890E+01 -7.37934E+01 -5.87738E+01 -7.98761E+01 -7.57039E+01 -6.33598E+01 -6.22292E+01
  -7.33142E+01 -7.71090E+01 -6.14764E+01 -4.45571E+01 -4.91242E+01 -5.97371E+01 -6.38172E+01 -6.89355E+01 -7.38513E+01 -1.03912E+02
  -1.00147E+02 -7.75592E+01 -9.71646E+01 -9.21560E+01 -7.80464E+01 -7.18338E+01 -2.70128E+01 -3.12067E+00 -1.24259E+01 -1.02122E+01
  -3.34293E+01 -6.77083E+01 -6.85917E+01 -6.58886E+01 -8.14985E+01 -7.72069E+01 -6.33465E+01 -6.80867E+01 -5.65725E+01 -5.20361E+01
  -5.72329E+01 -5.58647E+01 -6.47866E+01 -6.54863E+01 -8.18602E+01 -9.16784E+01 -9.84304E+01 -1.16165E+02 -1.19387E+02 -1.28652E+02
  -1.14967E+02 -1.06699E+02 -1.02277E+02 -9.68432E+01 -8.83152E+01 -6.87007E+01 -7.37022E+01 -7.58024E+01 -8.35795E+01 -7.92291E+01
  -9.31968E+01 -1.00359E+02 -1.00869E+02 -1.13591E+02 -1.16662E+02 -1.51124E+02 -1.94809E+02 -2.30822E+02 -4.10279E+01  1.50058E+02
   1.04780E+02  9.48916E+01  7.18840E+01  6.49404E+01  6.21383E+01  4.35767E+01  5.13685E+01  2.31439E+01  3.11951E+01  2.46024E+01
   2.07262E+01  3.09401E+01  2.22470E+01  4.09281E+01  4.10599E+01  3.27195E+01  3.39894E+01  3.24373E+01  3.55151E+01  2.55470E+01
   3.15813E+01  2.53564E+01  5.68948E+00  3.01749E+01  2.99041E+01  9.42793E+00  1.22420E+01  1.81113E+01  1.31543E+01  1.07445E+01
   1.26725E+01  1.09496E+01  1.98912E+01  2.39020E+00 -4.83344E+00 -4.44288E+00 -1.84476E+01 -8.08798E+00 -2.02279E+01 -3.99259E+01
  -4.49943E+01 -4.13851E+01 -2.71296E+01 -2.84962E+01 -2.72958E+01 -3.06216E+01 -3.22232E+01 -2.53697E+01 -3.09521E+01 -2.34955E+01
  -2.42056E+01 -3.10212E+01 -3.11298E+01 -3.84848E+01 -5.34469E+01 -6.49231E+01 -4.68288E+01 -3.73228E+01 -4.58783E+01 -5.13347E+01
  -4.54387E+01 -4.29226E+01 -5.39472E+01 -7.17567E+01 -8.19248E+01 -9.16311E+01 -1.15779E+02 -1.10501E+02 -1.15700E+02 -1.19246E+02
  -1.08591E+02 -1.06959E+02 -1.04348E+02 -9.87057E+01 -8.50712E+01 -9.08800E+01 -6.33589E+01 -4.93207E+01 -5.33364E+01 -2.89485E+01
  -5.96531E+00  8.48548E+00  6.28266E+00  8.41509E-02 -1.48999E+01  9.94826E+00  1.81666E+01  6.61095E+00  3.08858E+00 -1.25376E+01
  -1.12189E+01 -2.58102E+01 -2.16229E+01 -2.64905E+01 -3.52879E+01 -2.71364E+01 -3.94606E+01 -4.81499E+01 -4.89890E+01 -5.14768E+01
  -5.36077E+01 -5.42895E+01 -5.28297E+01 -4.45255E+01 -4.38933E+01 -2.86367E+01 -2.92589E+01 -3.00271E+01 -1.31996E+01 -1.76761E+01
  -9.51482E+00 -4.04965E+00 -3.67242E+00 -1.59075E+00  7.62528E+00  1.52279E+01  2.13988E+01  2.54824E+01  2.98051E+01  3.80122E+01
   2.97082E+01  4.61713E+01  5.62682E+01  5.03682E+01  7.34613E+01  8.96764E+01  8.21420E+01  1.01329E+02  1.14231E+02  1.12930E+02
   1.19164E+02  1.03755E+02  9.63667E+01  7.66842E+01  6.91793E+01  5.18528E+01  3.39466E+01  4.72195E+01  2.92903E+01  2.10443E+01
   1.21491E+01 -2.39753E+00 -1.00547E+01 -2.66208E+01 -3.75640E+01 -3.43737E+01 -4.55975E+01 -4.89271E+01 -3.43793E+01 -4.50593E+01
  -3.90260E+01 -4.93011E+01 -5.71494E+01 -4.04642E+01 -4.73487E+01 -5.25383E+01 -4.59751E+01 -5.02650E+01 -5.88692E+01 -4.55049E+01
  -5.08289E+01 -4.81880E+01 -4.01925E+01 -3.75788E+01 -3.46904E+01 -6.21965E+01 -4.89251E+01 -3.70965E+01 -4.81402E+01 -4.56629E+01
  -5.34770E+01 -4.19216E+01 -3.44546E+01 -4.45206E+01 -4.35600E+01 -4.03074E+01 -3.80839E+01 -3.38626E+01 -3.93623E+01 -3.58537E+01
  -3.54094E+01 -5.15106E+01 -4.07251E+01 -4.79086E+01 -4.94142E+01 -2.50435E+01 -3.76277E+01 -4.08236E+01 -3.48242E+01 -3.69051E+01
  -4.74800E+01 -3.74233E+01 -2.73166E+01 -4.91124E+01 -4.37081E+01 -4.80540E+01 -3.76735E+01 -2.86427E+01 -4.26838E+01 -2.77220E+01
  -3.24074E+01 -5.22103E+01 -4.26931E+01 -3.33956E+01 -4.58773E+01 -3.04669E+01 -3.57494E+01 -4.10296E+01 -3.03617E+01 -4.83966E+01
  -3.45703E+01 -3.08056E+01 -2.80932E+01 -3.08044E+01 -3.61680E+01 -1.76296E+01 -3.38016E+01 -3.67949E+01 -2.91941E+01 -3.94244E+01
 NY points of the fit to the data follow
  -1.26839E+02 -1.33533E+02 -1.43934E+02 -1.52659E+02 -1.59578E+02 -1.54633E+02 -1.28161E+02 -1.05886E+02 -1.09255E+02 -1.19473E+02
  -1.24875E+02 -1.28467E+02 -1.31862E+02 -1.32147E+02 -1.31846E+02 -1.33451E+02 -1.34889E+02 -1.41479E+02 -1.50039E+02 -1.60007E+02
  -1.86309E+02 -1.96276E+02 -1.43940E+02 -1.25899E+02 -1.31929E+02 -8.47663E+01 -6.83669E+01 -7.49833E+01 -6.71232E+01 -6.40064E+01
  -6.31052E+01 -6.36483E+01 -6.50502E+01 -6.63697E+01 -6.92497E+01 -7.27850E+01 -7.58670E+01 -7.94743E+01 -8.98755E+01 -1.08687E+02
  -1.30224E+02 -1.55882E+02 -1.53315E+02 -1.29041E+02 -1.16150E+02 -9.99813E+01 -7.97594E+01 -6.43591E+01 -5.77489E+01 -5.20053E+01
  -4.84821E+01 -4.85115E+01 -4.95269E+01 -5.52808E+01 -6.24012E+01 -7.20023E+01 -8.79268E+01 -9.29530E+01 -8.83670E+01 -1.11374E+02
  -1.20747E+02 -8.82480E+01 -8.77118E+01 -9.25313E+01 -5.84417E+01 -3.92135E+01 -3.82594E+01 -3.99014E+01 -5.19907E+01 -8.48438E+01
  -1.17998E+02 -1.04229E+02 -8.58545E+01 -9.49320E+01 -8.19301E+01 -5.53331E+01 -4.38881E+01 -3.74322E+01 -3.09448E+01 -2.44390E+01
  -1.97062E+01 -2.41770E+01 -3.98504E+01 -5.73923E+01 -8.27032E+01 -1.01073E+02 -9.62255E+01 -8.97336E+01 -7.14940E+01 -5.32860E+01
  -4.64780E+01 -3.75388E+01 -3.18070E+01 -2.63814E+01 -2.11248E+01 -1.67668E+01 -1.30567E+01 -9.59954E+00 -4.38300E+00 -3.44996E+00
  -8.22831E+00  1.99556E+00  5.19590E+00 -1.97947E+01 -3.70288E+01 -4.80574E+01 -7.55735E+01 -8.32106E+01 -7.48461E+01 -8.22183E+01
  -1.36239E+02 -2.14264E+02 -2.04248E+02 -1.60298E+02 -1.47309E+02 -1.30440E+02 -1.16786E+02 -1.05934E+02 -9.67459E+01 -8.93216E+01
  -8.21661E+01 -7.49272E+01 -6.73368E+01 -5.88510E+01 -4.83009E+01 -3.75149E+01 -2.90229E+01 -1.84167E+01  1.01605E+00  2.57455E+01
   4.93747E+01  8.42091E+01  7.15563E+01 -6.51265E+01 -1.60943E+02 -1.44858E+02 -1.39764E+02 -1.41824E+02 -1.35493E+02 -1.31940E+02
  -1.28699E+02 -1.25769E+02 -1.25814E+02 -1.27197E+02 -1.26314E+02 -1.24562E+02 -1.23655E+02 -1.20349E+02 -1.16111E+02 -1.12964E+02
  -1.10738E+02 -1.08720E+02 -1.07030E+02 -1.04800E+02 -1.01633E+02 -9.86312E+01 -9.53322E+01 -9.33604E+01 -9.32717E+01 -9.36266E+01
  -9.23058E+01 -8.87578E+01 -8.49050E+01 -8.50850E+01 -8.87077E+01 -8.88307E+01 -8.69343E+01 -8.73633E+01 -9.05341E+01 -9.12883E+01
  -8.49715E+01 -7.26167E+01 -5.53298E+01 -4.54727E+01 -5.51318E+01 -6.74595E+01 -5.96168E+01 -4.10997E+01 -3.37692E+01 -4.69718E+01
  -7.01471E+01 -7.97774E+01 -8.41889E+01 -9.09713E+01 -9.26359E+01 -9.32593E+01 -9.33633E+01 -9.30447E+01 -9.23959E+01 -9.17925E+01
  -9.29643E+01 -9.12566E+01 -8.67302E+01 -8.98557E+01 -8.16181E+01 -5.87026E+01 -6.31915E+01 -7.03031E+01 -5.49459E+01 -5.06026E+01
  -5.06300E+01 -5.72748E+01 -5.99600E+01 -4.63652E+01 -4.68471E+01 -5.52244E+01 -6.00276E+01 -6.37998E+01 -7.02566E+01 -8.02300E+01
  -8.62251E+01 -9.22258E+01 -1.01437E+02 -9.83112E+01 -8.21772E+01 -7.23989E+01 -4.33565E+01 -2.07011E+01 -2.59635E+01 -1.45251E+01
  -2.13035E+01 -3.74547E+01 -3.46477E+01 -3.53252E+01 -3.27306E+01 -3.15039E+01 -3.52735E+01 -3.97095E+01 -4.81443E+01 -5.85262E+01
  -6.92230E+01 -8.03901E+01 -9.21273E+01 -1.03104E+02 -1.10536E+02 -1.19913E+02 -1.24349E+02 -1.22645E+02 -1.25806E+02 -1.22700E+02
  -1.14588E+02 -1.16437E+02 -1.10458E+02 -9.76830E+01 -9.49322E+01 -8.46421E+01 -8.09444E+01 -8.21095E+01 -7.97073E+01 -8.90076E+01
  -9.27612E+01 -9.16299E+01 -9.78990E+01 -1.15103E+02 -1.33502E+02 -1.38207E+02 -2.02654E+02 -2.44633E+02 -4.79427E+01  1.05188E+02
   7.77125E+01  7.33214E+01  6.92650E+01  5.85182E+01  5.13704E+01  4.48385E+01  3.87889E+01  3.33098E+01  2.80748E+01  2.33412E+01
   1.99211E+01  1.88280E+01  1.66688E+01  1.63863E+01  1.71930E+01  1.55786E+01  1.60196E+01  1.58064E+01  1.49761E+01  1.41774E+01
   1.21356E+01  1.01290E+01  8.04334E+00  6.34477E+00  4.05559E+00  1.44442E+00 -4.79091E-01 -2.99379E+00 -5.71960E+00 -8.91367E+00
  -1.34232E+01 -1.73976E+01 -2.16689E+01 -2.64839E+01 -2.98155E+01 -3.11067E+01 -3.07496E+01 -2.90367E+01 -2.68729E+01 -2.48449E+01
  -2.24910E+01 -1.93937E+01 -1.65510E+01 -1.41677E+01 -1.17179E+01 -9.48915E+00 -7.41058E+00 -4.94943E+00 -1.63097E+00  1.21902E+00
   3.37090E+00  5.57661E+00  7.50681E+00  9.79313E+00  1.21566E+01  1.33184E+01  1.43240E+01  1.64599E+01  1.91802E+01  2.16131E+01
   2.21857E+01  2.13638E+01  5.74195E+00 -2.94524E+01 -4.53591E+01 -5.77407E+01 -7.54597E+01 -6.85530E+01 -6.57801E+01 -7.22006E+01
  -7.56909E+01 -8.00479E+01 -8.26447E+01 -8.25366E+01 -7.95681E+01 -7.43981E+01 -6.84752E+01 -6.40052E+01 -6.06071E+01 -5.79873E+01
  -5.60942E+01 -5.22526E+01 -4.71665E+01 -4.24691E+01 -3.73324E+01 -3.32278E+01 -3.10437E+01 -2.96212E+01 -2.82491E+01 -2.72032E+01
  -2.81867E+01 -3.03142E+01 -3.34229E+01 -3.82811E+01 -4.31430E+01 -4.65927E+01 -4.82031E+01 -4.85780E+01 -4.75907E+01 -4.51691E+01
  -4.21853E+01 -3.83520E+01 -3.41194E+01 -2.99132E+01 -2.61292E+01 -2.24727E+01 -1.88398E+01 -1.56164E+01 -1.21947E+01 -8.65386E+00
  -5.39126E+00 -2.38098E+00  1.25245E+00  4.96047E+00  8.46451E+00  1.33786E+01  1.86126E+01  2.35634E+01  2.99798E+01  3.73688E+01
   4.40469E+01  5.15980E+01  6.11989E+01  7.09376E+01  7.95530E+01  8.64937E+01  8.99149E+01  8.81561E+01  8.07950E+01  6.97312E+01
   5.80901E+01  4.84714E+01  4.07761E+01  3.36634E+01  2.84441E+01  2.30303E+01  1.51606E+01  5.62241E+00 -3.32699E+00 -1.24416E+01
  -2.14736E+01 -2.73719E+01 -3.17793E+01 -3.58673E+01 -3.85224E+01 -3.99638E+01 -4.07481E+01 -4.17624E+01 -4.27518E+01 -4.34647E+01
  -4.42280E+01 -4.43661E+01 -4.41861E+01 -4.40301E+01 -4.42237E+01 -4.38656E+01 -4.32083E+01 -4.32538E+01 -4.38951E+01 -4.35725E+01
  -4.21449E+01 -4.22346E+01 -4.25272E+01 -4.20999E+01 -4.17420E+01 -4.15628E+01 -4.16289E+01 -4.14980E+01 -4.08287E+01 -3.98542E+01
  -3.98138E+01 -4.00040E+01 -3.99358E+01 -4.00495E+01 -4.00568E+01 -3.94358E+01 -3.89712E+01 -3.89333E+01 -3.82913E+01 -3.79527E+01
  -3.77545E+01 -3.73635E+01 -3.70923E+01 -3.71447E+01 -3.74744E+01 -3.77133E+01 -3.72573E+01 -3.65280E+01 -3.66203E+01 -3.63368E+01
  -3.59226E+01 -3.64317E+01 -3.63697E+01 -3.55197E+01 -3.52242E+01 -3.51112E+01 -3.46033E+01 -3.44827E+01 -3.42585E+01 -3.38294E+01
  -3.35799E+01 -3.37292E+01 -3.38743E+01 -3.39237E+01 -3.39610E+01 -3.35645E+01 -3.31642E+01 -3.21518E+01 -3.13318E+01 -3.12617E+01
  -3.15742E+01 -3.19006E+01 -3.19951E+01 -3.16458E+01 -3.10124E+01 -3.10778E+01 -3.10355E+01 -3.03984E+01 -3.06992E+01 -3.10895E+01
 NY background values follow
    -1.035E+02   -1.031E+02   -1.027E+02   -1.023E+02   -1.020E+02   -1.016E+02   -1.012E+02   -1.009E+02   -1.005E+02   -1.001E+02
    -9.973E+01   -9.935E+01   -9.897E+01   -9.859E+01   -9.821E+01   -9.783E+01   -9.744E+01   -9.706E+01   -9.667E+01   -9.629E+01
    -9.590E+01   -9.551E+01   -9.512E+01   -9.472E+01   -9.433E+01   -9.393E+01   -9.353E+01   -9.313E+01   -9.273E+01   -9.232E+01
    -9.191E+01   -9.150E+01   -9.109E+01   -9.068E+01   -9.026E+01   -8.985E+01   -8.943E+01   -8.901E+01   -8.858E+01   -8.816E+01
    -8.773E+01   -8.731E+01   -8.688E+01   -8.645E+01   -8.602E+01   -8.559E+01   -8.516E+01   -8.473E+01   -8.430E+01   -8.386E+01
    -8.343E+01   -8.300E+01   -8.256E+01   -8.213E+01   -8.170E+01   -8.126E+01   -8.083E+01   -8.040E+01   -7.996E+01   -7.953E+01
    -7.910E+01   -7.867E+01   -7.824E+01   -7.781E+01   -7.738E+01   -7.696E+01   -7.653E+01   -7.611E+01   -7.569E+01   -7.526E+01
    -7.484E+01   -7.443E+01   -7.401E+01   -7.360E+01   -7.319E+01   -7.278E+01   -7.237E+01   -7.197E+01   -7.156E+01   -7.116E+01
    -7.077E+01   -7.037E+01   -6.998E+01   -6.959E+01   -6.921E+01   -6.882E+01   -6.845E+01   -6.807E+01   -6.770E+01   -6.733E+01
    -6.697E+01   -6.660E+01   -6.625E+01   -6.589E+01   -6.555E+01   -6.520E+01   -6.486E+01   -6.452E+01   -6.419E+01   -6.386E+01
    -6.353E+01   -6.321E+01   -6.289E+01   -6.258E+01   -6.227E+01   -6.197E+01   -6.167E+01   -6.137E+01   -6.108E+01   -6.079E+01
    -6.051E+01   -6.023E+01   -5.996E+01   -5.969E+01   -5.942E+01   -5.916E+01   -5.891E+01   -5.866E+01   -5.841E+01   -5.817E+01
    -5.793E+01   -5.770E+01   -5.747E+01   -5.725E+01   -5.703E+01   -5.681E+01   -5.661E+01   -5.640E+01   -5.620E+01   -5.601E+01
    -5.581E+01   -5.563E+01   -5.544E+01   -5.527E+01   -5.509E+01   -5.492E+01   -5.476E+01   -5.460E+01   -5.444E+01   -5.429E+01
    -5.414E+01   -5.400E+01   -5.386E+01   -5.372E+01   -5.359E+01   -5.347E+01   -5.334E+01   -5.322E+01   -5.311E+01   -5.300E+01
    -5.289E+01   -5.279E+01   -5.269E+01   -5.259E+01   -5.250E+01   -5.241E+01   -5.233E+01   -5.224E+01   -5.217E+01   -5.209E+01
    -5.202E+01   -5.195E+01   -5.188E+01   -5.182E+01   -5.176E+01   -5.170E+01   -5.164E+01   -5.159E+01   -5.154E+01   -5.149E+01
    -5.145E+01   -5.140E+01   -5.136E+01   -5.132E+01   -5.128E+01   -5.124E+01   -5.121E+01   -5.117E+01   -5.114E+01   -5.111E+01
    -5.108E+01   -5.105E+01   -5.103E+01   -5.100E+01   -5.097E+01   -5.095E+01   -5.093E+01   -5.090E+01   -5.088E+01   -5.086E+01
    -5.084E+01   -5.082E+01   -5.081E+01   -5.079E+01   -5.077E+01   -5.075E+01   -5.074E+01   -5.072E+01   -5.071E+01   -5.069E+01
    -5.068E+01   -5.066E+01   -5.065E+01   -5.064E+01   -5.062E+01   -5.061E+01   -5.059E+01   -5.058E+01   -5.057E+01   -5.055E+01
    -5.054E+01   -5.053E+01   -5.051E+01   -5.050E+01   -5.048E+01   -5.047E+01   -5.046E+01   -5.044E+01   -5.043E+01   -5.042E+01
    -5.041E+01   -5.040E+01   -5.040E+01   -5.039E+01   -5.039E+01   -5.038E+01   -5.038E+01   -5.038E+01   -5.038E+01   -5.039E+01
    -5.040E+01   -5.040E+01   -5.042E+01   -5.043E+01   -5.045E+01   -5.047E+01   -5.049E+01   -5.052E+01   -5.054E+01   -5.058E+01
    -5.061E+01   -5.065E+01   -5.069E+01   -5.074E+01   -5.079E+01   -5.085E+01   -5.090E+01   -5.096E+01   -5.103E+01   -5.110E+01
    -5.117E+01   -5.125E+01   -5.133E+01   -5.141E+01   -5.150E+01   -5.160E+01   -5.169E+01   -5.179E+01   -5.190E+01   -5.201E+01
    -5.212E+01   -5.224E+01   -5.236E+01   -5.249E+01   -5.262E+01   -5.276E+01   -5.290E+01   -5.305E+01   -5.320E+01   -5.335E+01
    -5.351E+01   -5.367E+01   -5.384E+01   -5.401E+01   -5.419E+01   -5.437E+01   -5.454E+01   -5.473E+01   -5.491E+01   -5.509E+01
    -5.527E+01   -5.545E+01   -5.563E+01   -5.581E+01   -5.599E+01   -5.617E+01   -5.634E+01   -5.651E+01   -5.668E+01   -5.684E+01
    -5.699E+01   -5.714E+01   -5.729E+01   -5.743E+01   -5.756E+01   -5.769E+01   -5.781E+01   -5.792E+01   -5.802E+01   -5.811E+01
    -5.819E+01   -5.826E+01   -5.832E+01   -5.838E+01   -5.842E+01   -5.845E+01   -5.847E+01   -5.848E+01   -5.848E+01   -5.847E+01
    -5.845E+01   -5.841E+01   -5.837E+01   -5.831E+01   -5.824E+01   -5.816E+01   -5.807E+01   -5.797E+01   -5.785E+01   -5.773E+01
    -5.758E+01   -5.743E+01   -5.727E+01   -5.709E+01   -5.690E+01   -5.669E+01   -5.648E+01   -5.624E+01   -5.600E+01   -5.574E+01
    -5.547E+01   -5.519E+01   -5.489E+01   -5.458E+01   -5.426E+01   -5.392E+01   -5.358E+01   -5.323E+01   -5.286E+01   -5.249E+01
    -5.211E+01   -5.172E+01   -5.132E+01   -5.091E+01   -5.050E+01   -5.008E+01   -4.966E+01   -4.923E+01   -4.880E+01   -4.836E+01
    -4.792E+01   -4.747E+01   -4.703E+01   -4.658E+01   -4.613E+01   -4.567E+01   -4.522E+01   -4.477E+01   -4.432E+01   -4.387E+01
    -4.342E+01   -4.297E+01   -4.252E+01   -4.208E+01   -4.164E+01   -4.120E+01   -4.077E+01   -4.034E+01   -3.991E+01   -3.949E+01
    -3.907E+01   -3.865E+01   -3.824E+01   -3.784E+01   -3.744E+01   -3.704E+01   -3.665E+01   -3.627E+01   -3.589E+01   -3.552E+01
    -3.516E+01   -3.480E+01   -3.445E+01   -3.411E+01   -3.377E+01   -3.345E+01   -3.313E+01   -3.282E+01   -3.252E+01   -3.222E+01
    -3.194E+01   -3.167E+01   -3.140E+01   -3.115E+01   -3.090E+01   -3.066E+01   -3.043E+01   -3.021E+01   -2.999E+01   -2.979E+01
    -2.959E+01   -2.940E+01   -2.922E+01   -2.905E+01   -2.889E+01   -2.873E+01   -2.858E+01   -2.843E+01   -2.830E+01   -2.817E+01
    -2.805E+01   -2.793E+01   -2.783E+01   -2.773E+01   -2.763E+01   -2.754E+01   -2.746E+01   -2.739E+01   -2.732E+01   -2.725E+01
    -2.720E+01   -2.714E+01   -2.710E+01   -2.706E+01   -2.702E+01   -2.699E+01   -2.696E+01   -2.694E+01   -2.693E+01   -2.691E+01
    -2.691E+01   -2.690E+01   -2.690E+01   -2.691E+01   -2.691E+01   -2.692E+01   -2.694E+01   -2.695E+01   -2.697E+01   -2.700E+01
    -2.702E+01   -2.705E+01   -2.708E+01   -2.711E+01   -2.714E+01   -2.718E+01   -2.721E+01   -2.725E+01   -2.729E+01   -2.733E+01
    -2.737E+01   -2.741E+01   -2.746E+01   -2.750E+01   -2.754E+01   -2.759E+01   -2.763E+01   -2.768E+01   -2.772E+01   -2.777E+01
    -2.782E+01   -2.787E+01   -2.791E+01   -2.796E+01   -2.801E+01   -2.806E+01   -2.811E+01   -2.816E+01   -2.821E+01   -2.826E+01
    -2.831E+01   -2.836E+01   -2.841E+01   -2.846E+01   -2.851E+01   -2.856E+01   -2.861E+01   -2.866E+01   -2.872E+01   -2.877E+01
 Mac      Conc. = 2.80E-04
  -1.23695E+02 -1.23423E+02 -1.23121E+02 -1.22773E+02 -1.22707E+02 -1.23544E+02 -1.25106E+02 -1.26774E+02 -1.28253E+02 -1.29059E+02
  -1.29022E+02 -1.28408E+02 -1.28285E+02 -1.28656E+02 -1.30102E+02 -1.32556E+02 -1.34307E+02 -1.32453E+02 -1.25511E+02 -1.20428E+02
  -1.17625E+02 -1.12536E+02 -1.08630E+02 -1.07455E+02 -1.06546E+02 -1.04853E+02 -1.02785E+02 -1.00594E+02 -9.78083E+01 -9.52801E+01
  -9.35817E+01 -9.19304E+01 -9.07079E+01 -9.03059E+01 -9.08120E+01 -9.11127E+01 -8.98337E+01 -8.68519E+01 -8.32228E+01 -8.11895E+01
  -8.14389E+01 -8.17417E+01 -8.06069E+01 -7.87795E+01 -7.64343E+01 -7.46390E+01 -7.41846E+01 -7.42703E+01 -7.48518E+01 -7.57324E+01
  -7.70225E+01 -7.78848E+01 -7.82363E+01 -7.86971E+01 -7.86996E+01 -7.87021E+01 -7.82667E+01 -7.62721E+01 -7.38265E+01 -7.26521E+01
  -7.06932E+01 -6.79199E+01 -6.73946E+01 -6.77269E+01 -6.79570E+01 -6.89604E+01 -6.93962E+01 -6.95333E+01 -6.98982E+01 -7.01473E+01
  -6.82998E+01 -6.40389E+01 -6.08827E+01 -5.90897E+01 -5.76920E+01 -5.70468E+01 -5.69616E+01 -5.74523E+01 -5.81135E+01 -5.82671E+01
  -5.83758E+01 -5.86119E+01 -5.87457E+01 -5.77740E+01 -5.62714E+01 -5.54891E+01 -5.41240E+01 -5.27611E+01 -5.18353E+01 -5.10136E+01
  -5.00693E+01 -4.89454E+01 -4.83602E+01 -4.79041E+01 -4.79006E+01 -4.96042E+01 -5.17999E+01 -5.36572E+01 -5.60863E+01 -5.77507E+01
  -5.82408E+01 -5.93025E+01 -6.16032E+01 -6.42469E+01 -6.83173E+01 -7.46377E+01 -8.24803E+01 -8.97164E+01 -9.32528E+01 -9.33597E+01
