 
 $NMID
 ID=''
 FMTDAT='(2E13.5)'
 TRAMP=   1.00000E+0
 VOLUME=   1.00000E+0
 $END
   6.97267E+5   2.68324E+5
   1.46282E+6   1.24593E+6
   1.51391E+6   1.02285E+6
   1.34289E+6   1.09329E+6
   1.43329E+6   1.20652E+6
   1.45524E+6   1.09190E+6
   1.33582E+6   1.07513E+6
   1.34681E+6   1.15534E+6
   1.38158E+6   1.12097E+6
   1.33884E+6   1.10258E+6
   1.32322E+6   1.11344E+6
   1.30133E+6   1.09446E+6
   1.27705E+6   1.11120E+6
   1.29309E+6   1.11346E+6
   1.27115E+6   1.07580E+6
   1.23353E+6   1.07862E+6
   1.24175E+6   1.09646E+6
   1.22549E+6   1.08283E+6
   1.19141E+6   1.08664E+6
   1.18848E+6   1.08990E+6
   1.16843E+6   1.08119E+6
   1.14166E+6   1.08841E+6
   1.13745E+6   1.08825E+6
   1.12084E+6   1.07741E+6
   1.09514E+6   1.08189E+6
   1.09175E+6   1.07516E+6
   1.07902E+6   1.06433E+6
   1.06391E+6   1.06595E+6
   1.05532E+6   1.06051E+6
   1.04059E+6   1.04830E+6
   1.02410E+6   1.05199E+6
   1.01438E+6   1.04920E+6
   9.97521E+5   1.04349E+6
   9.81102E+5   1.04375E+6
   9.68680E+5   1.03891E+6
   9.54228E+5   1.03381E+6
   9.41134E+5   1.03775E+6
   9.27568E+5   1.03639E+6
   9.10361E+5   1.02897E+6
   8.99287E+5   1.02654E+6
   8.88894E+5   1.02239E+6
   8.74236E+5   1.01613E+6
   8.63404E+5   1.00960E+6
   8.56536E+5   1.00413E+6
   8.43840E+5   9.99708E+5
   8.32206E+5   9.97321E+5
   8.20507E+5   9.93548E+5
   8.05377E+5   9.91059E+5
   7.89885E+5   9.87790E+5
   7.76376E+5   9.84091E+5
   7.62830E+5   9.81625E+5
   7.49122E+5   9.80076E+5
   7.36152E+5   9.77219E+5
   7.22143E+5   9.75092E+5
   7.09019E+5   9.71986E+5
   6.96050E+5   9.68803E+5
   6.82851E+5   9.65601E+5
   6.69499E+5   9.60387E+5
   6.58330E+5   9.54662E+5
   6.47872E+5   9.50989E+5
   6.35398E+5   9.48582E+5
   6.22905E+5   9.44566E+5
   6.10186E+5   9.40239E+5
   5.97054E+5   9.37403E+5
   5.82268E+5   9.33604E+5
   5.68090E+5   9.27978E+5
   5.55494E+5   9.22178E+5
   5.43008E+5   9.18225E+5
   5.30429E+5   9.15438E+5
   5.16829E+5   9.12070E+5
   5.03579E+5   9.07119E+5
   4.91603E+5   9.01661E+5
   4.80360E+5   8.97740E+5
   4.68343E+5   8.93955E+5
   4.55476E+5   8.89150E+5
   4.42558E+5   8.83826E+5
   4.30503E+5   8.79446E+5
   4.18026E+5   8.75336E+5
   4.04729E+5   8.70678E+5
   3.91123E+5   8.65651E+5
   3.77450E+5   8.60421E+5
   3.65179E+5   8.55145E+5
   3.53125E+5   8.50583E+5
   3.40045E+5   8.45781E+5
   3.27188E+5   8.40366E+5
   3.15753E+5   8.34556E+5
   3.04661E+5   8.29224E+5
   2.93571E+5   8.24198E+5
   2.81955E+5   8.18260E+5
   2.72230E+5   8.12018E+5
   2.62310E+5   8.05776E+5
   2.52176E+5   8.00391E+5
   2.40875E+5   7.95074E+5
   2.30058E+5   7.89102E+5
   2.19458E+5   7.81823E+5
   2.09910E+5   7.75291E+5
   2.00114E+5   7.69410E+5
   1.90366E+5   7.63833E+5
   1.80198E+5   7.57495E+5
   1.71267E+5   7.50854E+5
   1.62814E+5   7.44855E+5
   1.53217E+5   7.39254E+5
   1.43808E+5   7.32053E+5
   1.35084E+5   7.24250E+5
   1.28103E+5   7.17566E+5
   1.20986E+5   7.11698E+5
   1.13039E+5   7.04883E+5
   1.04613E+5   6.97581E+5
   9.69965E+4   6.89942E+5
   9.05171E+4   6.82085E+5
   8.39533E+4   6.75651E+5
   7.63976E+4   6.69096E+5
   6.81483E+4   6.62319E+5
   6.01967E+4   6.55108E+5
   5.31450E+4   6.47595E+5
   4.57263E+4   6.40459E+5
   3.77424E+4   6.33384E+5
   3.04283E+4   6.25296E+5
   2.45964E+4   6.16883E+5
   1.92176E+4   6.09091E+5
   1.29463E+4   6.02809E+5
   6.55669E+3   5.95677E+5
   2.88201E+2   5.88282E+5
  -5.69686E+3   5.80646E+5
  -1.20674E+4   5.73461E+5
  -1.83278E+4   5.65315E+5
  -2.38098E+4   5.57179E+5
  -2.96202E+4   5.49446E+5
  -3.57199E+4   5.42010E+5
  -4.15708E+4   5.35138E+5
  -4.80933E+4   5.27010E+5
  -5.45078E+4   5.19046E+5
  -6.00981E+4   5.11319E+5
  -6.53024E+4   5.03571E+5
  -7.07775E+4   4.95871E+5
  -7.64634E+4   4.87739E+5
  -8.11153E+4   4.79694E+5
  -8.60664E+4   4.72713E+5
  -9.14908E+4   4.65305E+5
  -9.66638E+4   4.57494E+5
  -1.01472E+5   4.49229E+5
  -1.05331E+5   4.40826E+5
  -1.08957E+5   4.33090E+5
  -1.13377E+5   4.26260E+5
  -1.17946E+5   4.18899E+5
  -1.21959E+5   4.10986E+5
  -1.25606E+5   4.03105E+5
  -1.28962E+5   3.95610E+5
  -1.32481E+5   3.87706E+5
  -1.35574E+5   3.80114E+5
  -1.38116E+5   3.72365E+5
  -1.40552E+5   3.65183E+5
  -1.42945E+5   3.58538E+5
  -1.45838E+5   3.51790E+5
  -1.48409E+5   3.44432E+5
  -1.50258E+5   3.37055E+5
  -1.51815E+5   3.30376E+5
  -1.53867E+5   3.23833E+5
  -1.55953E+5   3.16906E+5
  -1.57589E+5   3.10123E+5
  -1.59045E+5   3.03353E+5
  -1.60539E+5   2.96944E+5
  -1.62128E+5   2.90000E+5
  -1.63275E+5   2.83118E+5
  -1.63882E+5   2.76914E+5
  -1.64753E+5   2.70729E+5
  -1.65670E+5   2.64683E+5
  -1.66349E+5   2.58790E+5
  -1.67320E+5   2.52416E+5
  -1.67214E+5   2.46575E+5
  -1.67574E+5   2.40416E+5
  -1.67828E+5   2.34719E+5
  -1.68096E+5   2.29207E+5
  -1.68284E+5   2.23305E+5
  -1.68172E+5   2.17395E+5
  -1.68187E+5   2.11888E+5
  -1.68423E+5   2.06554E+5
  -1.68094E+5   2.00537E+5
  -1.68007E+5   1.94563E+5
  -1.67305E+5   1.88998E+5
  -1.67104E+5   1.84118E+5
  -1.67240E+5   1.78749E+5
  -1.66559E+5   1.73166E+5
  -1.65901E+5   1.67953E+5
  -1.65399E+5   1.62803E+5
  -1.64797E+5   1.58007E+5
  -1.63508E+5   1.52546E+5
  -1.62671E+5   1.47756E+5
  -1.61742E+5   1.43068E+5
  -1.60686E+5   1.38551E+5
  -1.59984E+5   1.33985E+5
  -1.59386E+5   1.29230E+5
  -1.58165E+5   1.24057E+5
  -1.56718E+5   1.19486E+5
  -1.55587E+5   1.15037E+5
  -1.54487E+5   1.10509E+5
  -1.53186E+5   1.05982E+5
  -1.52128E+5   1.01837E+5
  -1.50802E+5   9.74628E+4
  -1.49689E+5   9.30915E+4
  -1.48283E+5   8.87657E+4
  -1.47029E+5   8.44618E+4
  -1.45171E+5   8.01605E+4
  -1.43807E+5   7.68429E+4
  -1.42377E+5   7.28842E+4
  -1.40741E+5   6.90687E+4
  -1.39227E+5   6.53278E+4
  -1.37503E+5   6.13088E+4
  -1.36025E+5   5.78799E+4
  -1.34426E+5   5.43265E+4
  -1.32787E+5   5.05636E+4
  -1.30839E+5   4.73617E+4
  -1.29155E+5   4.42974E+4
  -1.27410E+5   4.10208E+4
  -1.26141E+5   3.76000E+4
  -1.24099E+5   3.44420E+4
  -1.22143E+5   3.16453E+4
  -1.19959E+5   2.88970E+4
  -1.18521E+5   2.61186E+4
  -1.16633E+5   2.33550E+4
  -1.15159E+5   2.06162E+4
  -1.13045E+5   1.83957E+4
  -1.11247E+5   1.56534E+4
  -1.09395E+5   1.32111E+4
  -1.07596E+5   1.06545E+4
  -1.05449E+5   8.56769E+3
  -1.03411E+5   6.35159E+3
  -1.01746E+5   4.54504E+3
  -1.00237E+5   2.38126E+3
  -9.82531E+4   1.69708E+2
  -9.62464E+4  -1.58242E+3
  -9.43611E+4  -3.44366E+3
  -9.23172E+4  -5.07658E+3
  -9.09049E+4  -6.77614E+3
  -8.88012E+4  -8.53102E+3
  -8.70551E+4  -9.52535E+3
  -8.51795E+4  -1.12872E+4
  -8.33604E+4  -1.26937E+4
  -8.19003E+4  -1.40571E+4
  -7.98453E+4  -1.51463E+4
  -7.81133E+4  -1.63921E+4
  -7.66619E+4  -1.74660E+4
  -7.48558E+4  -1.88946E+4
  -7.29657E+4  -1.99207E+4
  -7.12938E+4  -2.08068E+4
  -6.94251E+4  -2.18580E+4
  -6.79491E+4  -2.25844E+4
  -6.61762E+4  -2.36342E+4
  -6.45835E+4  -2.45571E+4
  -6.29842E+4  -2.51376E+4
  -6.16764E+4  -2.58447E+4
  -6.01276E+4  -2.67927E+4
  -5.83208E+4  -2.74485E+4
  -5.66938E+4  -2.82944E+4
  -5.53004E+4  -2.87730E+4
  -5.39133E+4  -2.91658E+4
  -5.22196E+4  -2.98259E+4
  -5.08036E+4  -3.04545E+4
  -4.92515E+4  -3.08566E+4
  -4.75458E+4  -3.15309E+4
  -4.60211E+4  -3.19257E+4
  -4.49698E+4  -3.23516E+4
  -4.30967E+4  -3.25291E+4
  -4.17189E+4  -3.29637E+4
  -4.02131E+4  -3.29754E+4
  -3.90704E+4  -3.35584E+4
  -3.76442E+4  -3.36671E+4
  -3.62126E+4  -3.40384E+4
  -3.48258E+4  -3.43092E+4
  -3.33745E+4  -3.45171E+4
  -3.21369E+4  -3.45081E+4
  -3.09909E+4  -3.46049E+4
  -2.92868E+4  -3.47818E+4
  -2.83156E+4  -3.50181E+4
  -2.70137E+4  -3.53672E+4
  -2.58406E+4  -3.51272E+4
  -2.46847E+4  -3.51473E+4
  -2.33502E+4  -3.51488E+4
  -2.21564E+4  -3.51619E+4
  -2.12319E+4  -3.51965E+4
  -1.98923E+4  -3.50247E+4
  -1.87605E+4  -3.51285E+4
  -1.77831E+4  -3.48185E+4
  -1.64923E+4  -3.46508E+4
  -1.54994E+4  -3.45470E+4
  -1.45058E+4  -3.42108E+4
  -1.33939E+4  -3.39978E+4
  -1.24211E+4  -3.38249E+4
  -1.16507E+4  -3.37908E+4
  -1.04294E+4  -3.36255E+4
  -9.61598E+3  -3.30483E+4
  -8.58916E+3  -3.31471E+4
  -7.70016E+3  -3.24043E+4
  -6.90436E+3  -3.21769E+4
  -6.16207E+3  -3.18457E+4
  -5.01758E+3  -3.17222E+4
  -4.21779E+3  -3.11579E+4
  -3.28108E+3  -3.05884E+4
  -2.61938E+3  -3.05303E+4
  -1.71433E+3  -3.00747E+4
  -9.88913E+2  -2.96736E+4
  -4.61189E+2  -2.94916E+4
   4.07307E+2  -2.87654E+4
   1.00582E+3  -2.84555E+4
   1.64821E+3  -2.79375E+4
   2.38291E+3  -2.76102E+4
   3.18740E+3  -2.70621E+4
   3.78477E+3  -2.68566E+4
   4.66622E+3  -2.64597E+4
   5.18844E+3  -2.60564E+4
   5.72179E+3  -2.55399E+4
   6.01055E+3  -2.51406E+4
   6.78851E+3  -2.47385E+4
   7.40064E+3  -2.43848E+4
   7.84730E+3  -2.37986E+4
   8.34141E+3  -2.32965E+4
   8.77635E+3  -2.29171E+4
   9.47237E+3  -2.24436E+4
   9.94627E+3  -2.19272E+4
   1.02866E+4  -2.14021E+4
   1.07660E+4  -2.07492E+4
   1.09644E+4  -2.05260E+4
   1.16368E+4  -2.00046E+4
   1.18450E+4  -1.93894E+4
   1.23313E+4  -1.90667E+4
   1.25800E+4  -1.86583E+4
   1.29767E+4  -1.79870E+4
   1.33977E+4  -1.76226E+4
   1.35734E+4  -1.69487E+4
   1.39441E+4  -1.64730E+4
   1.42095E+4  -1.61476E+4
   1.43043E+4  -1.57805E+4
   1.48714E+4  -1.53071E+4
   1.49638E+4  -1.49929E+4
   1.52196E+4  -1.44248E+4
   1.54778E+4  -1.41460E+4
   1.56797E+4  -1.33381E+4
   1.59398E+4  -1.30727E+4
   1.63497E+4  -1.27202E+4
   1.61816E+4  -1.21434E+4
   1.64804E+4  -1.17137E+4
   1.66459E+4  -1.14351E+4
   1.68005E+4  -1.07652E+4
   1.67697E+4  -1.06193E+4
   1.68918E+4  -1.00272E+4
   1.71218E+4  -9.67491E+3
   1.71499E+4  -9.29926E+3
   1.72454E+4  -8.76322E+3
   1.70268E+4  -8.37307E+3
   1.69693E+4  -8.19956E+3
   1.71772E+4  -7.60648E+3
   1.73938E+4  -7.24868E+3
   1.73734E+4  -6.90966E+3
   1.74035E+4  -6.73885E+3
   1.75041E+4  -6.35261E+3
   1.73452E+4  -5.88772E+3
   1.74214E+4  -5.44398E+3
   1.72822E+4  -5.58327E+3
   1.73295E+4  -5.12235E+3
   1.75717E+4  -4.93643E+3
   1.72930E+4  -4.28063E+3
   1.72361E+4  -4.01386E+3
   1.69666E+4  -3.68272E+3
   1.72514E+4  -3.40783E+3
   1.69675E+4  -3.09089E+3
   1.69244E+4  -2.93463E+3
   1.70018E+4  -2.58631E+3
