 
 $NMID
 ID=''
 FMTDAT='(2E13.5)'
 TRAMP=   1.00000E+0
 VOLUME=   1.00000E+0
 $END
  -1.89839E+4   1.50549E+4
  -1.63422E+4   4.28568E+4
   4.05226E+4   3.24207E+4
   3.93849E+4  -2.67483E+4
  -1.97748E+4  -4.52107E+4
  -4.27091E+4   4.35820E+2
  -7.81685E+3   3.83110E+4
   2.87816E+4   2.29700E+4
   2.54206E+4  -1.80641E+4
  -1.11973E+4  -3.11670E+4
  -3.12988E+4  -3.33326E+3
  -8.90101E+3   2.44520E+4
   1.75440E+4   1.51627E+4
   1.44860E+4  -1.30875E+4
  -2.93035E+3  -2.07244E+4
  -1.29270E+4  -2.09546E+3
  -8.73864E+3   1.55207E+4
   6.28668E+3   1.00741E+4
   1.22291E+4  -5.49060E+3
   1.25113E+3  -8.93788E+3
  -8.62764E+3  -2.53793E+3
  -5.51657E+3   4.82324E+3
   2.83472E+3   7.55969E+3
   5.60077E+3   1.14658E+3
   2.50069E+3  -6.54581E+3
  -2.57094E+3  -3.57268E+3
  -4.46235E+3   3.48037E+3
  -1.72833E+3   3.82018E+3
   3.19386E+3   8.52749E+1
   4.14544E+3  -2.10151E+3
  -5.66979E+2  -2.40775E+3
  -3.83869E+3  -2.97416E+2
  -1.99328E+3   1.40895E+3
   2.26677E+3   1.22157E+2
   4.27921E+3  -1.39679E+3
   1.79907E+3  -1.79038E+2
  -2.55636E+3   2.83478E+2
  -2.48754E+3   4.82531E+2
   1.20643E+3   6.88780E+2
   1.50838E+3   3.22541E+1
  -2.59511E+2  -1.61464E+3
  -2.27987E+2  -2.01153E+3
   7.95666E+2   6.17175E+2
   6.28296E+2   1.92526E+3
   2.54430E+2   4.60962E+2
   2.90822E+1  -3.48866E+1
  -1.25753E+3   3.89786E+2
  -1.56334E+3  -1.08654E+3
   5.01365E+2  -1.68893E+3
   1.07614E+3  -4.58632E+2
   6.47761E+2   4.93652E+2
   2.84821E+2   2.65227E+1
   5.58915E+2   5.06844E+0
  -1.65858E+1   6.30556E+2
  -9.19212E+2   5.29466E+2
  -9.60468E+2   6.34542E+1
   1.69632E+2  -3.53710E+2
   9.72448E+2  -6.19489E+2
   1.23527E+3  -2.82127E+2
   2.14264E+1   6.56257E+2
  -8.51494E+2   9.85736E+2
  -1.40294E+2   1.41860E+3
  -1.67252E+2   5.92382E+2
  -9.92581E+2  -1.08170E+3
  -1.27035E+3  -2.13066E+3
   1.40312E+2  -7.82742E+2
   1.00513E+3   4.87577E+2
   1.79293E+3   8.14373E+2
   8.45846E+2   4.37326E+2
  -7.62017E+2  -1.07766E+2
  -5.56518E+2  -2.34871E+2
   3.76025E+2   6.17306E+2
   9.70099E+2   1.32426E+3
   1.26684E+0   2.23094E+2
  -5.92504E+2  -7.26808E+2
  -4.62689E+2  -5.12205E+2
   1.06993E+1   5.75306E+2
  -2.17972E+2   9.10539E+2
   1.74378E+2  -3.51612E+1
   1.94023E+2  -7.40810E+2
  -2.61853E+2  -6.01315E+2
   1.24239E+2   1.01759E+2
   4.98243E+2   3.85094E+2
   3.57972E+2   1.58126E+2
   5.05684E+2  -6.50748E+2
   4.36765E+2  -5.43750E+1
   7.04986E+1   4.74466E+2
  -1.05895E+2   8.01007E+2
   2.20700E+2   1.04366E+2
   6.49053E+2  -2.26394E+2
  -3.29598E+1   2.84863E+2
  -8.74367E+2   5.40398E+2
  -8.61120E+2  -1.14457E+2
   1.08636E+2  -6.53476E+2
   7.38210E+2  -8.06223E+2
   6.37809E+2  -4.21957E+2
  -1.43809E+2   2.15259E+2
  -2.92922E+2   2.61221E+2
   3.38815E+2   1.06420E+2
   6.75942E+2   1.38710E+2
  -3.51890E+2   3.96403E+2
  -1.13268E+3  -6.54370E+0
  -1.87324E+2  -5.62514E+2
   5.46850E+2  -4.05775E+2
   6.82699E+2   1.91616E+2
  -3.94694E+0   4.45358E+2
  -8.97605E+2   8.47311E+1
  -9.17720E+2  -5.10852E+2
   3.81132E+2  -7.50851E+2
   9.80629E+2   2.00762E+2
   2.68572E+2   5.74261E+2
  -6.54788E+2   3.71013E+2
  -6.04920E+2  -1.98550E+2
  -2.06074E+2   2.47106E+2
  -1.64211E+2   1.88453E+2
  -4.10156E+2  -2.52291E+2
  -5.84909E+2  -6.52193E+2
  -2.02706E+2  -9.57484E+2
   4.69337E+2  -3.21135E+2
   4.30623E+2   3.18343E+2
   9.69052E+1   6.90769E+2
  -1.35321E+2   3.93030E+2
  -5.72575E+2   2.96330E+2
  -4.85562E+2   2.59139E+2
  -3.81667E+2   3.21636E+1
  -1.25777E+2  -2.24033E+2
   1.43896E+2  -1.98837E+2
   1.00821E+2   1.72230E+2
   3.11025E+2   3.23741E+2
  -5.73225E+2   3.97136E+2
  -3.53277E+2  -1.92675E+2
  -3.02812E+2  -7.17671E+2
   8.14569E+1  -1.83745E+2
  -2.96992E+2   2.75289E+2
  -1.65666E+2  -2.48742E+1
   1.27595E+2   2.26432E+1
   3.32604E+2   3.20383E+2
  -6.71694E+1   4.89585E+2
  -4.57210E+2   2.29403E+2
  -3.10734E+2  -2.33916E+2
   4.80599E+1  -7.34035E+2
   1.71309E+2  -1.46613E+2
   2.30934E+2   5.32978E+2
  -2.97591E+2   7.60400E+2
  -5.21252E+2  -5.52556E+1
  -1.55604E+2  -3.45920E+2
   3.54136E+2  -1.79307E+2
   1.91539E+2  -2.04886E+2
  -5.95993E+1  -1.23433E+2
  -8.75766E+0  -3.42120E+1
   6.09776E+2  -9.86543E+1
   4.19060E+2   1.79430E+2
  -1.19905E+2   3.84929E+2
  -1.05882E+2   9.81560E+1
  -1.49997E+2   1.71060E+2
   2.53073E+2  -1.27352E+2
   1.61975E+2   2.47663E+2
  -5.52458E+1   8.12406E+0
  -2.30155E+2  -9.56786E+1
  -5.82121E+0   1.01179E+2
  -1.32895E+2  -1.89367E+2
  -4.68594E+2  -4.34124E+1
   2.21702E+1  -4.25804E+2
  -7.14291E+1  -1.83567E+2
   7.44289E+1  -2.34232E+2
   3.09475E+2   2.73979E+2
  -9.19495E+1   3.63231E+2
  -1.51278E+2  -2.93820E+2
   2.63877E+2  -2.02456E+2
   1.41185E+2   2.69653E+1
   2.22709E+1   1.51445E+2
  -2.38300E+2   2.20091E+2
  -3.94556E+2  -3.59109E+2
   2.06139E+2  -3.54247E+2
   3.28267E+2  -8.68247E+1
  -1.08357E+2  -1.88417E+1
  -2.00456E+1  -2.68481E+2
  -1.54671E+2  -2.81047E+2
   1.06233E+2  -2.48362E+2
   1.46291E+2  -1.03871E+2
  -2.63265E+2   3.04054E+2
  -3.42186E+2   2.64840E+2
  -1.15448E+2  -1.95871E+2
  -1.53919E+2  -1.01847E+2
  -2.77583E+1  -3.56832E+2
  -9.52528E+1  -7.89878E+1
  -5.45829E+1  -4.34068E+2
   2.61224E+2  -3.77560E+1
   3.22473E+2   2.93625E+2
  -1.86411E+2   1.03777E+2
  -5.73428E+2   2.78142E+1
  -5.75921E+2  -2.84418E+2
   1.10519E+2  -6.26697E+2
   1.02642E+2  -1.11207E+2
  -5.15189E+1  -1.14132E+2
   1.22199E+2   4.58004E+1
  -1.25918E+2  -1.42248E+2
  -8.34231E+1  -3.28848E+1
  -1.16086E+2   1.26448E+2
  -2.69119E+2  -7.39217E+1
  -2.34186E+2  -2.86698E+2
   3.14704E+2  -3.53067E+2
   1.86173E+2  -4.90502E+1
   1.11606E+2   1.72359E+2
  -2.55905E+2  -1.02044E+2
  -1.48583E+2  -6.43714E+1
  -1.65126E+2  -4.56052E+2
  -1.60102E+2  -4.33827E+1
  -5.60458E+1   4.40828E+1
   3.08844E+1  -1.03640E+2
  -6.56908E+1  -1.76629E+2
   2.06160E+2  -1.72117E+2
  -2.42634E+1   3.90990E+2
  -3.85519E+2   9.46984E+1
  -4.61670E+2  -2.53628E+2
   6.78096E+1  -2.67402E+2
   1.19389E+2  -3.48534E+1
   8.39218E+1   1.32198E+2
   2.58062E+1  -3.24149E+1
  -1.08588E+2  -6.88156E+1
  -1.16221E+2   1.95950E+2
  -4.89193E+1   1.47231E+2
  -2.26112E+2   1.37527E+2
  -2.60394E+2  -1.02070E+2
  -1.01798E+2  -2.86886E+2
   1.01403E+2  -1.34392E+2
   1.40906E+2   1.93116E+2
  -2.06183E+2   1.76155E+2
  -1.40463E+2   1.26464E+2
  -1.39946E+2  -1.53580E+2
  -1.11093E+2   8.61941E+1
  -9.91129E+1  -3.33928E+1
  -9.40977E+1   6.80783E+1
   2.89363E+1   7.51835E+1
   1.29550E+2   2.18993E+2
  -2.97664E+2   1.69718E+2
  -7.52877E+0   2.67953E+2
  -1.16128E+2  -2.81219E+1
  -2.58775E+2  -3.45028E+2
   5.70433E+1   1.59801E+2
   3.61726E+2   2.20526E+1
  -8.92315E+0   2.12805E+2
  -1.66228E+2  -1.62322E+2
  -3.69995E+1  -2.05690E+2
  -7.53070E+1  -7.11251E+1
   1.62318E+2   1.23062E+2
  -2.19097E+2  -7.97386E+1
   3.52439E+1  -4.07907E+1
   1.06620E+2  -7.77545E+1
  -3.26089E+0   1.81369E+2
  -4.77318E+1  -1.31225E+2
  -1.53248E+2   6.03995E+1
  -3.27641E+1   2.75020E+1
   2.89037E+2   5.49333E+0
  -3.16791E+1   1.32855E+2
   1.80627E+2   1.24799E+2
  -1.60933E+2   2.48702E+2
   9.48064E+1   1.41144E+2
  -7.08462E+1   1.11960E+2
  -2.54432E+1   4.54318E+1
  -2.46310E+2  -2.78304E+2
  -1.28142E+2  -1.53337E+2
   1.11839E+1  -1.93164E+2
   7.45810E+1   2.33816E+2
   2.80499E+2   2.91434E+2
  -7.38298E+1  -2.02969E+1
  -1.19355E+2   8.13391E+1
  -2.15097E+2  -3.00971E+2
   1.25446E+2  -8.56077E+1
   4.39801E+1   1.69120E+2
   1.11957E+2   7.30959E+1
   1.52752E+2   2.83175E+2
   1.20025E+2   6.67106E+0
  -1.62622E+2   2.38074E+1
  -1.91270E+2   4.63615E+1
  -5.64451E+1   1.47456E+2
   2.26940E+1  -1.55280E+2
  -9.88126E+1  -1.09922E+2
  -4.45321E+1   2.04160E+2
  -1.46200E+2   6.68717E+1
  -1.21545E+1   9.37347E+1
  -1.08881E+2   5.03506E+1
   3.99074E+0   4.87105E-1
  -2.62905E+2  -6.04444E+1
  -2.25447E+2  -1.10279E+1
  -4.25509E+1  -1.54314E+2
   3.16115E+2   4.40682E+1
   1.58621E+1   3.30631E+2
  -1.35441E+2   3.16374E+2
  -1.27581E+2   2.25647E+2
  -2.19634E+1  -1.28860E+2
   1.82035E+1  -2.70137E+1
   7.10381E+1  -3.90271E+1
  -2.30884E+2  -9.78720E+1
  -1.50670E+2   1.18786E+2
  -1.73210E+1   1.42976E+2
  -4.54752E+1  -7.60549E+1
  -1.06212E+2   2.11044E+2
   1.85078E+1   1.21048E+2
  -8.44441E+1  -1.86889E+1
   1.63420E+2  -9.10368E-1
   8.14355E+1   9.39726E+1
  -1.03724E+2   9.02533E+1
  -1.11914E+2   2.76097E+2
  -2.52198E+1   1.13977E+2
   1.35032E+2  -1.58334E+1
   6.65488E+1   2.80024E+2
  -8.13131E+1   1.21348E+2
  -9.75078E-1   1.92113E+2
  -1.99056E+1   1.71405E+2
   7.91481E+1   1.07405E+1
  -1.06448E+2   5.18986E+1
  -2.11253E+1   1.61042E+2
   1.13057E+2  -1.03531E+2
   7.84259E+1   1.40104E+2
   1.23051E+2   2.46977E+2
  -3.94996E+1   1.38958E+2
  -7.09053E+1  -7.52555E+1
  -5.85189E+1   7.87559E+1
   7.96156E+1   1.53467E+2
   3.36433E+1   1.35782E+2
   4.70396E+0  -1.20021E+0
   4.43957E+1  -1.94837E+2
   3.72758E+1   7.12492E+1
  -1.06521E+1   9.51199E+1
  -2.28237E+1   9.30925E+1
  -8.59622E+1   3.27444E+2
  -2.13201E+2   6.18291E+1
   5.51085E+1  -1.09844E+2
   9.12620E+1   5.33540E+1
   2.54367E+2  -4.89293E+1
  -1.01610E+1   1.45269E+2
   3.05656E+2   1.73891E+2
  -4.62209E+1   8.65689E+1
   1.87804E+1   2.94520E+1
  -1.26021E+2   1.11175E+2
   4.60932E+1  -1.23218E+2
   4.92686E+1  -9.84543E+1
   2.59603E+1   1.59417E+2
   1.55137E+2   9.31173E+1
   1.68736E+2  -7.42423E+0
   1.51283E+1   1.57346E+2
  -1.48583E+2  -1.06494E+2
   1.45884E+1   5.60176E+0
   1.75686E+2  -4.01430E+1
   1.05539E+2  -2.25619E+1
   2.39238E+2  -9.26404E+1
   1.39342E+2  -1.25068E+2
  -5.88737E+0   3.57358E+2
   3.47207E+1  -1.94440E+2
  -7.52019E+1   4.20138E+1
   1.71673E+1   6.24609E+1
  -9.34184E+1  -1.30283E+2
  -1.64938E+2   4.03436E+1
  -5.13535E+0   1.66170E+2
   7.26300E+1   1.89685E+2
   5.47161E+1   2.32767E+2
   1.43118E+2   1.00585E+1
   1.15746E+2   2.08006E+2
  -1.61612E+2  -1.13665E+1
  -6.87491E+1   9.49330E+1
   3.50587E+2  -1.71274E+2
   1.65654E+2   1.32833E+2
   1.16484E+1   3.34046E+1
  -5.17537E+1   1.94521E+2
  -2.23219E+2   1.06155E+2
  -6.48563E+1  -1.18870E+0
