 LCModel (Version 6.3-1N) Copyright: S.W. Provencher.          Ref.: Magn. Reson. Med. 30:672-679 (1993).                
 Slice_N1@21_15  28-Feb-2025 11:42:59
 27 lines in following concentration table = NCONC+1
    Conc.  %SD /Cr+PCr  Metabolite                                         
 2.87E-04   3% 3.1E-04 Mac                                                 
    3.855  42%   4.110 Cr                                                  
    3.648  43%   3.890 PCr                                                 
    5.734  14%   6.114 Ins                                                 
    7.771   9%   8.286 NAA                                                 
    3.897  21%   4.155 Tau                                                 
    0.937 107%   0.999 PCho                                                
    0.944 100%   1.006 GPC                                                 
    7.606  12%   8.109 Glu                                                 
    3.185  23%   3.396 Gln                                                 
    0.000 999%   0.000 Ala                                                 
    2.489  45%   2.654 Asc                                                 
    2.834  30%   3.022 Asp                                                 
    0.985  48%   1.050 GABA                                                
    0.599 100%   0.638 Glc                                                 
    1.505  30%   1.605 GSH                                                 
    3.140  20%   3.348 Lac                                                 
    2.312  25%   2.465 NAAG                                                
    0.643 162%   0.686 PE                                                  
    1.881  16%   2.005 GPC+PCho                                            
   10.082   7%  10.750 NAA+NAAG                                            
   10.790  11%  11.505 Glu+Gln                                             
    7.503   9%   8.000 Cr+PCr                                              
   10.082   7%  10.750 NAA+NAAG                                            
    7.503   9%   8.000 Cr+PCr                                              
   10.790  11%  11.505 Glu+Gln                                             
   6 lines in following misc. output table
  FWHM = 0.041 ppm    S/N =   4                                            
  Data shift =-0.008 ppm                                                   
  Ph:-110 deg       0.0 deg/ppm                                            
  alphaB,S = 1.6E+00,   3.2E+00                                            
   19 spline knots.   Ns = 6(1)                                            
  ( 7) 2 infls.   ( 2) 2 extrs.                                            
  480 points on ppm-axis = NY
      4.100000     4.091866     4.083733     4.075600     4.067466     4.059333     4.051199     4.043066     4.034933     4.026799
      4.018666     4.010532     4.002399     3.994265     3.986132     3.977998     3.969864     3.961731     3.953597     3.945463
      3.937330     3.929196     3.921062     3.912929     3.904795     3.896662     3.888528     3.880394     3.872261     3.864127
      3.855993     3.847860     3.839726     3.831592     3.823459     3.815325     3.807191     3.799058     3.790924     3.782790
      3.774657     3.766523     3.758389     3.750256     3.742122     3.733989     3.725855     3.717721     3.709588     3.701454
      3.693320     3.685187     3.677053     3.668919     3.660786     3.652652     3.644518     3.636385     3.628251     3.620117
      3.611984     3.603850     3.595716     3.587583     3.579449     3.571316     3.563182     3.555048     3.546915     3.538781
      3.530647     3.522514     3.514380     3.506246     3.498113     3.489979     3.481845     3.473712     3.465578     3.457444
      3.449311     3.441177     3.433043     3.424910     3.416776     3.408643     3.400509     3.392375     3.384242     3.376108
      3.367974     3.359841     3.351707     3.343573     3.335440     3.327306     3.319172     3.311039     3.302905     3.294771
      3.286638     3.278504     3.270370     3.262237     3.254103     3.245970     3.237836     3.229702     3.221569     3.213435
      3.205301     3.197168     3.189034     3.180900     3.172767     3.164633     3.156499     3.148366     3.140232     3.132098
      3.123965     3.115831     3.107697     3.099564     3.091430     3.083297     3.075163     3.067029     3.058896     3.050762
      3.042628     3.034495     3.026361     3.018227     3.010094     3.001960     2.993826     2.985693     2.977559     2.969425
      2.961292     2.953158     2.945024     2.936891     2.928757     2.920624     2.912490     2.904356     2.896223     2.888089
      2.879955     2.871822     2.863688     2.855554     2.847421     2.839287     2.831153     2.823020     2.814886     2.806752
      2.798619     2.790485     2.782351     2.774218     2.766084     2.757951     2.749817     2.741683     2.733550     2.725416
      2.717282     2.709149     2.701015     2.692881     2.684748     2.676614     2.668480     2.660347     2.652213     2.644079
      2.635946     2.627812     2.619678     2.611545     2.603411     2.595278     2.587144     2.579010     2.570877     2.562743
      2.554609     2.546476     2.538342     2.530208     2.522075     2.513941     2.505807     2.497674     2.489540     2.481406
      2.473273     2.465139     2.457006     2.448872     2.440738     2.432605     2.424471     2.416337     2.408204     2.400070
      2.391936     2.383803     2.375669     2.367535     2.359402     2.351268     2.343134     2.335001     2.326867     2.318733
      2.310600     2.302466     2.294333     2.286199     2.278065     2.269932     2.261798     2.253664     2.245531     2.237397
      2.229263     2.221130     2.212996     2.204862     2.196729     2.188595     2.180461     2.172328     2.164194     2.156060
      2.147927     2.139793     2.131660     2.123526     2.115392     2.107259     2.099125     2.090991     2.082858     2.074724
      2.066590     2.058457     2.050323     2.042189     2.034056     2.025922     2.017788     2.009655     2.001521     1.993387
      1.985254     1.977120     1.968987     1.960853     1.952719     1.944586     1.936452     1.928318     1.920185     1.912051
      1.903917     1.895784     1.887650     1.879516     1.871383     1.863249     1.855115     1.846982     1.838848     1.830714
      1.822581     1.814447     1.806314     1.798180     1.790046     1.781913     1.773779     1.765645     1.757512     1.749378
      1.741244     1.733111     1.724977     1.716843     1.708710     1.700576     1.692442     1.684309     1.676175     1.668041
      1.659908     1.651774     1.643641     1.635507     1.627373     1.619240     1.611106     1.602972     1.594839     1.586705
      1.578571     1.570438     1.562304     1.554170     1.546037     1.537903     1.529769     1.521636     1.513502     1.505368
      1.497235     1.489101     1.480968     1.472834     1.464700     1.456567     1.448433     1.440299     1.432166     1.424032
      1.415898     1.407765     1.399631     1.391497     1.383364     1.375230     1.367096     1.358963     1.350829     1.342695
      1.334562     1.326428     1.318295     1.310161     1.302027     1.293894     1.285760     1.277626     1.269493     1.261359
      1.253225     1.245092     1.236958     1.228824     1.220691     1.212557     1.204423     1.196290     1.188156     1.180022
      1.171889     1.163755     1.155622     1.147488     1.139354     1.131221     1.123087     1.114953     1.106820     1.098686
      1.090552     1.082419     1.074285     1.066151     1.058018     1.049884     1.041750     1.033617     1.025483     1.017349
      1.009216     1.001082     0.992949     0.984815     0.976681     0.968548     0.960414     0.952280     0.944147     0.936013
      0.927879     0.919746     0.911612     0.903478     0.895345     0.887211     0.879077     0.870944     0.862810     0.854676
      0.846543     0.838409     0.830276     0.822142     0.814008     0.805875     0.797741     0.789607     0.781474     0.773340
      0.765206     0.757073     0.748939     0.740805     0.732672     0.724538     0.716404     0.708271     0.700137     0.692003
      0.683870     0.675736     0.667603     0.659469     0.651335     0.643202     0.635068     0.626934     0.618801     0.610667
      0.602533     0.594400     0.586266     0.578132     0.569999     0.561865     0.553731     0.545598     0.537464     0.529330
      0.521197     0.513063     0.504930     0.496796     0.488662     0.480529     0.472395     0.464261     0.456128     0.447994
      0.439861     0.431727     0.423593     0.415460     0.407326     0.399192     0.391059     0.382925     0.374792     0.366658
      0.358524     0.350391     0.342257     0.334124     0.325990     0.317856     0.309723     0.301589     0.293455     0.285322
      0.277188     0.269055     0.260921     0.252787     0.244654     0.236520     0.228386     0.220253     0.212119     0.203986
 NY phased data points follow
  -5.24790E+00  1.18110E+00  2.95556E+00  9.37213E+00 -6.40545E-01 -2.45223E+00  7.59977E-01 -6.31841E+00  3.02151E+00 -7.74659E+00
  -7.07927E+00 -1.95040E+01 -1.59972E+01 -9.48820E+00 -1.64969E+01 -6.56672E+00 -2.91832E+01 -2.80062E+01 -3.31901E+01 -4.16180E+01
  -4.11564E+01 -5.66122E+01 -5.52926E+01 -4.10182E+01 -9.01817E+00  3.99311E+00  1.27879E+01  1.76214E+01  2.94789E+01  3.45218E+01
   2.81576E+01  4.15043E+01  3.46046E+01  3.17013E+01  2.09728E+01  2.43350E+01  1.28738E+01 -1.37906E+00  1.10941E+01 -1.42160E+01
  -8.28065E+00 -7.19975E+00 -1.51279E+01 -1.86369E+01 -6.50461E+00  2.45545E+01  1.44080E+01  3.94977E+01  5.08107E+01  4.69865E+01
   5.78156E+01  5.63741E+01  5.12636E+01  3.25788E+01  4.81945E+01  4.83634E+01  2.39971E+01  1.64501E+01  2.01400E+01  1.96266E+01
   9.34208E+00  7.95252E+00  1.65162E+01  3.71532E+01  4.08577E+01  2.98921E+01  2.86717E+01  4.28732E+01  2.56160E+01  8.01632E+00
   1.21211E+01 -4.93323E+00  7.29105E+00  1.94206E+01  2.84309E+01  3.52623E+01  4.14132E+01  5.65353E+01  5.21695E+01  6.02895E+01
   5.46037E+01  5.18859E+01  4.99339E+01  4.18197E+01  4.95272E+01  3.98863E+01  3.18979E+01  4.17113E+01  4.92701E+01  4.48587E+01
   4.97497E+01  4.98023E+01  7.00689E+01  8.87220E+01  6.97075E+01  7.93536E+01  8.41211E+01  9.14870E+01  9.89226E+01  8.78891E+01
   8.92183E+01  7.97341E+01  7.57157E+01  5.69318E+01  4.05230E+01  4.08892E+01  3.22080E+01  2.01577E+01 -9.96988E+00 -3.03836E+01
  -5.88667E+01 -8.35912E+01 -8.02712E+01 -8.60118E+01 -7.34652E+01 -4.20780E+01 -2.33185E+01 -7.90671E+00  2.75438E+00 -6.59923E+00
   4.11856E+00  2.33984E+01  2.14573E+01  2.99223E+01  4.02734E+01  5.20036E+01  5.80693E+01  7.19514E+01  8.77210E+01  9.52566E+01
   1.05103E+02  9.64597E+01  8.92076E+01  5.59812E+01  1.25192E+01 -2.06328E+01 -5.62392E+01 -5.80376E+01 -5.63811E+01 -5.57089E+01
  -5.00687E+01 -5.01440E+01 -4.57787E+01 -4.91071E+01 -4.94316E+01 -3.45772E+01 -3.42150E+01 -4.66334E+01 -4.73344E+01 -4.28424E+01
  -2.46826E+01 -2.13082E+01 -3.74755E+01 -2.87575E+01 -1.63362E+01 -1.69144E+01 -4.65011E+00  3.82086E+00 -1.35470E+01 -1.30996E+01
   1.43260E+00 -4.14983E+00 -6.09522E+00 -1.79460E+00  3.37176E-01  3.61299E+00 -2.90543E+00 -2.22035E+00 -6.95337E+00 -1.38353E+01
   7.76518E+00  1.11598E+01  1.95637E+01  3.24113E+01  2.48479E+01  2.79101E+01  2.11310E+01  2.30558E+01  2.31018E+01  1.02436E+01
   7.57629E+00  4.04222E+00 -1.44413E+01 -2.60601E+01 -2.13308E+01 -2.90366E+01 -2.39889E+01 -2.46776E+01 -3.01231E+01 -2.66815E+01
  -2.44799E+01 -1.47027E+01 -1.11759E+01 -5.69456E-01 -8.11993E+00 -4.43206E+00  9.59965E+00 -1.17885E+00 -3.08212E+00  4.00766E+00
   1.82651E+01  6.37268E+00  6.71142E+00  1.38671E+01  1.73503E+00  1.48462E+01  4.14130E+00 -1.28052E+01 -1.64711E+01 -2.18335E+01
  -1.83704E+01 -1.62565E+01 -1.60087E+01 -1.57894E+01 -6.40057E+00 -8.87463E-01  2.28864E+01  3.58940E+01  2.57809E+01  3.68784E+01
   2.15841E+01  1.01219E+01  1.71450E+01  1.37302E+01  2.29334E+01  1.43551E+01  7.67476E+00  2.29597E+01  2.57933E+01  1.46380E+01
   1.10147E+00  5.77720E+00  8.30396E+00  3.71099E+00 -3.18417E+00 -2.21540E+01 -1.72365E+01 -1.73099E+01 -2.63829E+01 -4.40037E+01
  -5.47561E+01 -3.39048E+01 -3.77512E+01 -1.96389E+01 -1.14452E+01 -9.74233E+00  9.34567E+00 -1.33836E+01 -1.11055E+01 -8.85085E+00
  -1.85033E+01 -2.71227E+01 -4.13411E+01 -3.28640E+01 -2.23869E+01 -2.14006E+01 -1.09310E+01  1.26931E+01  4.24276E+01  1.00032E+02
   1.43452E+02  1.69151E+02  1.55284E+02  1.38952E+02  1.39428E+02  1.04700E+02  1.09210E+02  9.67718E+01  8.90889E+01  8.69765E+01
   8.00682E+01  9.39323E+01  6.65126E+01  8.79290E+01  1.01799E+02  8.71291E+01  9.89669E+01  9.77770E+01  9.78857E+01  9.53967E+01
   8.88081E+01  9.61727E+01  1.03982E+02  8.35840E+01  7.95045E+01  8.33292E+01  7.91257E+01  7.29403E+01  6.24837E+01  5.70079E+01
   4.98969E+01  5.38398E+01  4.36599E+01  4.70493E+01  6.01570E+01  5.24268E+01  4.42947E+01  3.68206E+01  3.44452E+01  2.63709E+01
   2.45515E+01  3.66984E+01  3.47830E+01  3.23750E+01  3.41995E+01  2.88103E+01  4.51654E+01  3.93736E+01  3.04325E+01  4.61444E+01
   4.72266E+01  5.01672E+01  4.68425E+01  5.28539E+01  5.22851E+01  4.95817E+01  4.16352E+01  3.67305E+01  5.24162E+01  5.19999E+01
   5.00578E+01  3.85636E+01  6.04767E+01  7.11389E+01  5.12895E+01  6.43285E+01  6.46141E+01  6.18895E+01  5.77525E+01  5.01628E+01
   4.37080E+01  3.31864E+01  2.04852E+01  1.53373E+01  2.92189E+01  3.18549E+01  4.85633E+01  6.83359E+01  6.15212E+01  5.70800E+01
   5.24335E+01  5.73629E+01  5.82595E+01  5.06022E+01  4.70292E+01  4.24576E+01  4.61282E+01  3.45091E+01  2.66115E+01  2.09498E+01
   2.71266E+01  3.33164E+01  2.18482E+01  3.48317E+01  1.45172E+01  4.31079E+00  6.17334E+00  7.45628E-01  1.26448E+01 -2.60877E+00
   1.16486E+01  2.29551E+01  1.06481E+01  9.21657E+00  1.67445E+01  2.88592E+01  3.13240E+01  3.45999E+01  2.64151E+01  3.13060E+01
   4.83943E+01  5.06017E+01  4.88841E+01  5.82081E+01  6.72421E+01  6.77867E+01  6.62776E+01  6.00848E+01  6.54240E+01  8.61824E+01
   9.44245E+01  8.53374E+01  9.27759E+01  1.09968E+02  1.17736E+02  1.31083E+02  1.40525E+02  1.33982E+02  1.42559E+02  1.44097E+02
   1.40655E+02  1.28827E+02  1.08120E+02  1.10193E+02  8.38083E+01  8.88178E+01  7.97444E+01  6.16285E+01  7.19683E+01  3.85902E+01
   4.75270E+01  4.20097E+01  2.29660E+01  7.48569E+00 -1.05939E-01  7.61944E+00 -2.30590E+01 -1.53476E+01 -1.03166E+01 -4.15670E+00
  -2.42686E+00 -2.14650E+01 -7.79875E+00 -4.16526E+00 -7.59305E+00  2.21428E+00  5.48161E+00 -9.63921E+00 -1.80689E+01 -9.39283E+00
   2.23564E+00  4.38992E+00 -2.81246E+00 -5.48233E+00  7.92069E-01 -5.59277E+00 -6.10324E+00 -4.71424E+00 -5.65716E+00  2.80168E+00
  -1.78437E+01 -1.34248E+01 -4.19090E+00  7.81037E-01  9.26421E+00 -1.24691E+00 -7.01884E-01 -1.49657E+01 -1.21046E+01 -9.19716E+00
  -4.77176E+00  6.11256E+00 -5.05258E+00 -1.47100E+00 -2.06549E+00 -1.24046E+01  7.08792E+00  1.40373E+01 -1.11019E+01 -6.06167E+00
   2.97656E-01  6.32174E+00  6.53653E+00  1.54500E+00  4.68221E+00 -1.04493E-01 -7.95082E+00 -1.09141E+01  1.18241E+01 -2.63404E+00
  -8.83400E-01  2.45111E+00 -1.02421E+01  1.81645E+01  1.25504E+01  9.57325E+00  5.40268E+00  4.02583E+00  9.91945E+00  5.02175E+00
   1.37025E+01  4.34274E+00  1.25076E+01  2.13273E+01 -1.01759E+00 -6.33202E+00 -7.42218E+00  5.56142E-01  6.05489E+00 -1.55156E+01
 NY points of the fit to the data follow
  -7.99848E+00 -9.13607E+00 -9.97833E+00 -1.13984E+01 -1.15978E+01 -9.93142E+00 -6.22135E+00 -1.08458E+00  2.82605E+00  3.41458E+00
  -7.98492E-02 -5.61022E+00 -1.01452E+01 -1.21101E+01 -1.23943E+01 -1.46631E+01 -1.89457E+01 -2.30438E+01 -3.06583E+01 -3.83854E+01
  -4.35686E+01 -4.64246E+01 -4.48312E+01 -3.25230E+01 -1.51436E+01  6.09407E+00  2.49824E+01  3.60383E+01  4.36357E+01  4.52845E+01
   4.59525E+01  4.66861E+01  4.63511E+01  4.51150E+01  4.38037E+01  3.98630E+01  3.43283E+01  2.77136E+01  1.93217E+01  7.80720E+00
  -3.20199E+00 -1.26396E+01 -1.66608E+01 -1.27598E+01 -2.89797E+00  1.12281E+01  2.37677E+01  3.47505E+01  4.29300E+01  4.77533E+01
   4.93705E+01  4.71524E+01  4.36968E+01  3.98548E+01  3.25013E+01  2.48187E+01  2.09679E+01  1.63960E+01  1.20470E+01  1.20325E+01
   1.13581E+01  1.26563E+01  1.87290E+01  2.62556E+01  3.52553E+01  4.03124E+01  4.39008E+01  4.59553E+01  3.90539E+01  2.87501E+01
   1.87913E+01  1.08305E+01  9.98939E+00  1.51619E+01  2.41354E+01  3.44147E+01  4.21446E+01  5.00339E+01  5.52307E+01  5.63549E+01
   5.46537E+01  5.09860E+01  4.46869E+01  3.80377E+01  3.10126E+01  2.64026E+01  2.65062E+01  2.96125E+01  3.66468E+01  4.39687E+01
   5.05659E+01  5.58035E+01  5.95327E+01  6.32604E+01  6.61432E+01  6.82266E+01  7.11921E+01  7.36928E+01  7.37101E+01  7.49626E+01
   7.42148E+01  7.05557E+01  6.60938E+01  6.62308E+01  5.93130E+01  4.76307E+01  3.50748E+01  2.40675E+01  5.04463E+00 -1.84831E+01
  -4.57871E+01 -7.21721E+01 -8.17047E+01 -7.67084E+01 -5.55270E+01 -3.57979E+01 -2.40361E+01 -1.56414E+01 -8.39587E+00 -1.70705E+00
   4.60833E+00  1.09028E+01  1.76982E+01  2.53417E+01  3.30462E+01  3.99404E+01  5.47581E+01  7.34583E+01  8.50634E+01  9.43250E+01
   1.04149E+02  1.02092E+02  8.65758E+01  5.67804E+01  1.14308E+01 -2.93617E+01 -5.56036E+01 -6.06423E+01 -5.16806E+01 -4.66513E+01
  -4.54577E+01 -4.49184E+01 -4.47785E+01 -4.48945E+01 -4.47082E+01 -4.42602E+01 -4.31733E+01 -4.10946E+01 -3.86681E+01 -3.57983E+01
  -3.28908E+01 -3.01547E+01 -2.75104E+01 -2.51019E+01 -2.26434E+01 -2.02033E+01 -1.76387E+01 -1.50792E+01 -1.33785E+01 -1.23991E+01
  -1.13395E+01 -9.84588E+00 -8.20425E+00 -7.31023E+00 -7.98208E+00 -9.64578E+00 -1.09043E+01 -9.96479E+00 -7.65443E+00 -5.89323E+00
  -3.19846E+00  1.79861E+00  8.23062E+00  1.44754E+01  1.71768E+01  1.62995E+01  1.47338E+01  1.37107E+01  1.30141E+01  1.09670E+01
   4.83488E+00 -3.10798E+00 -9.79624E+00 -1.43467E+01 -1.65449E+01 -1.81268E+01 -1.83484E+01 -1.77577E+01 -1.76190E+01 -1.56441E+01
  -1.26411E+01 -1.08658E+01 -7.93125E+00 -4.40086E+00 -1.06461E+00  2.79501E+00  5.25712E+00  6.80946E+00  8.82186E+00  9.22728E+00
   1.03487E+01  1.20865E+01  1.21785E+01  1.25642E+01  1.20657E+01  1.07324E+01  7.49601E+00  1.24471E+00 -4.41191E+00 -1.09566E+01
  -1.61043E+01 -1.81296E+01 -1.80202E+01 -1.40375E+01 -4.09832E+00  7.43258E+00  2.01913E+01  3.30950E+01  3.89954E+01  4.15915E+01
   3.89481E+01  3.38913E+01  3.17058E+01  2.99518E+01  3.09251E+01  3.28238E+01  3.23749E+01  2.93184E+01  2.35202E+01  1.50220E+01
   4.71456E+00 -5.99713E+00 -1.67410E+01 -2.72076E+01 -3.53569E+01 -4.15517E+01 -4.65197E+01 -4.75356E+01 -4.72044E+01 -4.44300E+01
  -3.96532E+01 -3.46687E+01 -2.87010E+01 -2.23289E+01 -1.73362E+01 -1.18854E+01 -7.95899E+00 -9.52799E+00 -1.29487E+01 -1.56849E+01
  -1.65744E+01 -2.89631E+01 -3.86433E+01 -3.73869E+01 -3.42863E+01 -3.05747E+01 -1.42532E+01  5.20040E+00  3.71534E+01  7.91272E+01
   1.13272E+02  1.35454E+02  1.30477E+02  1.17368E+02  1.08841E+02  1.03229E+02  9.85098E+01  9.40910E+01  8.99740E+01  8.64565E+01
   8.36315E+01  8.20837E+01  8.16234E+01  8.18420E+01  8.29652E+01  8.38092E+01  8.45982E+01  8.49359E+01  8.47164E+01  8.42784E+01
   8.32020E+01  8.18517E+01  8.01778E+01  7.82823E+01  7.64048E+01  7.44264E+01  7.22999E+01  7.00596E+01  6.75140E+01  6.45623E+01
   6.13375E+01  5.75900E+01  5.37697E+01  5.00964E+01  4.68856E+01  4.45323E+01  4.33420E+01  4.34803E+01  4.48010E+01  4.69291E+01
   4.94652E+01  5.21032E+01  5.47024E+01  5.73388E+01  5.99423E+01  6.24413E+01  6.47874E+01  6.71288E+01  6.95103E+01  7.20289E+01
   7.44993E+01  7.67494E+01  7.88244E+01  8.05463E+01  8.19212E+01  8.30294E+01  8.37810E+01  8.38605E+01  8.32966E+01  8.20295E+01
   8.02325E+01  7.80394E+01  7.53974E+01  7.21640E+01  6.83802E+01  6.37149E+01  5.79686E+01  5.11276E+01  4.30162E+01  3.42572E+01
   2.56151E+01  1.82308E+01  1.27716E+01  9.67886E+00  9.02956E+00  1.07177E+01  1.56271E+01  2.18918E+01  2.80107E+01  3.44693E+01
   3.90821E+01  4.03323E+01  3.93460E+01  3.46263E+01  2.59441E+01  1.82808E+01  1.19848E+01  1.08019E+01  1.40132E+01  1.78487E+01
   2.21055E+01  2.34644E+01  2.23501E+01  1.99731E+01  1.67679E+01  1.34467E+01  1.06988E+01  9.01557E+00  8.79828E+00  9.87471E+00
   1.19773E+01  1.48517E+01  1.82785E+01  2.19218E+01  2.56996E+01  2.93788E+01  3.27937E+01  3.60665E+01  3.91709E+01  4.22363E+01
   4.53325E+01  4.84588E+01  5.16401E+01  5.48904E+01  5.85909E+01  6.25995E+01  6.70607E+01  7.20559E+01  7.76516E+01  8.38726E+01
   9.07232E+01  9.81761E+01  1.06148E+02  1.14252E+02  1.21914E+02  1.28274E+02  1.32445E+02  1.33432E+02  1.30734E+02  1.24515E+02
   1.15692E+02  1.05652E+02  9.55291E+01  8.66528E+01  7.88688E+01  7.17306E+01  6.44571E+01  5.67707E+01  4.83340E+01  3.94121E+01
   3.06985E+01  2.28642E+01  1.63485E+01  1.12352E+01  7.40861E+00  4.64972E+00  2.59347E+00  1.06029E+00  3.50726E-03 -9.82361E-01
  -1.81149E+00 -2.49627E+00 -2.85722E+00 -3.10150E+00 -3.23544E+00 -3.19797E+00 -3.14216E+00 -3.11861E+00 -3.10307E+00 -2.99217E+00
  -2.96048E+00 -2.79690E+00 -2.63269E+00 -2.48219E+00 -2.36168E+00 -2.32597E+00 -2.17637E+00 -2.01522E+00 -1.77368E+00 -1.57892E+00
  -1.27677E+00 -1.00667E+00 -8.90992E-01 -9.08814E-01 -9.15609E-01 -8.47193E-01 -6.59532E-01 -2.90000E-01  1.98869E-02  3.98811E-01
   6.28093E-01  8.09994E-01  1.00933E+00  1.13563E+00  1.15469E+00  1.20941E+00  1.25490E+00  1.26885E+00  1.49443E+00  1.76746E+00
   1.95716E+00  2.15884E+00  2.22786E+00  2.37665E+00  2.55356E+00  2.87354E+00  3.19542E+00  3.50588E+00  3.70574E+00  3.90360E+00
   4.06310E+00  4.14191E+00  4.18083E+00  4.15175E+00  4.19746E+00  4.26039E+00  4.51232E+00  4.86215E+00  5.26889E+00  5.70866E+00
   5.95783E+00  5.96566E+00  5.83806E+00  5.72599E+00  5.66091E+00  5.77942E+00  5.98561E+00  6.06658E+00  6.11861E+00  6.18175E+00
 NY background values follow
     2.232E+01    2.233E+01    2.233E+01    2.233E+01    2.233E+01    2.233E+01    2.233E+01    2.234E+01    2.234E+01    2.234E+01
     2.234E+01    2.234E+01    2.234E+01    2.234E+01    2.235E+01    2.235E+01    2.235E+01    2.235E+01    2.235E+01    2.235E+01
     2.236E+01    2.236E+01    2.236E+01    2.236E+01    2.236E+01    2.236E+01    2.237E+01    2.237E+01    2.237E+01    2.237E+01
     2.237E+01    2.237E+01    2.238E+01    2.238E+01    2.238E+01    2.238E+01    2.238E+01    2.238E+01    2.239E+01    2.239E+01
     2.239E+01    2.239E+01    2.239E+01    2.240E+01    2.240E+01    2.240E+01    2.240E+01    2.240E+01    2.240E+01    2.240E+01
     2.241E+01    2.241E+01    2.241E+01    2.241E+01    2.241E+01    2.241E+01    2.241E+01    2.242E+01    2.242E+01    2.242E+01
     2.242E+01    2.242E+01    2.242E+01    2.242E+01    2.242E+01    2.242E+01    2.243E+01    2.243E+01    2.243E+01    2.243E+01
     2.243E+01    2.243E+01    2.243E+01    2.243E+01    2.243E+01    2.243E+01    2.243E+01    2.243E+01    2.243E+01    2.243E+01
     2.243E+01    2.243E+01    2.243E+01    2.243E+01    2.243E+01    2.243E+01    2.243E+01    2.242E+01    2.242E+01    2.242E+01
     2.242E+01    2.242E+01    2.242E+01    2.242E+01    2.242E+01    2.241E+01    2.241E+01    2.241E+01    2.241E+01    2.241E+01
     2.240E+01    2.240E+01    2.240E+01    2.239E+01    2.239E+01    2.239E+01    2.239E+01    2.238E+01    2.238E+01    2.238E+01
     2.237E+01    2.237E+01    2.237E+01    2.236E+01    2.236E+01    2.235E+01    2.235E+01    2.234E+01    2.234E+01    2.234E+01
     2.233E+01    2.233E+01    2.232E+01    2.232E+01    2.231E+01    2.231E+01    2.230E+01    2.229E+01    2.229E+01    2.228E+01
     2.228E+01    2.227E+01    2.226E+01    2.226E+01    2.225E+01    2.224E+01    2.224E+01    2.223E+01    2.222E+01    2.222E+01
     2.221E+01    2.220E+01    2.219E+01    2.218E+01    2.218E+01    2.217E+01    2.216E+01    2.215E+01    2.214E+01    2.213E+01
     2.212E+01    2.212E+01    2.211E+01    2.210E+01    2.209E+01    2.208E+01    2.207E+01    2.206E+01    2.205E+01    2.204E+01
     2.203E+01    2.202E+01    2.201E+01    2.199E+01    2.198E+01    2.197E+01    2.196E+01    2.195E+01    2.194E+01    2.193E+01
     2.191E+01    2.190E+01    2.189E+01    2.188E+01    2.186E+01    2.185E+01    2.184E+01    2.182E+01    2.181E+01    2.180E+01
     2.178E+01    2.177E+01    2.176E+01    2.174E+01    2.173E+01    2.171E+01    2.170E+01    2.169E+01    2.167E+01    2.166E+01
     2.164E+01    2.163E+01    2.161E+01    2.160E+01    2.158E+01    2.156E+01    2.155E+01    2.153E+01    2.152E+01    2.150E+01
     2.148E+01    2.147E+01    2.145E+01    2.143E+01    2.142E+01    2.140E+01    2.138E+01    2.136E+01    2.135E+01    2.133E+01
     2.131E+01    2.129E+01    2.128E+01    2.126E+01    2.124E+01    2.122E+01    2.120E+01    2.118E+01    2.117E+01    2.115E+01
     2.113E+01    2.111E+01    2.109E+01    2.107E+01    2.105E+01    2.103E+01    2.101E+01    2.099E+01    2.097E+01    2.095E+01
     2.093E+01    2.091E+01    2.089E+01    2.086E+01    2.084E+01    2.082E+01    2.080E+01    2.078E+01    2.076E+01    2.073E+01
     2.071E+01    2.069E+01    2.067E+01    2.064E+01    2.062E+01    2.060E+01    2.057E+01    2.055E+01    2.053E+01    2.050E+01
     2.048E+01    2.046E+01    2.043E+01    2.041E+01    2.038E+01    2.036E+01    2.033E+01    2.031E+01    2.028E+01    2.026E+01
     2.023E+01    2.020E+01    2.018E+01    2.015E+01    2.013E+01    2.010E+01    2.007E+01    2.005E+01    2.002E+01    1.999E+01
     1.996E+01    1.994E+01    1.991E+01    1.988E+01    1.985E+01    1.983E+01    1.980E+01    1.977E+01    1.974E+01    1.971E+01
     1.968E+01    1.965E+01    1.963E+01    1.960E+01    1.957E+01    1.954E+01    1.951E+01    1.948E+01    1.945E+01    1.942E+01
     1.939E+01    1.936E+01    1.933E+01    1.930E+01    1.927E+01    1.924E+01    1.921E+01    1.918E+01    1.915E+01    1.912E+01
     1.909E+01    1.906E+01    1.903E+01    1.900E+01    1.897E+01    1.894E+01    1.891E+01    1.888E+01    1.885E+01    1.881E+01
     1.878E+01    1.875E+01    1.872E+01    1.869E+01    1.866E+01    1.863E+01    1.860E+01    1.857E+01    1.854E+01    1.850E+01
     1.847E+01    1.844E+01    1.841E+01    1.838E+01    1.835E+01    1.832E+01    1.828E+01    1.825E+01    1.822E+01    1.819E+01
     1.816E+01    1.812E+01    1.809E+01    1.806E+01    1.803E+01    1.799E+01    1.796E+01    1.793E+01    1.790E+01    1.786E+01
     1.783E+01    1.780E+01    1.776E+01    1.773E+01    1.770E+01    1.766E+01    1.763E+01    1.760E+01    1.756E+01    1.753E+01
     1.750E+01    1.746E+01    1.743E+01    1.739E+01    1.736E+01    1.733E+01    1.729E+01    1.726E+01    1.722E+01    1.719E+01
     1.715E+01    1.712E+01    1.708E+01    1.705E+01    1.701E+01    1.698E+01    1.694E+01    1.691E+01    1.687E+01    1.683E+01
     1.680E+01    1.676E+01    1.673E+01    1.669E+01    1.665E+01    1.662E+01    1.658E+01    1.655E+01    1.651E+01    1.647E+01
     1.643E+01    1.640E+01    1.636E+01    1.632E+01    1.629E+01    1.625E+01    1.621E+01    1.618E+01    1.614E+01    1.610E+01
     1.606E+01    1.602E+01    1.599E+01    1.595E+01    1.591E+01    1.587E+01    1.583E+01    1.580E+01    1.576E+01    1.572E+01
     1.568E+01    1.564E+01    1.560E+01    1.557E+01    1.553E+01    1.549E+01    1.545E+01    1.541E+01    1.537E+01    1.533E+01
     1.529E+01    1.525E+01    1.522E+01    1.518E+01    1.514E+01    1.510E+01    1.506E+01    1.502E+01    1.498E+01    1.494E+01
     1.490E+01    1.486E+01    1.482E+01    1.478E+01    1.474E+01    1.470E+01    1.466E+01    1.462E+01    1.458E+01    1.454E+01
     1.450E+01    1.446E+01    1.442E+01    1.438E+01    1.434E+01    1.430E+01    1.426E+01    1.422E+01    1.418E+01    1.414E+01
     1.410E+01    1.406E+01    1.402E+01    1.398E+01    1.394E+01    1.390E+01    1.386E+01    1.382E+01    1.378E+01    1.374E+01
     1.370E+01    1.366E+01    1.362E+01    1.358E+01    1.354E+01    1.350E+01    1.346E+01    1.342E+01    1.338E+01    1.334E+01
     1.330E+01    1.326E+01    1.322E+01    1.318E+01    1.314E+01    1.310E+01    1.306E+01    1.302E+01    1.298E+01    1.294E+01
     1.290E+01    1.286E+01    1.282E+01    1.278E+01    1.274E+01    1.270E+01    1.266E+01    1.262E+01    1.258E+01    1.254E+01
 Mac      Conc. = 2.87E-04
   2.72497E+00  2.22058E+00  1.74148E+00  1.28670E+00  7.95417E-01  3.14785E-02 -1.05221E+00 -2.51929E+00 -4.09554E+00 -5.54126E+00
  -6.65627E+00 -7.53990E+00 -8.40028E+00 -9.01730E+00 -9.65495E+00 -1.06379E+01 -1.14607E+01 -1.12482E+01 -9.87083E+00 -6.94700E+00
  -2.90676E+00  1.17021E+00  4.69609E+00  7.25129E+00  9.29270E+00  1.09045E+01  1.21492E+01  1.35396E+01  1.52574E+01  1.71719E+01
   1.89324E+01  2.02923E+01  2.12284E+01  2.18289E+01  2.22422E+01  2.25414E+01  2.28587E+01  2.35624E+01  2.47897E+01  2.64016E+01
   2.79707E+01  2.89998E+01  2.94710E+01  2.98691E+01  3.05135E+01  3.14561E+01  3.23132E+01  3.26132E+01  3.22832E+01  3.13752E+01
   3.01959E+01  2.88569E+01  2.76276E+01  2.67578E+01  2.61018E+01  2.57598E+01  2.58765E+01  2.64407E+01  2.73458E+01  2.86261E+01
   2.99787E+01  3.11394E+01  3.20663E+01  3.25265E+01  3.23774E+01  3.16593E+01  3.06652E+01  2.99430E+01  2.94624E+01  2.94606E+01
   3.00392E+01  3.11971E+01  3.30081E+01  3.50560E+01  3.68170E+01  3.79554E+01  3.81845E+01  3.78170E+01  3.71823E+01  3.64159E+01
   3.57598E+01  3.52213E+01  3.49939E+01  3.50808E+01  3.53467E+01  3.59622E+01  3.67350E+01  3.75809E+01  3.83446E+01  3.90842E+01
   3.97289E+01  4.02099E+01  4.05073E+01  4.05485E+01  4.01027E+01  3.91945E+01  3.77472E+01  3.57242E+01  3.34412E+01  3.11480E+01
   2.90921E+01  2.70550E+01  2.46891E+01  2.16337E+01  1.77940E+01  1.29507E+01  7.34791E+00  1.56293E+00 -3.59357E+00 -7.26049E+00
