 
 $NMID
 ID=''
 FMTDAT='(2E13.5)'
 TRAMP=   1.00000E+0
 VOLUME=   1.00000E+0
 $END
  -5.27561E+5   4.60867E+5
  -1.71295E+6   6.14029E+5
  -1.61059E+6   7.65670E+5
  -1.60107E+6   6.65877E+5
  -1.66618E+6   7.11957E+5
  -1.55983E+6   7.38339E+5
  -1.53746E+6   6.45897E+5
  -1.61796E+6   6.69539E+5
  -1.56426E+6   7.32624E+5
  -1.51402E+6   6.92067E+5
  -1.53302E+6   6.77562E+5
  -1.51228E+6   6.89183E+5
  -1.49766E+6   6.77811E+5
  -1.49483E+6   6.96053E+5
  -1.45629E+6   7.00461E+5
  -1.44096E+6   6.79579E+5
  -1.45026E+6   6.90841E+5
  -1.42786E+6   6.93555E+5
  -1.41485E+6   6.74611E+5
  -1.41059E+6   6.80576E+5
  -1.38885E+6   6.76134E+5
  -1.38203E+6   6.60588E+5
  -1.37874E+6   6.68971E+5
  -1.35801E+6   6.69028E+5
  -1.34520E+6   6.52102E+5
  -1.33462E+6   6.58728E+5
  -1.31961E+6   6.62285E+5
  -1.31059E+6   6.58026E+5
  -1.29564E+6   6.59248E+5
  -1.27508E+6   6.59108E+5
  -1.27097E+6   6.52450E+5
  -1.26208E+6   6.53256E+5
  -1.24544E+6   6.48629E+5
  -1.23547E+6   6.42623E+5
  -1.22432E+6   6.41898E+5
  -1.21185E+6   6.39051E+5
  -1.20667E+6   6.34880E+5
  -1.19723E+6   6.32025E+5
  -1.18142E+6   6.27123E+5
  -1.17268E+6   6.25250E+5
  -1.16210E+6   6.24430E+5
  -1.14857E+6   6.21296E+5
  -1.13570E+6   6.20344E+5
  -1.12485E+6   6.21753E+5
  -1.11305E+6   6.18377E+5
  -1.10368E+6   6.16528E+5
  -1.09427E+6   6.14290E+5
  -1.08438E+6   6.07547E+5
  -1.07337E+6   6.01030E+5
  -1.06269E+6   5.97582E+5
  -1.05426E+6   5.93724E+5
  -1.04648E+6   5.88708E+5
  -1.03711E+6   5.83909E+5
  -1.02810E+6   5.79425E+5
  -1.01956E+6   5.74681E+5
  -1.01092E+6   5.69877E+5
  -1.00149E+6   5.64252E+5
  -9.90611E+5   5.59959E+5
  -9.80113E+5   5.57186E+5
  -9.71474E+5   5.53254E+5
  -9.63033E+5   5.47962E+5
  -9.53356E+5   5.43613E+5
  -9.45184E+5   5.39149E+5
  -9.36695E+5   5.32849E+5
  -9.26691E+5   5.25535E+5
  -9.15819E+5   5.20009E+5
  -9.06357E+5   5.15464E+5
  -8.97610E+5   5.10182E+5
  -8.89611E+5   5.04756E+5
  -8.81858E+5   4.99362E+5
  -8.73031E+5   4.93041E+5
  -8.63101E+5   4.87615E+5
  -8.53907E+5   4.83267E+5
  -8.45786E+5   4.78509E+5
  -8.37417E+5   4.72178E+5
  -8.27659E+5   4.66204E+5
  -8.18581E+5   4.60929E+5
  -8.10614E+5   4.55012E+5
  -8.02184E+5   4.47868E+5
  -7.93330E+5   4.40863E+5
  -7.84409E+5   4.33981E+5
  -7.75843E+5   4.28146E+5
  -7.67702E+5   4.21543E+5
  -7.59673E+5   4.14059E+5
  -7.51284E+5   4.06741E+5
  -7.42277E+5   4.00950E+5
  -7.34247E+5   3.95545E+5
  -7.25911E+5   3.89092E+5
  -7.17249E+5   3.83098E+5
  -7.08279E+5   3.77465E+5
  -6.99801E+5   3.72452E+5
  -6.91683E+5   3.66943E+5
  -6.83569E+5   3.60485E+5
  -6.75125E+5   3.53904E+5
  -6.66318E+5   3.47551E+5
  -6.57704E+5   3.41966E+5
  -6.49735E+5   3.36864E+5
  -6.42460E+5   3.31246E+5
  -6.34357E+5   3.24721E+5
  -6.26236E+5   3.19196E+5
  -6.18164E+5   3.14651E+5
  -6.11484E+5   3.08989E+5
  -6.03472E+5   3.02450E+5
  -5.94256E+5   2.97071E+5
  -5.85684E+5   2.93502E+5
  -5.78734E+5   2.89588E+5
  -5.71941E+5   2.84460E+5
  -5.64021E+5   2.78945E+5
  -5.55453E+5   2.74512E+5
  -5.47197E+5   2.70621E+5
  -5.39882E+5   2.66650E+5
  -5.33387E+5   2.62090E+5
  -5.26972E+5   2.57114E+5
  -5.19561E+5   2.52357E+5
  -5.12222E+5   2.47580E+5
  -5.05513E+5   2.43040E+5
  -4.98744E+5   2.38408E+5
  -4.91432E+5   2.33850E+5
  -4.83255E+5   2.29795E+5
  -4.76340E+5   2.26644E+5
  -4.70078E+5   2.23482E+5
  -4.63648E+5   2.19812E+5
  -4.56825E+5   2.15998E+5
  -4.50326E+5   2.12296E+5
  -4.43571E+5   2.08584E+5
  -4.36951E+5   2.04846E+5
  -4.29866E+5   2.01234E+5
  -4.23444E+5   1.97742E+5
  -4.17030E+5   1.94360E+5
  -4.11129E+5   1.90766E+5
  -4.05306E+5   1.86542E+5
  -3.98905E+5   1.82006E+5
  -3.92143E+5   1.78506E+5
  -3.86292E+5   1.75232E+5
  -3.80525E+5   1.71530E+5
  -3.74241E+5   1.67524E+5
  -3.68179E+5   1.64444E+5
  -3.62281E+5   1.61558E+5
  -3.56964E+5   1.57978E+5
  -3.51278E+5   1.53991E+5
  -3.45213E+5   1.50428E+5
  -3.39064E+5   1.47842E+5
  -3.33001E+5   1.44923E+5
  -3.28097E+5   1.41766E+5
  -3.22713E+5   1.38248E+5
  -3.16817E+5   1.34769E+5
  -3.11023E+5   1.31580E+5
  -3.05599E+5   1.28567E+5
  -3.00300E+5   1.25574E+5
  -2.94660E+5   1.22555E+5
  -2.89095E+5   1.19867E+5
  -2.83662E+5   1.17087E+5
  -2.78556E+5   1.14902E+5
  -2.73889E+5   1.12041E+5
  -2.68858E+5   1.09222E+5
  -2.63357E+5   1.06436E+5
  -2.58515E+5   1.04315E+5
  -2.53743E+5   1.01827E+5
  -2.48855E+5   9.89337E+4
  -2.44079E+5   9.68886E+4
  -2.39490E+5   9.44838E+4
  -2.34912E+5   9.21873E+4
  -2.30033E+5   8.94782E+4
  -2.25636E+5   8.73546E+4
  -2.20869E+5   8.54714E+4
  -2.16701E+5   8.36666E+4
  -2.12447E+5   8.16275E+4
  -2.08658E+5   7.90778E+4
  -2.04216E+5   7.72051E+4
  -1.99978E+5   7.54046E+4
  -1.96031E+5   7.40735E+4
  -1.92287E+5   7.18523E+4
  -1.88629E+5   6.99102E+4
  -1.84503E+5   6.79738E+4
  -1.80867E+5   6.65277E+4
  -1.77369E+5   6.47514E+4
  -1.74027E+5   6.30162E+4
  -1.70274E+5   6.09238E+4
  -1.66746E+5   5.92846E+4
  -1.63529E+5   5.77244E+4
  -1.60384E+5   5.60811E+4
  -1.57110E+5   5.44287E+4
  -1.53974E+5   5.24784E+4
  -1.50683E+5   5.08300E+4
  -1.47454E+5   4.97186E+4
  -1.44197E+5   4.82018E+4
  -1.41292E+5   4.68272E+4
  -1.38071E+5   4.57173E+4
  -1.35231E+5   4.46767E+4
  -1.32533E+5   4.33469E+4
  -1.29864E+5   4.18286E+4
  -1.27020E+5   4.01514E+4
  -1.23727E+5   3.87983E+4
  -1.20882E+5   3.78164E+4
  -1.18380E+5   3.66661E+4
  -1.15724E+5   3.54026E+4
  -1.12984E+5   3.42155E+4
  -1.10555E+5   3.30954E+4
  -1.08082E+5   3.17678E+4
  -1.05337E+5   3.05488E+4
  -1.02673E+5   2.95292E+4
  -1.00278E+5   2.85515E+4
  -9.77525E+4   2.78167E+4
  -9.53957E+4   2.64495E+4
  -9.30341E+4   2.58819E+4
  -9.06622E+4   2.44545E+4
  -8.81187E+4   2.36435E+4
  -8.59426E+4   2.29117E+4
  -8.38116E+4   2.19261E+4
  -8.15389E+4   2.08594E+4
  -7.90834E+4   2.01162E+4
  -7.67471E+4   1.92767E+4
  -7.49588E+4   1.86958E+4
  -7.26756E+4   1.77379E+4
  -7.03925E+4   1.67751E+4
  -6.83053E+4   1.62551E+4
  -6.64501E+4   1.54242E+4
  -6.41791E+4   1.49846E+4
  -6.20974E+4   1.43791E+4
  -6.02044E+4   1.37585E+4
  -5.85496E+4   1.29060E+4
  -5.63959E+4   1.24958E+4
  -5.42472E+4   1.18249E+4
  -5.24511E+4   1.15334E+4
  -5.05817E+4   1.08704E+4
  -4.88344E+4   1.02276E+4
  -4.69886E+4   9.79042E+3
  -4.51275E+4   9.22792E+3
  -4.34840E+4   8.57346E+3
  -4.17568E+4   7.90816E+3
  -3.99040E+4   7.58732E+3
  -3.84778E+4   7.07231E+3
  -3.68158E+4   6.56511E+3
  -3.51249E+4   6.23503E+3
  -3.37269E+4   6.06315E+3
  -3.19675E+4   5.52838E+3
  -3.09895E+4   4.92864E+3
  -2.93680E+4   4.89547E+3
  -2.78504E+4   4.47269E+3
  -2.61521E+4   4.01965E+3
  -2.49218E+4   3.68213E+3
  -2.38385E+4   3.18421E+3
  -2.23541E+4   3.01408E+3
  -2.14122E+4   2.62074E+3
  -1.99556E+4   2.13442E+3
  -1.88081E+4   1.87880E+3
  -1.76576E+4   1.72085E+3
  -1.64160E+4   1.41967E+3
  -1.55071E+4   9.48846E+2
  -1.42017E+4   9.21710E+2
  -1.31774E+4   7.21004E+2
  -1.21274E+4   2.67718E+2
  -1.11127E+4  -4.01104E+1
  -1.02753E+4  -2.79013E+2
  -9.10012E+3  -2.66463E+2
  -8.34182E+3  -4.04748E+2
  -7.30315E+3  -1.01405E+3
  -6.30857E+3  -1.08855E+3
  -5.64304E+3  -1.17140E+3
  -4.63519E+3  -1.46587E+3
  -3.75204E+3  -1.69852E+3
  -2.95814E+3  -1.97439E+3
  -2.05482E+3  -1.92408E+3
  -1.39235E+3  -2.08359E+3
  -6.95382E+2  -2.20104E+3
   1.34378E+2  -2.53431E+3
   7.00372E+2  -2.56432E+3
   1.58878E+3  -2.49571E+3
   2.22474E+3  -2.60469E+3
   2.80220E+3  -2.57627E+3
   3.35039E+3  -2.98478E+3
   4.30288E+3  -2.94232E+3
   4.79315E+3  -2.81793E+3
   5.11858E+3  -2.90232E+3
   5.97773E+3  -2.87773E+3
   6.74603E+3  -2.67962E+3
   7.32560E+3  -2.42379E+3
   7.50990E+3  -2.52563E+3
   8.21198E+3  -2.40470E+3
   8.71168E+3  -2.64032E+3
   9.43319E+3  -2.61514E+3
   9.76880E+3  -2.42007E+3
   1.00847E+4  -2.37599E+3
   1.07887E+4  -2.31030E+3
   1.11710E+4  -2.02511E+3
   1.15559E+4  -1.77149E+3
   1.20059E+4  -1.96671E+3
   1.20315E+4  -1.93424E+3
   1.27462E+4  -1.91752E+3
   1.31707E+4  -1.59462E+3
   1.34672E+4  -1.20896E+3
   1.39845E+4  -1.08036E+3
   1.41327E+4  -8.98703E+2
   1.45292E+4  -7.31824E+2
   1.46652E+4  -7.76153E+2
   1.50445E+4  -5.62010E+2
   1.56031E+4  -4.54274E+2
   1.55276E+4  -2.07803E+2
   1.59281E+4   3.54241E+0
   1.61152E+4   2.24205E+2
   1.63605E+4   4.35113E+2
   1.64687E+4   6.32768E+2
   1.68796E+4   7.45850E+2
   1.71009E+4   1.22219E+3
   1.72649E+4   1.26849E+3
   1.72661E+4   1.55724E+3
   1.74173E+4   1.60681E+3
   1.73634E+4   1.77574E+3
   1.75411E+4   2.01583E+3
   1.75414E+4   2.38800E+3
   1.79325E+4   2.22609E+3
   1.80677E+4   2.57987E+3
   1.80637E+4   2.76836E+3
   1.81352E+4   2.84212E+3
   1.82702E+4   3.17428E+3
   1.81469E+4   3.20941E+3
   1.83876E+4   3.33584E+3
   1.82371E+4   3.52856E+3
   1.82058E+4   3.89734E+3
   1.84197E+4   3.91933E+3
   1.86260E+4   4.03293E+3
   1.82287E+4   4.48504E+3
   1.84342E+4   4.32686E+3
   1.85800E+4   4.67437E+3
   1.84270E+4   4.80445E+3
   1.83092E+4   4.93780E+3
   1.82714E+4   4.97198E+3
   1.81577E+4   5.53379E+3
   1.81533E+4   5.52328E+3
   1.78530E+4   5.80744E+3
   1.79034E+4   5.69548E+3
   1.81893E+4   6.12772E+3
   1.77718E+4   6.25188E+3
   1.77604E+4   6.40623E+3
   1.76040E+4   6.41714E+3
   1.78072E+4   6.63013E+3
   1.73763E+4   6.84936E+3
   1.72900E+4   6.83786E+3
   1.69864E+4   6.90603E+3
   1.67433E+4   7.06671E+3
   1.68440E+4   7.49085E+3
   1.66082E+4   7.46945E+3
   1.64573E+4   7.58388E+3
   1.63160E+4   7.86250E+3
   1.62960E+4   8.05004E+3
   1.57636E+4   8.09826E+3
   1.56641E+4   8.02152E+3
   1.55864E+4   8.42642E+3
   1.55447E+4   8.33921E+3
   1.54904E+4   8.54570E+3
   1.53821E+4   8.55516E+3
   1.49698E+4   8.68404E+3
   1.47817E+4   8.80837E+3
   1.48462E+4   8.67676E+3
   1.47872E+4   8.85484E+3
   1.45556E+4   8.70593E+3
   1.42643E+4   9.10540E+3
   1.40720E+4   8.96119E+3
   1.39257E+4   9.21444E+3
   1.37737E+4   9.06408E+3
   1.36321E+4   9.08233E+3
   1.33143E+4   9.02369E+3
   1.31797E+4   9.12940E+3
   1.31002E+4   9.27288E+3
   1.28909E+4   9.24434E+3
   1.26896E+4   9.32773E+3
   1.23161E+4   9.36881E+3
