 LCModel (Version 6.3-1N) Copyright: S.W. Provencher.          Ref.: Magn. Reson. Med. 30:672-679 (1993).                
 Slice_N1@18_21  28-Feb-2025 11:37:56
 27 lines in following concentration table = NCONC+1
    Conc.  %SD /Cr+PCr  Metabolite                                         
 3.07E-04   3% 2.7E-04 Mac                                                 
    3.681  24%   3.194 Cr                                                  
    5.540  16%   4.806 PCr                                                 
    9.938   8%   8.623 Ins                                                 
   12.072   6%  10.474 NAA                                                 
    7.767  10%   6.738 Tau                                                 
    0.000 999%   0.000 PCho                                                
    1.595  15%   1.384 GPC                                                 
   10.104   9%   8.767 Glu                                                 
    4.828  15%   4.189 Gln                                                 
    4.083  14%   3.542 Ala                                                 
    4.985  21%   4.325 Asc                                                 
    3.817  25%   3.311 Asp                                                 
    1.070  47%   0.929 GABA                                                
    1.257  60%   1.091 Glc                                                 
    1.619  28%   1.404 GSH                                                 
    2.433  23%   2.111 Lac                                                 
    2.021  24%   1.753 NAAG                                                
    1.818  50%   1.577 PE                                                  
    1.595  15%   1.384 GPC+PCho                                            
   14.093   5%  12.227 NAA+NAAG                                            
   14.932   7%  12.955 Glu+Gln                                             
    9.221   6%   8.000 Cr+PCr                                              
   14.093   5%  12.227 NAA+NAAG                                            
    9.221   6%   8.000 Cr+PCr                                              
   14.932   7%  12.955 Glu+Gln                                             
   6 lines in following misc. output table
  FWHM = 0.024 ppm    S/N =   6                                            
  Data shift = 0.024 ppm                                                   
  Ph: -68 deg       0.0 deg/ppm                                            
  alphaB,S = 3.1E+01,   8.6E+00                                            
   19 spline knots.   Ns = 5(1)                                            
   2 inflections.     1 extrema                                            
  480 points on ppm-axis = NY
      4.100000     4.091866     4.083733     4.075600     4.067466     4.059333     4.051199     4.043066     4.034933     4.026799
      4.018666     4.010532     4.002399     3.994265     3.986132     3.977998     3.969864     3.961731     3.953597     3.945463
      3.937330     3.929196     3.921062     3.912929     3.904795     3.896662     3.888528     3.880394     3.872261     3.864127
      3.855993     3.847860     3.839726     3.831592     3.823459     3.815325     3.807191     3.799058     3.790924     3.782790
      3.774657     3.766523     3.758389     3.750256     3.742122     3.733989     3.725855     3.717721     3.709588     3.701454
      3.693320     3.685187     3.677053     3.668919     3.660786     3.652652     3.644518     3.636385     3.628251     3.620117
      3.611984     3.603850     3.595716     3.587583     3.579449     3.571316     3.563182     3.555048     3.546915     3.538781
      3.530647     3.522514     3.514380     3.506246     3.498113     3.489979     3.481845     3.473712     3.465578     3.457444
      3.449311     3.441177     3.433043     3.424910     3.416776     3.408643     3.400509     3.392375     3.384242     3.376108
      3.367974     3.359841     3.351707     3.343573     3.335440     3.327306     3.319172     3.311039     3.302905     3.294771
      3.286638     3.278504     3.270370     3.262237     3.254103     3.245970     3.237836     3.229702     3.221569     3.213435
      3.205301     3.197168     3.189034     3.180900     3.172767     3.164633     3.156499     3.148366     3.140232     3.132098
      3.123965     3.115831     3.107697     3.099564     3.091430     3.083297     3.075163     3.067029     3.058896     3.050762
      3.042628     3.034495     3.026361     3.018227     3.010094     3.001960     2.993826     2.985693     2.977559     2.969425
      2.961292     2.953158     2.945024     2.936891     2.928757     2.920624     2.912490     2.904356     2.896223     2.888089
      2.879955     2.871822     2.863688     2.855554     2.847421     2.839287     2.831153     2.823020     2.814886     2.806752
      2.798619     2.790485     2.782351     2.774218     2.766084     2.757951     2.749817     2.741683     2.733550     2.725416
      2.717282     2.709149     2.701015     2.692881     2.684748     2.676614     2.668480     2.660347     2.652213     2.644079
      2.635946     2.627812     2.619678     2.611545     2.603411     2.595278     2.587144     2.579010     2.570877     2.562743
      2.554609     2.546476     2.538342     2.530208     2.522075     2.513941     2.505807     2.497674     2.489540     2.481406
      2.473273     2.465139     2.457006     2.448872     2.440738     2.432605     2.424471     2.416337     2.408204     2.400070
      2.391936     2.383803     2.375669     2.367535     2.359402     2.351268     2.343134     2.335001     2.326867     2.318733
      2.310600     2.302466     2.294333     2.286199     2.278065     2.269932     2.261798     2.253664     2.245531     2.237397
      2.229263     2.221130     2.212996     2.204862     2.196729     2.188595     2.180461     2.172328     2.164194     2.156060
      2.147927     2.139793     2.131660     2.123526     2.115392     2.107259     2.099125     2.090991     2.082858     2.074724
      2.066590     2.058457     2.050323     2.042189     2.034056     2.025922     2.017788     2.009655     2.001521     1.993387
      1.985254     1.977120     1.968987     1.960853     1.952719     1.944586     1.936452     1.928318     1.920185     1.912051
      1.903917     1.895784     1.887650     1.879516     1.871383     1.863249     1.855115     1.846982     1.838848     1.830714
      1.822581     1.814447     1.806314     1.798180     1.790046     1.781913     1.773779     1.765645     1.757512     1.749378
      1.741244     1.733111     1.724977     1.716843     1.708710     1.700576     1.692442     1.684309     1.676175     1.668041
      1.659908     1.651774     1.643641     1.635507     1.627373     1.619240     1.611106     1.602972     1.594839     1.586705
      1.578571     1.570438     1.562304     1.554170     1.546037     1.537903     1.529769     1.521636     1.513502     1.505368
      1.497235     1.489101     1.480968     1.472834     1.464700     1.456567     1.448433     1.440299     1.432166     1.424032
      1.415898     1.407765     1.399631     1.391497     1.383364     1.375230     1.367096     1.358963     1.350829     1.342695
      1.334562     1.326428     1.318295     1.310161     1.302027     1.293894     1.285760     1.277626     1.269493     1.261359
      1.253225     1.245092     1.236958     1.228824     1.220691     1.212557     1.204423     1.196290     1.188156     1.180022
      1.171889     1.163755     1.155622     1.147488     1.139354     1.131221     1.123087     1.114953     1.106820     1.098686
      1.090552     1.082419     1.074285     1.066151     1.058018     1.049884     1.041750     1.033617     1.025483     1.017349
      1.009216     1.001082     0.992949     0.984815     0.976681     0.968548     0.960414     0.952280     0.944147     0.936013
      0.927879     0.919746     0.911612     0.903478     0.895345     0.887211     0.879077     0.870944     0.862810     0.854676
      0.846543     0.838409     0.830276     0.822142     0.814008     0.805875     0.797741     0.789607     0.781474     0.773340
      0.765206     0.757073     0.748939     0.740805     0.732672     0.724538     0.716404     0.708271     0.700137     0.692003
      0.683870     0.675736     0.667603     0.659469     0.651335     0.643202     0.635068     0.626934     0.618801     0.610667
      0.602533     0.594400     0.586266     0.578132     0.569999     0.561865     0.553731     0.545598     0.537464     0.529330
      0.521197     0.513063     0.504930     0.496796     0.488662     0.480529     0.472395     0.464261     0.456128     0.447994
      0.439861     0.431727     0.423593     0.415460     0.407326     0.399192     0.391059     0.382925     0.374792     0.366658
      0.358524     0.350391     0.342257     0.334124     0.325990     0.317856     0.309723     0.301589     0.293455     0.285322
      0.277188     0.269055     0.260921     0.252787     0.244654     0.236520     0.228386     0.220253     0.212119     0.203986
 NY phased data points follow
  -6.71951E+01 -6.63500E+01 -6.38644E+01 -5.01105E+01 -6.69575E+01 -6.55220E+01 -5.36419E+01 -5.67572E+01 -5.00829E+01 -7.47203E+01
  -8.06659E+01 -8.14096E+01 -8.44722E+01 -8.06353E+01 -9.79438E+01 -1.05116E+02 -1.01044E+02 -9.64124E+01 -1.10482E+02 -1.32667E+02
  -1.39097E+02 -1.00868E+02 -7.06772E+01 -6.89473E+01 -2.48757E+01  2.94918E+00 -1.25414E+01 -3.49306E+01 -2.25805E+01 -1.42606E+01
  -2.02639E+01 -1.19684E+01 -2.49370E+01 -1.74959E+01 -3.11847E+01 -3.87530E+01 -2.77550E+01 -5.32035E+01 -6.76491E+01 -9.80570E+01
  -1.15565E+02 -1.05678E+02 -9.99688E+01 -8.02382E+01 -5.80935E+01 -3.11905E+01 -1.04999E+01 -4.70914E+00  1.41414E+01  1.43506E+01
  -1.75113E+00  5.70378E+00  1.33682E+00 -1.23525E+01 -2.55232E+01 -4.32865E+01 -4.52054E+01 -3.26608E+01 -5.94078E+01 -8.62605E+01
  -4.81407E+01 -4.54694E+01 -5.75541E+01 -1.30596E+01  8.71771E+00  3.65975E+00  1.05685E+01  2.46806E+00 -3.19286E+01 -9.08590E+01
  -9.10482E+01 -3.97941E+01 -5.89931E+01 -6.14115E+01 -1.07150E+01  9.76177E+00  5.61158E+00  1.79284E+01  2.56038E+01  1.20031E+01
   1.28463E+01  5.01416E+00 -4.43666E+00 -2.91477E+01 -5.56957E+01 -5.69773E+01 -5.16351E+01 -2.01782E+01 -2.82231E+00  6.60570E+00
   2.40509E+01  1.67437E+01  2.22168E+01  3.52724E+01  3.88030E+01  4.09259E+01  3.14620E+01  5.73407E+01  5.89618E+01  3.13872E+01
   3.68584E+01  2.08535E+01  9.10060E+00 -1.87706E+01 -4.48282E+01 -5.80144E+01 -7.55701E+01 -7.47607E+01 -9.24002E+01 -1.16120E+02
  -1.75839E+02 -1.92624E+02 -1.50708E+02 -1.27463E+02 -1.02312E+02 -9.51829E+01 -8.03617E+01 -6.32523E+01 -5.57009E+01 -5.62304E+01
  -3.97078E+01 -2.41597E+01 -2.63577E+01 -6.18093E+00 -1.15419E+01  1.67988E+00  1.74106E+01  2.44223E+01  6.87732E+01  8.31570E+01
   1.16330E+02  1.22659E+02 -5.66140E+00 -1.29883E+02 -1.46400E+02 -1.31399E+02 -1.19122E+02 -1.10085E+02 -1.09467E+02 -1.03108E+02
  -1.07665E+02 -1.04551E+02 -1.00062E+02 -9.69214E+01 -9.51915E+01 -9.96698E+01 -8.78906E+01 -9.31313E+01 -8.62175E+01 -7.65944E+01
  -8.14466E+01 -7.80501E+01 -7.64569E+01 -6.39117E+01 -6.89468E+01 -6.68519E+01 -6.05480E+01 -7.12645E+01 -6.81322E+01 -5.50636E+01
  -5.42973E+01 -6.37496E+01 -5.22544E+01 -5.03642E+01 -5.75615E+01 -6.01454E+01 -5.79251E+01 -4.68863E+01 -5.10625E+01 -4.19729E+01
  -2.28451E+01 -2.91571E+01 -2.57025E+01 -1.37859E+01 -2.92501E+01 -2.75900E+01 -1.17739E+01 -4.91286E+00 -1.54348E+01 -4.14655E+01
  -6.19010E+01 -7.79324E+01 -7.22139E+01 -8.09080E+01 -8.12616E+01 -7.50509E+01 -7.84652E+01 -7.04207E+01 -6.85834E+01 -5.24585E+01
  -6.97481E+01 -5.95864E+01 -3.94856E+01 -6.02701E+01 -3.09316E+01 -3.92547E+01 -5.60860E+01 -3.65862E+01 -4.09884E+01 -3.94349E+01
  -4.35760E+01 -4.61810E+01 -3.44309E+01 -9.64118E+00 -1.15711E+01 -4.75800E+01 -5.27405E+01 -4.76825E+01 -5.88622E+01 -7.66418E+01
  -7.84475E+01 -6.84526E+01 -5.81903E+01 -3.52093E+01 -2.40217E+01  2.03623E+00  2.91927E+01  1.60779E+01  1.01961E+01  1.96191E-01
  -2.17503E+01 -3.56923E+01 -4.11366E+01 -2.92778E+01 -3.24278E+01 -3.85519E+01 -3.33831E+01 -2.66087E+01 -2.64776E+01 -3.70935E+01
  -3.47863E+01 -5.01747E+01 -5.85914E+01 -6.81512E+01 -8.78322E+01 -7.53130E+01 -9.31619E+01 -1.10389E+02 -9.57423E+01 -9.78956E+01
  -1.00867E+02 -9.52317E+01 -9.50390E+01 -7.84572E+01 -5.72679E+01 -4.82215E+01 -4.81447E+01 -6.13498E+01 -6.49911E+01 -8.02718E+01
  -8.54779E+01 -8.96845E+01 -8.77929E+01 -9.44924E+01 -1.10937E+02 -1.11722E+02 -1.75244E+02 -7.46106E+01  1.53374E+02  1.96216E+02
   1.44079E+02  1.19130E+02  1.01702E+02  7.96962E+01  8.58915E+01  7.60908E+01  6.76774E+01  5.97272E+01  4.10158E+01  4.95180E+01
   3.96391E+01  3.01126E+01  3.38725E+01  4.76604E+01  4.65488E+01  4.05111E+01  5.11246E+01  5.35567E+01  4.50583E+01  4.62325E+01
   5.75953E+01  4.90540E+01  3.95097E+01  4.39557E+01  4.82042E+01  3.70452E+01  4.98533E+01  5.30209E+01  4.19308E+01  4.55865E+01
   3.62050E+01  3.64087E+01  3.04887E+01  3.20770E+01  3.02662E+01  2.96116E+01  2.75752E+01  3.31434E+01  3.40493E+01  2.42546E+01
   3.77824E+01  2.58230E+01  4.50264E+01  5.01524E+01  4.60173E+01  5.82918E+01  4.08964E+01  4.75457E+01  5.60799E+01  6.10789E+01
   5.47570E+01  6.20802E+01  6.47040E+01  6.11291E+01  5.58877E+01  3.24895E+01  3.59231E+01  2.27079E+01  1.38564E+01  3.24996E+01
   3.63705E+01  2.99178E+01  2.94281E+01  7.80409E+00 -1.20198E+01 -1.82545E+01 -3.47313E+01 -3.22065E+01 -3.67700E+01 -4.99162E+01
  -4.51657E+01 -4.04646E+01 -4.75047E+01 -3.69086E+01 -3.55107E+01 -3.26866E+01 -1.58939E+01 -2.33770E+01 -1.87157E+01 -8.40634E+00
   5.54869E-01 -5.67807E+00 -9.84494E+00 -1.72008E+01 -2.67749E+01 -2.13800E+01 -2.26585E+01 -6.89089E+00 -1.19831E+01 -9.16118E+00
  -4.30915E+00 -1.32776E+01 -5.19812E-01 -2.36348E+00 -1.38492E+01 -2.23148E+01 -2.76820E+01 -4.12393E+01 -5.20347E+01 -4.67825E+01
  -4.00771E+01 -4.13873E+01 -3.69368E+01 -3.60031E+01 -2.69711E+01 -1.27687E+01 -1.75643E+01 -7.88148E+00 -1.18618E+01 -8.46091E+00
   2.45093E+00  8.41567E+00  1.68710E+01  5.35808E+00  1.83564E+01  2.76140E+01  2.35058E+01  2.79777E+01  3.52113E+01  4.03689E+01
   5.01595E+01  6.59738E+01  6.01489E+01  6.61038E+01  8.17883E+01  9.23871E+01  9.77836E+01  9.45456E+01  1.07740E+02  1.15835E+02
   1.15877E+02  1.06996E+02  7.99371E+01  6.36601E+01  5.29005E+01  4.83055E+01  4.00908E+01  3.92129E+01  4.61444E+01  2.15368E+01
   1.38128E+00 -4.18027E+00 -3.27823E+00 -2.67325E+01 -4.28185E+01 -3.32346E+01 -5.00399E+01 -4.10747E+01 -3.70658E+01 -4.50354E+01
  -4.96853E+01 -4.75239E+01 -3.95824E+01 -5.42085E+01 -4.07963E+01 -3.73499E+01 -4.81025E+01 -4.73896E+01 -3.87238E+01 -4.70000E+01
  -5.16252E+01 -3.29408E+01 -4.59627E+01 -3.71926E+01 -3.44995E+01 -3.77425E+01 -4.36741E+01 -4.71943E+01 -2.68448E+01 -4.52628E+01
  -4.65704E+01 -4.18116E+01 -3.72497E+01 -4.39809E+01 -4.70648E+01 -3.87218E+01 -4.21884E+01 -2.73623E+01 -4.51466E+01 -2.87650E+01
  -3.76637E+01 -5.89724E+01 -3.20040E+01 -2.84503E+01 -2.41964E+01 -4.96303E+01 -3.42257E+01 -3.62185E+01 -4.74595E+01 -2.40226E+01
  -4.13746E+01 -3.30368E+01 -3.19767E+01 -2.61262E+01 -3.70021E+01 -4.66635E+01 -2.81721E+01 -3.51095E+01 -2.22082E+01 -2.41478E+01
  -4.08751E+01 -4.07831E+01 -3.30438E+01 -2.81556E+01 -3.74491E+01 -4.82872E+01 -3.04402E+01 -2.81947E+01 -4.57671E+01 -2.50801E+01
  -2.45005E+01 -3.89014E+01 -3.82872E+01 -3.16755E+01 -3.87473E+01 -4.07374E+01 -3.21100E+01 -3.15682E+01 -1.70973E+01 -3.07090E+01
 NY points of the fit to the data follow
  -7.06378E+01 -7.53046E+01 -8.28888E+01 -9.07901E+01 -9.04825E+01 -6.97693E+01 -4.20312E+01 -3.41904E+01 -4.74059E+01 -6.37238E+01
  -7.40617E+01 -7.92709E+01 -7.97403E+01 -7.75999E+01 -7.72297E+01 -8.02872E+01 -8.21628E+01 -9.10567E+01 -1.01686E+02 -1.17945E+02
  -1.32112E+02 -1.09931E+02 -6.98791E+01 -4.58671E+01 -2.40349E+01 -8.03014E+00 -8.05206E+00 -7.15967E+00 -2.39788E+00  1.63430E+00
   1.74643E+00 -1.32088E+00 -4.47351E+00 -8.07610E+00 -1.42728E+01 -2.29972E+01 -3.19858E+01 -4.29426E+01 -5.99442E+01 -8.48710E+01
  -1.09590E+02 -1.14230E+02 -9.51397E+01 -7.12913E+01 -5.28651E+01 -3.29581E+01 -1.31869E+01 -1.13590E+00  5.24228E+00  9.00675E+00
   7.48544E+00  3.28378E+00 -2.18031E+00 -1.39357E+01 -2.73150E+01 -3.71858E+01 -4.17990E+01 -4.12113E+01 -5.30821E+01 -6.84845E+01
  -5.69833E+01 -4.01878E+01 -3.52184E+01 -1.91062E+01  1.92562E+00  1.08487E+01  8.91836E+00 -4.54473E+00 -3.55000E+01 -7.26887E+01
  -8.03983E+01 -6.08124E+01 -4.93539E+01 -3.98223E+01 -1.65878E+01  4.65846E+00  1.34902E+01  1.65492E+01  1.61921E+01  1.62306E+01
   1.09390E+01 -2.01213E+00 -1.92930E+01 -4.13759E+01 -5.74939E+01 -5.76534E+01 -4.69681E+01 -2.85536E+01 -9.20885E+00  2.07196E+00
   9.21543E+00  1.49125E+01  2.02733E+01  2.55510E+01  3.03265E+01  3.61556E+01  4.07766E+01  4.33664E+01  4.18528E+01  3.56674E+01
   3.22435E+01  3.40425E+01  1.94145E+01 -2.61328E+00 -2.25316E+01 -4.94242E+01 -6.72713E+01 -6.62558E+01 -7.19469E+01 -1.13003E+02
  -1.67614E+02 -1.78228E+02 -1.44194E+02 -1.12056E+02 -9.21428E+01 -7.95774E+01 -7.12599E+01 -6.34751E+01 -5.56906E+01 -4.81539E+01
  -4.08950E+01 -3.31977E+01 -2.46696E+01 -1.48348E+01 -3.22471E+00  1.15603E+01  2.89572E+01  3.94703E+01  5.93281E+01  8.31160E+01
   1.07594E+02  1.00142E+02 -2.65444E+00 -1.25674E+02 -1.53613E+02 -1.29826E+02 -1.15505E+02 -1.05614E+02 -1.01850E+02 -1.02031E+02
  -1.02785E+02 -1.02969E+02 -1.03670E+02 -1.03568E+02 -1.03241E+02 -1.03042E+02 -1.00995E+02 -9.74979E+01 -9.39322E+01 -9.04560E+01
  -8.71488E+01 -8.40300E+01 -8.15120E+01 -7.92124E+01 -7.56936E+01 -7.08922E+01 -6.72753E+01 -6.73202E+01 -6.89124E+01 -6.78924E+01
  -6.31920E+01 -5.76699E+01 -5.73540E+01 -6.34460E+01 -6.86569E+01 -6.82155E+01 -6.40410E+01 -6.08623E+01 -6.13565E+01 -6.12589E+01
  -5.27468E+01 -3.34551E+01 -1.61520E+01 -1.85715E+01 -3.46287E+01 -3.82021E+01 -2.41063E+01 -1.33363E+01 -2.28858E+01 -4.54804E+01
  -6.18418E+01 -6.74135E+01 -7.05402E+01 -7.36115E+01 -7.54399E+01 -7.62545E+01 -7.58962E+01 -7.52193E+01 -7.35227E+01 -7.05468E+01
  -6.88261E+01 -6.54123E+01 -6.22696E+01 -5.74080E+01 -4.28735E+01 -3.78642E+01 -4.47816E+01 -4.12742E+01 -3.40691E+01 -3.34976E+01
  -3.68784E+01 -3.85945E+01 -3.05496E+01 -2.30584E+01 -2.71750E+01 -3.56912E+01 -4.32254E+01 -4.98512E+01 -5.96638E+01 -6.98977E+01
  -7.36298E+01 -7.51873E+01 -6.61135E+01 -5.14737E+01 -3.37239E+01 -4.20885E+00  1.67511E+01  1.87957E+01  1.52868E+01  1.55090E+00
  -1.57784E+01 -2.16828E+01 -2.18491E+01 -1.84557E+01 -1.40568E+01 -1.28928E+01 -1.49369E+01 -2.04503E+01 -3.01021E+01 -4.19439E+01
  -5.40711E+01 -6.67928E+01 -7.92450E+01 -8.91784E+01 -9.88736E+01 -1.07679E+02 -1.11409E+02 -1.13377E+02 -1.13447E+02 -1.07878E+02
  -1.02652E+02 -9.61743E+01 -8.49606E+01 -7.44240E+01 -6.37487E+01 -5.63539E+01 -5.52440E+01 -6.03990E+01 -6.82544E+01 -7.48116E+01
  -8.48326E+01 -1.00883E+02 -1.00889E+02 -1.04552E+02 -1.07165E+02 -1.38533E+02 -1.72283E+02 -6.44409E+01  1.13628E+02  1.68686E+02
   1.38794E+02  1.12949E+02  9.06522E+01  7.99122E+01  7.40827E+01  6.99647E+01  6.53821E+01  6.04013E+01  5.58976E+01  5.21783E+01
   5.02970E+01  4.98051E+01  5.04035E+01  5.18533E+01  5.31737E+01  5.41154E+01  5.44318E+01  5.36194E+01  5.28398E+01  5.19343E+01
   5.02966E+01  4.81388E+01  4.56597E+01  4.35627E+01  4.17840E+01  3.95287E+01  3.69482E+01  3.45997E+01  3.19541E+01  2.89277E+01
   2.53627E+01  2.13021E+01  1.73766E+01  1.35412E+01  9.95633E+00  7.75879E+00  7.45129E+00  8.81742E+00  1.14797E+01  1.45824E+01
   1.74874E+01  2.04772E+01  2.38539E+01  2.72028E+01  3.02167E+01  3.28918E+01  3.53890E+01  3.78303E+01  4.07811E+01  4.43406E+01
   4.76702E+01  5.04128E+01  5.27793E+01  5.50210E+01  5.75847E+01  5.99233E+01  6.15492E+01  6.25849E+01  6.19671E+01  6.24854E+01
   6.00056E+01  5.63706E+01  4.15857E+01  1.13946E+01 -1.37332E+01 -2.94337E+01 -3.82087E+01 -3.25091E+01 -2.54374E+01 -2.81804E+01
  -3.30208E+01 -3.83359E+01 -4.22794E+01 -4.35406E+01 -4.17393E+01 -3.68139E+01 -2.97793E+01 -2.28520E+01 -1.53213E+01 -9.83605E+00
  -5.04026E+00 -6.67272E+00 -1.73905E+01 -2.69949E+01 -3.31103E+01 -3.43457E+01 -2.60144E+01 -1.69927E+01 -1.32559E+01 -1.10381E+01
  -1.08137E+01 -1.20357E+01 -1.45454E+01 -1.80582E+01 -2.27107E+01 -2.74809E+01 -3.03523E+01 -3.11954E+01 -3.06376E+01 -2.85652E+01
  -2.55768E+01 -2.19703E+01 -1.78626E+01 -1.37145E+01 -9.40944E+00 -5.36322E+00 -1.86690E+00  1.44793E+00  4.56782E+00  7.89185E+00
   1.15656E+01  1.51070E+01  1.85078E+01  2.21838E+01  2.62026E+01  3.09767E+01  3.66323E+01  4.23705E+01  4.85003E+01  5.59684E+01
   6.39346E+01  7.14969E+01  7.94884E+01  8.81737E+01  9.62431E+01  1.02824E+02  1.06987E+02  1.07264E+02  1.02585E+02  9.29495E+01
   8.01148E+01  6.73059E+01  5.66093E+01  4.79781E+01  4.07794E+01  3.44967E+01  2.79066E+01  1.93294E+01  9.44468E+00 -5.15511E-01
  -1.00400E+01 -1.82203E+01 -2.40792E+01 -2.81559E+01 -3.13214E+01 -3.36244E+01 -3.49608E+01 -3.58041E+01 -3.67012E+01 -3.77642E+01
  -3.88479E+01 -3.95826E+01 -3.97621E+01 -3.95612E+01 -3.95222E+01 -3.96324E+01 -3.94557E+01 -3.91050E+01 -3.92476E+01 -3.96651E+01
  -3.92702E+01 -3.84271E+01 -3.83258E+01 -3.86107E+01 -3.84118E+01 -3.79887E+01 -3.78764E+01 -3.80605E+01 -3.79527E+01 -3.72713E+01
  -3.66444E+01 -3.63759E+01 -3.64439E+01 -3.65873E+01 -3.66525E+01 -3.65218E+01 -3.61054E+01 -3.55613E+01 -3.50910E+01 -3.46997E+01
  -3.44494E+01 -3.43504E+01 -3.40779E+01 -3.38431E+01 -3.39853E+01 -3.41715E+01 -3.41091E+01 -3.38270E+01 -3.33490E+01 -3.30147E+01
  -3.27689E+01 -3.26030E+01 -3.26905E+01 -3.25499E+01 -3.20313E+01 -3.16188E+01 -3.12582E+01 -3.09743E+01 -3.08304E+01 -3.06442E+01
  -3.03856E+01 -3.01293E+01 -3.00577E+01 -3.02549E+01 -3.02547E+01 -3.00702E+01 -2.98840E+01 -2.94885E+01 -2.87623E+01 -2.80685E+01
  -2.78505E+01 -2.81320E+01 -2.85744E+01 -2.87967E+01 -2.85924E+01 -2.83154E+01 -2.81867E+01 -2.79247E+01 -2.75896E+01 -2.77208E+01
 NY background values follow
    -3.065E+01   -3.063E+01   -3.060E+01   -3.058E+01   -3.056E+01   -3.054E+01   -3.051E+01   -3.049E+01   -3.047E+01   -3.045E+01
    -3.042E+01   -3.040E+01   -3.038E+01   -3.036E+01   -3.034E+01   -3.031E+01   -3.029E+01   -3.027E+01   -3.025E+01   -3.022E+01
    -3.020E+01   -3.018E+01   -3.016E+01   -3.013E+01   -3.011E+01   -3.009E+01   -3.007E+01   -3.004E+01   -3.002E+01   -3.000E+01
    -2.998E+01   -2.995E+01   -2.993E+01   -2.991E+01   -2.989E+01   -2.987E+01   -2.984E+01   -2.982E+01   -2.980E+01   -2.978E+01
    -2.975E+01   -2.973E+01   -2.971E+01   -2.969E+01   -2.966E+01   -2.964E+01   -2.962E+01   -2.960E+01   -2.957E+01   -2.955E+01
    -2.953E+01   -2.951E+01   -2.948E+01   -2.946E+01   -2.944E+01   -2.942E+01   -2.940E+01   -2.937E+01   -2.935E+01   -2.933E+01
    -2.931E+01   -2.928E+01   -2.926E+01   -2.924E+01   -2.922E+01   -2.919E+01   -2.917E+01   -2.915E+01   -2.913E+01   -2.910E+01
    -2.908E+01   -2.906E+01   -2.904E+01   -2.901E+01   -2.899E+01   -2.897E+01   -2.895E+01   -2.893E+01   -2.890E+01   -2.888E+01
    -2.886E+01   -2.884E+01   -2.881E+01   -2.879E+01   -2.877E+01   -2.875E+01   -2.872E+01   -2.870E+01   -2.868E+01   -2.866E+01
    -2.863E+01   -2.861E+01   -2.859E+01   -2.857E+01   -2.855E+01   -2.852E+01   -2.850E+01   -2.848E+01   -2.846E+01   -2.843E+01
    -2.841E+01   -2.839E+01   -2.837E+01   -2.834E+01   -2.832E+01   -2.830E+01   -2.828E+01   -2.825E+01   -2.823E+01   -2.821E+01
    -2.819E+01   -2.816E+01   -2.814E+01   -2.812E+01   -2.810E+01   -2.808E+01   -2.805E+01   -2.803E+01   -2.801E+01   -2.799E+01
    -2.796E+01   -2.794E+01   -2.792E+01   -2.790E+01   -2.787E+01   -2.785E+01   -2.783E+01   -2.781E+01   -2.779E+01   -2.776E+01
    -2.774E+01   -2.772E+01   -2.770E+01   -2.767E+01   -2.765E+01   -2.763E+01   -2.761E+01   -2.758E+01   -2.756E+01   -2.754E+01
    -2.752E+01   -2.749E+01   -2.747E+01   -2.745E+01   -2.743E+01   -2.741E+01   -2.738E+01   -2.736E+01   -2.734E+01   -2.732E+01
    -2.729E+01   -2.727E+01   -2.725E+01   -2.723E+01   -2.720E+01   -2.718E+01   -2.716E+01   -2.714E+01   -2.712E+01   -2.709E+01
    -2.707E+01   -2.705E+01   -2.703E+01   -2.700E+01   -2.698E+01   -2.696E+01   -2.694E+01   -2.692E+01   -2.689E+01   -2.687E+01
    -2.685E+01   -2.683E+01   -2.680E+01   -2.678E+01   -2.676E+01   -2.674E+01   -2.671E+01   -2.669E+01   -2.667E+01   -2.665E+01
    -2.663E+01   -2.660E+01   -2.658E+01   -2.656E+01   -2.654E+01   -2.651E+01   -2.649E+01   -2.647E+01   -2.645E+01   -2.643E+01
    -2.640E+01   -2.638E+01   -2.636E+01   -2.634E+01   -2.631E+01   -2.629E+01   -2.627E+01   -2.625E+01   -2.623E+01   -2.620E+01
    -2.618E+01   -2.616E+01   -2.614E+01   -2.611E+01   -2.609E+01   -2.607E+01   -2.605E+01   -2.603E+01   -2.600E+01   -2.598E+01
    -2.596E+01   -2.594E+01   -2.591E+01   -2.589E+01   -2.587E+01   -2.585E+01   -2.583E+01   -2.580E+01   -2.578E+01   -2.576E+01
    -2.574E+01   -2.571E+01   -2.569E+01   -2.567E+01   -2.565E+01   -2.563E+01   -2.560E+01   -2.558E+01   -2.556E+01   -2.554E+01
    -2.551E+01   -2.549E+01   -2.547E+01   -2.545E+01   -2.543E+01   -2.540E+01   -2.538E+01   -2.536E+01   -2.534E+01   -2.532E+01
    -2.529E+01   -2.527E+01   -2.525E+01   -2.523E+01   -2.520E+01   -2.518E+01   -2.516E+01   -2.514E+01   -2.512E+01   -2.509E+01
    -2.507E+01   -2.505E+01   -2.503E+01   -2.501E+01   -2.498E+01   -2.496E+01   -2.494E+01   -2.492E+01   -2.489E+01   -2.487E+01
    -2.485E+01   -2.483E+01   -2.481E+01   -2.478E+01   -2.476E+01   -2.474E+01   -2.472E+01   -2.470E+01   -2.467E+01   -2.465E+01
    -2.463E+01   -2.461E+01   -2.459E+01   -2.456E+01   -2.454E+01   -2.452E+01   -2.450E+01   -2.448E+01   -2.445E+01   -2.443E+01
    -2.441E+01   -2.439E+01   -2.436E+01   -2.434E+01   -2.432E+01   -2.430E+01   -2.428E+01   -2.425E+01   -2.423E+01   -2.421E+01
    -2.419E+01   -2.417E+01   -2.414E+01   -2.412E+01   -2.410E+01   -2.408E+01   -2.406E+01   -2.403E+01   -2.401E+01   -2.399E+01
    -2.397E+01   -2.395E+01   -2.392E+01   -2.390E+01   -2.388E+01   -2.386E+01   -2.384E+01   -2.381E+01   -2.379E+01   -2.377E+01
    -2.375E+01   -2.373E+01   -2.370E+01   -2.368E+01   -2.366E+01   -2.364E+01   -2.362E+01   -2.359E+01   -2.357E+01   -2.355E+01
    -2.353E+01   -2.351E+01   -2.348E+01   -2.346E+01   -2.344E+01   -2.342E+01   -2.339E+01   -2.337E+01   -2.335E+01   -2.333E+01
    -2.331E+01   -2.328E+01   -2.326E+01   -2.324E+01   -2.322E+01   -2.320E+01   -2.317E+01   -2.315E+01   -2.313E+01   -2.311E+01
    -2.309E+01   -2.306E+01   -2.304E+01   -2.302E+01   -2.300E+01   -2.298E+01   -2.295E+01   -2.293E+01   -2.291E+01   -2.289E+01
    -2.287E+01   -2.284E+01   -2.282E+01   -2.280E+01   -2.278E+01   -2.276E+01   -2.274E+01   -2.271E+01   -2.269E+01   -2.267E+01
    -2.265E+01   -2.262E+01   -2.260E+01   -2.258E+01   -2.256E+01   -2.254E+01   -2.252E+01   -2.249E+01   -2.247E+01   -2.245E+01
    -2.243E+01   -2.241E+01   -2.238E+01   -2.236E+01   -2.234E+01   -2.232E+01   -2.230E+01   -2.227E+01   -2.225E+01   -2.223E+01
    -2.221E+01   -2.219E+01   -2.216E+01   -2.214E+01   -2.212E+01   -2.210E+01   -2.208E+01   -2.205E+01   -2.203E+01   -2.201E+01
    -2.199E+01   -2.197E+01   -2.194E+01   -2.192E+01   -2.190E+01   -2.188E+01   -2.186E+01   -2.183E+01   -2.181E+01   -2.179E+01
    -2.177E+01   -2.175E+01   -2.172E+01   -2.170E+01   -2.168E+01   -2.166E+01   -2.164E+01   -2.161E+01   -2.159E+01   -2.157E+01
    -2.155E+01   -2.153E+01   -2.150E+01   -2.148E+01   -2.146E+01   -2.144E+01   -2.142E+01   -2.140E+01   -2.137E+01   -2.135E+01
    -2.133E+01   -2.131E+01   -2.129E+01   -2.126E+01   -2.124E+01   -2.122E+01   -2.120E+01   -2.118E+01   -2.115E+01   -2.113E+01
    -2.111E+01   -2.109E+01   -2.107E+01   -2.104E+01   -2.102E+01   -2.100E+01   -2.098E+01   -2.096E+01   -2.093E+01   -2.091E+01
    -2.089E+01   -2.087E+01   -2.085E+01   -2.082E+01   -2.080E+01   -2.078E+01   -2.076E+01   -2.074E+01   -2.071E+01   -2.069E+01
    -2.067E+01   -2.065E+01   -2.063E+01   -2.060E+01   -2.058E+01   -2.056E+01   -2.054E+01   -2.052E+01   -2.050E+01   -2.047E+01
    -2.045E+01   -2.043E+01   -2.041E+01   -2.039E+01   -2.036E+01   -2.034E+01   -2.032E+01   -2.030E+01   -2.028E+01   -2.025E+01
    -2.023E+01   -2.021E+01   -2.019E+01   -2.017E+01   -2.014E+01   -2.012E+01   -2.010E+01   -2.008E+01   -2.006E+01   -2.003E+01
 Mac      Conc. = 3.07E-04
  -5.19984E+01 -5.28500E+01 -5.31946E+01 -5.33347E+01 -5.36965E+01 -5.45037E+01 -5.58047E+01 -5.76960E+01 -5.98298E+01 -6.17533E+01
  -6.30615E+01 -6.35147E+01 -6.35418E+01 -6.33488E+01 -6.34929E+01 -6.49754E+01 -6.72789E+01 -6.83916E+01 -6.56184E+01 -5.92958E+01
  -5.38737E+01 -5.02378E+01 -4.65408E+01 -4.36112E+01 -4.23933E+01 -4.17259E+01 -4.05506E+01 -3.88506E+01 -3.68297E+01 -3.45517E+01
  -3.24955E+01 -3.12720E+01 -3.04294E+01 -2.95848E+01 -2.92871E+01 -2.98207E+01 -3.03103E+01 -2.94266E+01 -2.66851E+01 -2.33029E+01
  -2.14523E+01 -2.18773E+01 -2.27275E+01 -2.24286E+01 -2.09917E+01 -1.91884E+01 -1.81427E+01 -1.83203E+01 -1.92334E+01 -2.04772E+01
  -2.21466E+01 -2.38183E+01 -2.47495E+01 -2.52648E+01 -2.58308E+01 -2.60613E+01 -2.59250E+01 -2.51254E+01 -2.33828E+01 -2.16766E+01
  -2.06819E+01 -1.93495E+01 -1.79032E+01 -1.76422E+01 -1.84576E+01 -1.97144E+01 -2.08836E+01 -2.13065E+01 -2.13133E+01 -2.15523E+01
  -2.14300E+01 -1.97512E+01 -1.64275E+01 -1.35248E+01 -1.20068E+01 -1.12742E+01 -1.13609E+01 -1.21289E+01 -1.31115E+01 -1.41568E+01
  -1.48379E+01 -1.50830E+01 -1.54325E+01 -1.53573E+01 -1.45576E+01 -1.33833E+01 -1.23222E+01 -1.14793E+01 -1.06450E+01 -9.95370E+00
  -9.57856E+00 -9.18491E+00 -8.89174E+00 -9.03239E+00 -9.32064E+00 -1.02656E+01 -1.23370E+01 -1.51179E+01 -1.81170E+01 -2.09905E+01
  -2.31765E+01 -2.49209E+01 -2.74732E+01 -3.08794E+01 -3.47699E+01 -3.97088E+01 -4.61695E+01 -5.37913E+01 -6.02526E+01 -6.32057E+01
