 LCModel (Version 6.3-1N) Copyright: S.W. Provencher.          Ref.: Magn. Reson. Med. 30:672-679 (1993).                
 Slice_N1@16_23  28-Feb-2025 11:40:11
 27 lines in following concentration table = NCONC+1
    Conc.  %SD /Cr+PCr  Metabolite                                         
 2.41E-04   4% 2.0E-04 Mac                                                 
    8.325  36%   6.951 Cr                                                  
    1.257 240%   1.049 PCr                                                 
    6.124  17%   5.113 Ins                                                 
   11.332   9%   9.461 NAA                                                 
    5.256  21%   4.389 Tau                                                 
    0.000 999%   0.000 PCho                                                
    1.495  25%   1.248 GPC                                                 
    8.500  13%   7.097 Glu                                                 
    6.272  16%   5.237 Gln                                                 
   10.977   8%   9.165 Ala                                                 
    3.318  46%   2.770 Asc                                                 
    3.480  31%   2.906 Asp                                                 
    1.353  46%   1.130 GABA                                                
    0.595 130%   0.497 Glc                                                 
    1.095  58%   0.914 GSH                                                 
    3.032  27%   2.531 Lac                                                 
    4.396  18%   3.671 NAAG                                                
    2.840  53%   2.371 PE                                                  
    1.495  25%   1.248 GPC+PCho                                            
   15.728   6%  13.132 NAA+NAAG                                            
   14.772  10%  12.334 Glu+Gln                                             
    9.581   8%   8.000 Cr+PCr                                              
   15.728   6%  13.132 NAA+NAAG                                            
    9.581   8%   8.000 Cr+PCr                                              
   14.772  10%  12.334 Glu+Gln                                             
   6 lines in following misc. output table
  FWHM = 0.065 ppm    S/N =   3                                            
  Data shift = 0.008 ppm                                                   
  Ph: -44 deg       0.0 deg/ppm                                            
  alphaB,S = 3.1E+01,   2.6E+01                                            
   19 spline knots.   Ns = 7(1)                                            
   1 inflections.     3 extrema                                            
  480 points on ppm-axis = NY
      4.100000     4.091866     4.083733     4.075600     4.067466     4.059333     4.051199     4.043066     4.034933     4.026799
      4.018666     4.010532     4.002399     3.994265     3.986132     3.977998     3.969864     3.961731     3.953597     3.945463
      3.937330     3.929196     3.921062     3.912929     3.904795     3.896662     3.888528     3.880394     3.872261     3.864127
      3.855993     3.847860     3.839726     3.831592     3.823459     3.815325     3.807191     3.799058     3.790924     3.782790
      3.774657     3.766523     3.758389     3.750256     3.742122     3.733989     3.725855     3.717721     3.709588     3.701454
      3.693320     3.685187     3.677053     3.668919     3.660786     3.652652     3.644518     3.636385     3.628251     3.620117
      3.611984     3.603850     3.595716     3.587583     3.579449     3.571316     3.563182     3.555048     3.546915     3.538781
      3.530647     3.522514     3.514380     3.506246     3.498113     3.489979     3.481845     3.473712     3.465578     3.457444
      3.449311     3.441177     3.433043     3.424910     3.416776     3.408643     3.400509     3.392375     3.384242     3.376108
      3.367974     3.359841     3.351707     3.343573     3.335440     3.327306     3.319172     3.311039     3.302905     3.294771
      3.286638     3.278504     3.270370     3.262237     3.254103     3.245970     3.237836     3.229702     3.221569     3.213435
      3.205301     3.197168     3.189034     3.180900     3.172767     3.164633     3.156499     3.148366     3.140232     3.132098
      3.123965     3.115831     3.107697     3.099564     3.091430     3.083297     3.075163     3.067029     3.058896     3.050762
      3.042628     3.034495     3.026361     3.018227     3.010094     3.001960     2.993826     2.985693     2.977559     2.969425
      2.961292     2.953158     2.945024     2.936891     2.928757     2.920624     2.912490     2.904356     2.896223     2.888089
      2.879955     2.871822     2.863688     2.855554     2.847421     2.839287     2.831153     2.823020     2.814886     2.806752
      2.798619     2.790485     2.782351     2.774218     2.766084     2.757951     2.749817     2.741683     2.733550     2.725416
      2.717282     2.709149     2.701015     2.692881     2.684748     2.676614     2.668480     2.660347     2.652213     2.644079
      2.635946     2.627812     2.619678     2.611545     2.603411     2.595278     2.587144     2.579010     2.570877     2.562743
      2.554609     2.546476     2.538342     2.530208     2.522075     2.513941     2.505807     2.497674     2.489540     2.481406
      2.473273     2.465139     2.457006     2.448872     2.440738     2.432605     2.424471     2.416337     2.408204     2.400070
      2.391936     2.383803     2.375669     2.367535     2.359402     2.351268     2.343134     2.335001     2.326867     2.318733
      2.310600     2.302466     2.294333     2.286199     2.278065     2.269932     2.261798     2.253664     2.245531     2.237397
      2.229263     2.221130     2.212996     2.204862     2.196729     2.188595     2.180461     2.172328     2.164194     2.156060
      2.147927     2.139793     2.131660     2.123526     2.115392     2.107259     2.099125     2.090991     2.082858     2.074724
      2.066590     2.058457     2.050323     2.042189     2.034056     2.025922     2.017788     2.009655     2.001521     1.993387
      1.985254     1.977120     1.968987     1.960853     1.952719     1.944586     1.936452     1.928318     1.920185     1.912051
      1.903917     1.895784     1.887650     1.879516     1.871383     1.863249     1.855115     1.846982     1.838848     1.830714
      1.822581     1.814447     1.806314     1.798180     1.790046     1.781913     1.773779     1.765645     1.757512     1.749378
      1.741244     1.733111     1.724977     1.716843     1.708710     1.700576     1.692442     1.684309     1.676175     1.668041
      1.659908     1.651774     1.643641     1.635507     1.627373     1.619240     1.611106     1.602972     1.594839     1.586705
      1.578571     1.570438     1.562304     1.554170     1.546037     1.537903     1.529769     1.521636     1.513502     1.505368
      1.497235     1.489101     1.480968     1.472834     1.464700     1.456567     1.448433     1.440299     1.432166     1.424032
      1.415898     1.407765     1.399631     1.391497     1.383364     1.375230     1.367096     1.358963     1.350829     1.342695
      1.334562     1.326428     1.318295     1.310161     1.302027     1.293894     1.285760     1.277626     1.269493     1.261359
      1.253225     1.245092     1.236958     1.228824     1.220691     1.212557     1.204423     1.196290     1.188156     1.180022
      1.171889     1.163755     1.155622     1.147488     1.139354     1.131221     1.123087     1.114953     1.106820     1.098686
      1.090552     1.082419     1.074285     1.066151     1.058018     1.049884     1.041750     1.033617     1.025483     1.017349
      1.009216     1.001082     0.992949     0.984815     0.976681     0.968548     0.960414     0.952280     0.944147     0.936013
      0.927879     0.919746     0.911612     0.903478     0.895345     0.887211     0.879077     0.870944     0.862810     0.854676
      0.846543     0.838409     0.830276     0.822142     0.814008     0.805875     0.797741     0.789607     0.781474     0.773340
      0.765206     0.757073     0.748939     0.740805     0.732672     0.724538     0.716404     0.708271     0.700137     0.692003
      0.683870     0.675736     0.667603     0.659469     0.651335     0.643202     0.635068     0.626934     0.618801     0.610667
      0.602533     0.594400     0.586266     0.578132     0.569999     0.561865     0.553731     0.545598     0.537464     0.529330
      0.521197     0.513063     0.504930     0.496796     0.488662     0.480529     0.472395     0.464261     0.456128     0.447994
      0.439861     0.431727     0.423593     0.415460     0.407326     0.399192     0.391059     0.382925     0.374792     0.366658
      0.358524     0.350391     0.342257     0.334124     0.325990     0.317856     0.309723     0.301589     0.293455     0.285322
      0.277188     0.269055     0.260921     0.252787     0.244654     0.236520     0.228386     0.220253     0.212119     0.203986
 NY phased data points follow
   3.58407E+01  2.23893E+01  3.34937E+01  1.51714E+01  1.20818E+01  2.88180E+01  2.13219E+01  1.58177E+01  1.81170E+01  1.86346E+01
  -4.38148E-01 -6.33784E+00  1.08986E+01  1.26167E+01  3.84178E+00 -3.62623E+00 -2.16230E+01 -1.13751E+01 -3.24667E+00 -2.40741E+01
  -1.63270E+01  9.72171E+00  2.27649E+01  3.18482E+01  4.79231E+01  5.41375E+01  6.05725E+01  4.28126E+01  3.71902E+01  5.15585E+01
   4.91753E+01  5.96812E+01  4.87519E+01  4.19045E+01  2.81280E+01  3.04711E+01  3.67591E+01  1.98084E+01  1.09641E+01 -1.36352E+01
   1.51235E+01  2.66143E+01  1.86955E+01  4.47388E+01  5.76264E+01  6.83954E+01  7.70983E+01  8.28970E+01  7.46514E+01  9.11560E+01
   7.61161E+01  5.61297E+01  6.78156E+01  4.75881E+01  4.63886E+01  5.16651E+01  4.88655E+01  4.70622E+01  5.44190E+01  5.00978E+01
   5.61873E+01  7.48683E+01  6.09816E+01  6.51046E+01  7.15726E+01  7.69566E+01  6.13707E+01  4.90293E+01  5.87822E+01  4.45041E+01
   4.74127E+01  4.77680E+01  6.31289E+01  6.72426E+01  6.28473E+01  9.48685E+01  8.51535E+01  7.60080E+01  8.26447E+01  8.00452E+01
   6.76365E+01  5.13621E+01  5.85478E+01  5.63030E+01  5.62375E+01  5.54422E+01  6.45188E+01  7.60472E+01  8.23495E+01  9.43232E+01
   8.72402E+01  9.61167E+01  1.03023E+02  1.10214E+02  1.10147E+02  1.04961E+02  1.15307E+02  1.08411E+02  1.08807E+02  9.53099E+01
   8.41247E+01  6.82108E+01  5.11897E+01  5.99840E+01  3.76432E+01  3.26551E+01  3.25923E+01  1.51274E+01  9.70046E+00 -8.92572E+00
  -1.87929E+01 -2.31635E+01 -1.64079E+01  4.76754E+00  6.72849E+00  1.44078E+01  3.09873E+01  2.95944E+01  3.72275E+01  5.11553E+01
   5.67372E+01  6.66603E+01  7.08747E+01  7.92897E+01  8.98379E+01  1.07861E+02  1.16432E+02  1.17179E+02  1.24233E+02  9.97900E+01
   9.34447E+01  6.59917E+01  1.69628E+01  1.01574E+00 -2.37277E+01 -2.14006E+01 -1.98570E+01 -2.17146E+01 -1.95121E+01 -1.99584E+01
  -5.83870E+00 -7.07601E+00 -1.22618E+01 -4.74554E+00  2.71126E+00  6.03997E+00  1.90507E+01 -1.16490E+01 -3.70230E+00  1.09368E+01
  -1.67135E+01  2.27932E+01  1.47874E+01  1.18318E+01  2.00231E+01  1.45867E+01  3.10134E+01  4.74203E+00  1.30162E+01  2.69494E+01
   3.20909E+01  2.83018E+01  2.34967E+01  2.54862E+01  8.75117E+00  2.56419E+01  3.68827E+01  2.60071E+01  3.27550E+01  5.77726E+01
   6.07535E+01  5.29140E+01  5.29805E+01  4.76494E+01  4.26650E+01  3.37456E+01  2.97545E+01  3.10591E+01  2.58565E+01  1.61091E+01
   9.28131E-01 -2.26544E+01 -8.10550E+00 -7.01623E+00 -1.19938E+01  1.16621E+01 -8.43663E+00 -8.43084E+00  2.66727E+00  1.83722E+00
   6.78103E+00  1.02230E+01  2.71974E+01  1.80292E+01  9.70018E+00  2.97799E+01  4.30812E+01  3.28560E+01  3.11680E+01  3.90630E+01
   4.10998E+01  5.06646E+01  4.13339E+01  3.16791E+01  3.77813E+01  2.84552E+01  1.68780E+01  9.97061E+00  1.37388E+01  2.45671E+01
   1.83482E+01  2.91240E+01  4.82541E+01  4.68698E+01  5.04249E+01  5.42081E+01  5.60063E+01  6.14122E+01  5.61067E+01  3.70702E+01
   1.92785E+01  2.12493E+01  2.70313E+01  2.30289E+01  1.42794E+01  1.17268E+01  2.91390E+01  2.44623E+01  1.07807E+01  7.62623E+00
   9.79232E+00  3.08457E+00 -2.35964E+01 -7.71246E+00 -1.47835E+01 -2.84244E+01 -2.39841E+01 -4.27106E+01 -3.78754E+01 -3.58798E+01
  -2.08801E+01 -1.69175E+01 -1.74441E+01 -2.26767E+00  3.31108E+00 -4.96196E+00 -8.43781E+00  6.35000E+00 -1.69679E+01 -1.86463E+01
  -2.39071E+01 -3.97195E+01 -3.27392E+01 -3.07131E+01  5.52393E+00  3.26114E+01  6.97286E+01  1.12893E+02  1.28706E+02  1.49691E+02
   1.66984E+02  1.61082E+02  1.32236E+02  1.23894E+02  1.30091E+02  1.11702E+02  1.01163E+02  1.06401E+02  9.99188E+01  1.06868E+02
   1.02812E+02  8.88813E+01  9.56256E+01  9.65228E+01  8.79397E+01  9.45817E+01  1.13096E+02  1.06141E+02  1.02780E+02  1.03542E+02
   1.00443E+02  1.02166E+02  9.09122E+01  8.74360E+01  9.53218E+01  1.02505E+02  8.52909E+01  7.47896E+01  9.29443E+01  9.41313E+01
   8.56050E+01  8.32509E+01  7.66335E+01  8.10443E+01  8.39793E+01  6.47124E+01  6.72814E+01  8.90457E+01  9.88811E+01  1.02477E+02
   1.06363E+02  1.26649E+02  1.38791E+02  1.36503E+02  1.49234E+02  1.52623E+02  1.68108E+02  1.93688E+02  1.83584E+02  1.67064E+02
   1.57807E+02  1.37345E+02  1.08140E+02  1.02126E+02  8.92829E+01  6.93077E+01  5.00628E+01  2.96851E+01  3.76498E+01  2.94633E+01
   3.01444E+01  1.78389E+01  1.42142E+01  2.59719E+01  6.79501E+00  2.62123E+01  2.39844E+01  3.18630E+01  5.42211E+01  2.80634E+01
   2.74764E+01  2.39038E+01  1.27568E+01  2.95238E+01  3.04243E+01  2.67379E+01  2.91247E+01  1.00988E+01  2.08552E+01  3.54024E+01
   2.92205E+01  3.76890E+01  1.62591E+01  6.41023E+00  2.93454E+01  2.75398E+01  4.00650E+01  5.25958E+01  3.69933E+01  4.82866E+01
   4.66166E+01  3.81670E+01  4.59425E+01  4.67122E+01  4.28985E+01  2.95789E+01  2.61843E+01  1.97220E+01  2.84779E+01  2.13357E+01
   2.19059E+01  3.30282E+01  1.74438E+01  2.78423E+01  2.39418E+01  4.45633E+01  4.26203E+01  3.47630E+01  5.85936E+01  3.71776E+01
   5.15985E+01  5.50113E+01  6.23784E+01  8.19119E+01  7.78124E+01  9.01154E+01  7.97655E+01  8.64860E+01  8.68590E+01  9.30279E+01
   1.16482E+02  1.08863E+02  1.11901E+02  1.13048E+02  1.26314E+02  1.29794E+02  1.18802E+02  1.42842E+02  1.38696E+02  1.24034E+02
   1.22049E+02  1.04077E+02  9.66103E+01  9.12865E+01  8.29349E+01  7.36503E+01  7.70489E+01  8.00303E+01  5.65048E+01  4.59210E+01
   5.48241E+01  4.28242E+01  2.59966E+01  3.96796E+01  4.21937E+01  2.74132E+01  2.13499E+01  1.78651E+01  3.38136E+00  2.57874E+00
   2.59604E+01  1.79516E+01  6.28845E+00  3.73725E+00  1.17566E+01  1.27476E+01 -1.63060E-01  2.04973E+01  2.60071E+01  2.63676E+01
   2.92712E+01  2.46909E+01  1.53059E+01  1.37999E+01  2.58723E+01  1.41582E+01  2.18383E+01  2.18849E+01  1.11663E+01  1.78165E+01
   2.52937E+01  1.74716E+01 -4.09704E+00  2.64638E+01  3.37635E+01  8.75809E+00  2.40328E+01  4.19594E+00 -2.01018E-03  2.26548E+01
   4.95030E+00  1.98151E+01  1.35350E+01  1.17410E+01  1.97840E+01  2.43604E+00  3.90209E+01  1.04804E+01 -3.10831E+00  2.33544E+01
   1.40507E+01  1.75074E+01  4.17005E+00  2.04819E+01  2.04598E+01  1.46267E+01  1.03589E+01  1.30222E+01  2.70576E+01  2.51222E+01
   3.10918E+01  1.49829E+01  1.85468E+01  1.97861E+01  2.26862E+01  1.82846E+01  1.79819E+01  1.72158E+01  1.02559E+01  2.34144E+01
   1.21092E+01  2.94212E+01  1.19014E+01  9.78637E+00  2.89017E+01  2.01256E+01  2.31492E+01  1.06637E+01  2.81081E+01  1.74992E+01
 NY points of the fit to the data follow
   2.41931E+01  2.34714E+01  2.28326E+01  2.26346E+01  2.27604E+01  2.26981E+01  2.20239E+01  1.98476E+01  1.65308E+01  1.27966E+01
   9.95609E+00  8.78576E+00  8.94653E+00  8.81673E+00  7.10254E+00  2.69780E+00 -6.37947E+00 -1.14569E+01 -1.26533E+01 -1.19803E+01
  -7.48526E+00  2.22665E+00  1.65732E+01  3.33275E+01  4.90652E+01  6.07264E+01  6.63336E+01  6.56982E+01  6.08366E+01  5.65251E+01
   5.26045E+01  4.87967E+01  4.29107E+01  3.64579E+01  2.92796E+01  2.35369E+01  1.86449E+01  1.48463E+01  1.28353E+01  1.34324E+01
   1.69747E+01  2.37392E+01  3.30302E+01  4.37068E+01  5.35618E+01  6.16548E+01  6.70239E+01  6.99179E+01  7.07307E+01  6.97763E+01
   6.78179E+01  6.58559E+01  6.19499E+01  5.76428E+01  5.47484E+01  5.19096E+01  4.96366E+01  4.91930E+01  5.01665E+01  5.24946E+01
   5.61053E+01  6.07297E+01  6.44557E+01  6.55030E+01  6.51495E+01  6.32816E+01  5.93327E+01  5.52310E+01  5.22632E+01  5.13523E+01
   5.33428E+01  5.77270E+01  6.36685E+01  6.99003E+01  7.44700E+01  7.74795E+01  7.80073E+01  7.64895E+01  7.30463E+01  6.79836E+01
   6.31689E+01  5.94721E+01  5.71642E+01  5.69952E+01  5.92533E+01  6.35851E+01  6.91090E+01  7.47002E+01  7.95891E+01  8.36505E+01
   8.69859E+01  9.04427E+01  9.37646E+01  9.66843E+01  9.99268E+01  1.02815E+02  1.03364E+02  1.02993E+02  9.97781E+01  9.42425E+01
   8.75569E+01  8.04851E+01  7.37789E+01  6.11664E+01  4.55828E+01  3.12915E+01  1.81146E+01  5.72065E+00 -5.07469E+00 -1.33204E+01
  -1.70744E+01 -1.51375E+01 -8.19965E+00  2.55807E+00  1.28126E+01  2.02562E+01  2.58957E+01  3.18731E+01  4.02561E+01  4.91096E+01
   5.75922E+01  6.56411E+01  7.39613E+01  8.40094E+01  9.89166E+01  1.15851E+02  1.21065E+02  1.18512E+02  1.11709E+02  9.82104E+01
   7.79616E+01  5.24305E+01  2.50909E+01  1.15128E+00 -1.51912E+01 -2.14832E+01 -1.94810E+01 -1.59437E+01 -1.59407E+01 -1.87226E+01
  -2.06580E+01 -1.89885E+01 -1.70631E+01 -1.51925E+01 -1.32114E+01 -1.11489E+01 -9.03690E+00 -6.98765E+00 -4.78399E+00 -2.42280E+00
  -1.42335E-01  1.87676E+00  3.71348E+00  5.61125E+00  7.77277E+00  9.79825E+00  1.10966E+01  1.19297E+01  1.27134E+01  1.36749E+01
   1.45300E+01  1.49117E+01  1.46705E+01  1.43179E+01  1.51964E+01  1.87071E+01  2.35436E+01  2.79646E+01  3.19163E+01  3.55456E+01
   4.00329E+01  4.45220E+01  4.64482E+01  4.58647E+01  4.35918E+01  4.03620E+01  3.68794E+01  3.29298E+01  2.77151E+01  2.12303E+01
   1.44688E+01  9.25463E+00  6.39628E+00  5.05542E+00  4.47162E+00  3.40749E+00  2.33824E+00  2.89472E+00  5.12073E+00  7.60371E+00
   1.02524E+01  1.42674E+01  1.88302E+01  2.29773E+01  2.63064E+01  2.91627E+01  3.21221E+01  3.46770E+01  3.69496E+01  3.94243E+01
   4.21610E+01  4.38808E+01  4.41894E+01  4.32330E+01  4.06042E+01  3.58255E+01  3.01285E+01  2.45345E+01  2.04051E+01  2.01949E+01
   2.19587E+01  2.68806E+01  3.41600E+01  4.16933E+01  4.89256E+01  5.46790E+01  5.83593E+01  6.01169E+01  5.97988E+01  5.82041E+01
   5.61636E+01  5.35457E+01  5.03728E+01  4.60772E+01  3.97334E+01  3.15548E+01  2.19392E+01  1.16086E+01  1.27184E+00 -7.42322E+00
  -1.49548E+01 -2.07821E+01 -2.45989E+01 -2.67186E+01 -2.81857E+01 -2.78270E+01 -2.68584E+01 -2.50236E+01 -2.20910E+01 -1.87063E+01
  -1.43969E+01 -9.88589E+00 -5.90776E+00 -2.80804E+00 -2.76874E+00 -6.82761E+00 -1.34954E+01 -1.71451E+01 -2.08063E+01 -2.98436E+01
  -4.14307E+01 -3.88995E+01 -2.65892E+01 -9.96139E+00  1.14462E+01  3.67867E+01  6.40822E+01  9.08497E+01  1.14200E+02  1.31315E+02
   1.38024E+02  1.33988E+02  1.25634E+02  1.21032E+02  1.20317E+02  1.19576E+02  1.15592E+02  1.11768E+02  1.09073E+02  1.07493E+02
   1.06893E+02  1.07062E+02  1.07669E+02  1.08423E+02  1.09133E+02  1.09631E+02  1.09712E+02  1.09435E+02  1.08737E+02  1.07728E+02
   1.06445E+02  1.04873E+02  1.03106E+02  1.01071E+02  9.87729E+01  9.62032E+01  9.34937E+01  9.07752E+01  8.82202E+01  8.60292E+01
   8.43734E+01  8.33628E+01  8.30788E+01  8.35233E+01  8.46179E+01  8.62244E+01  8.81903E+01  9.03743E+01  9.26951E+01  9.51862E+01
   9.78685E+01  1.00698E+02  1.03678E+02  1.06781E+02  1.10056E+02  1.13593E+02  1.17394E+02  1.21442E+02  1.25894E+02  1.30867E+02
   1.36549E+02  1.42447E+02  1.41607E+02  1.36106E+02  1.24485E+02  1.04838E+02  8.20796E+01  5.85723E+01  3.58594E+01  1.72701E+01
   5.28790E+00  1.10438E+00  3.67977E+00  8.86934E+00  1.31504E+01  1.49531E+01  1.42163E+01  1.36151E+01  1.36271E+01  1.58800E+01
   1.97634E+01  2.39276E+01  2.87382E+01  3.44452E+01  3.90971E+01  4.26956E+01  4.47150E+01  4.43849E+01  4.26310E+01  3.99444E+01
   3.66282E+01  3.34265E+01  3.10444E+01  3.01060E+01  3.07396E+01  3.21314E+01  3.32391E+01  3.34725E+01  3.25198E+01  3.10228E+01
   2.93222E+01  2.80522E+01  2.74324E+01  2.73327E+01  2.78523E+01  2.90310E+01  3.07567E+01  3.28794E+01  3.52703E+01  3.78200E+01
   4.04843E+01  4.32150E+01  4.59174E+01  4.86172E+01  5.13068E+01  5.39821E+01  5.67289E+01  5.96355E+01  6.26632E+01  6.58891E+01
   6.94486E+01  7.33619E+01  7.76406E+01  8.23687E+01  8.76050E+01  9.32761E+01  9.93266E+01  1.05617E+02  1.11859E+02  1.17639E+02
   1.22384E+02  1.25603E+02  1.26984E+02  1.26431E+02  1.23931E+02  1.19806E+02  1.14581E+02  1.08753E+02  1.02652E+02  9.65579E+01
   9.05446E+01  8.43908E+01  7.80086E+01  7.13785E+01  6.46373E+01  5.80055E+01  5.17707E+01  4.62013E+01  4.14390E+01  3.74998E+01
   3.42721E+01  3.16162E+01  2.94119E+01  2.75788E+01  2.60633E+01  2.47898E+01  2.37392E+01  2.28851E+01  2.22401E+01  2.17236E+01
   2.12965E+01  2.10015E+01  2.07831E+01  2.05689E+01  2.03633E+01  2.02074E+01  2.01118E+01  2.00308E+01  1.99365E+01  1.98434E+01
   1.97980E+01  1.97431E+01  1.96907E+01  1.96664E+01  1.96591E+01  1.96452E+01  1.95932E+01  1.95556E+01  1.95002E+01  1.94475E+01
   1.93924E+01  1.93646E+01  1.93826E+01  1.94533E+01  1.95424E+01  1.95788E+01  1.95645E+01  1.95039E+01  1.94231E+01  1.93275E+01
   1.92146E+01  1.91274E+01  1.90368E+01  1.89392E+01  1.88683E+01  1.88263E+01  1.87762E+01  1.87246E+01  1.86572E+01  1.85917E+01
   1.85519E+01  1.85259E+01  1.85026E+01  1.84580E+01  1.83519E+01  1.82045E+01  1.80298E+01  1.78207E+01  1.76181E+01  1.74231E+01
   1.72650E+01  1.71148E+01  1.69724E+01  1.68082E+01  1.66160E+01  1.63902E+01  1.60867E+01  1.56910E+01  1.52638E+01  1.48138E+01
   1.43236E+01  1.38276E+01  1.33487E+01  1.28176E+01  1.22956E+01  1.17750E+01  1.13009E+01  1.08752E+01  1.04960E+01  1.01750E+01
 NY background values follow
     5.240E+01    5.236E+01    5.232E+01    5.228E+01    5.224E+01    5.220E+01    5.216E+01    5.212E+01    5.208E+01    5.204E+01
     5.200E+01    5.195E+01    5.191E+01    5.187E+01    5.183E+01    5.179E+01    5.175E+01    5.171E+01    5.167E+01    5.163E+01
     5.159E+01    5.155E+01    5.151E+01    5.147E+01    5.143E+01    5.139E+01    5.135E+01    5.131E+01    5.127E+01    5.123E+01
     5.118E+01    5.114E+01    5.110E+01    5.106E+01    5.102E+01    5.098E+01    5.094E+01    5.090E+01    5.086E+01    5.082E+01
     5.078E+01    5.074E+01    5.070E+01    5.066E+01    5.062E+01    5.058E+01    5.054E+01    5.050E+01    5.045E+01    5.041E+01
     5.037E+01    5.033E+01    5.029E+01    5.025E+01    5.021E+01    5.017E+01    5.013E+01    5.009E+01    5.005E+01    5.001E+01
     4.997E+01    4.993E+01    4.989E+01    4.985E+01    4.981E+01    4.977E+01    4.973E+01    4.968E+01    4.964E+01    4.960E+01
     4.956E+01    4.952E+01    4.948E+01    4.944E+01    4.940E+01    4.936E+01    4.932E+01    4.928E+01    4.924E+01    4.920E+01
     4.916E+01    4.912E+01    4.908E+01    4.904E+01    4.900E+01    4.896E+01    4.891E+01    4.887E+01    4.883E+01    4.879E+01
     4.875E+01    4.871E+01    4.867E+01    4.863E+01    4.859E+01    4.855E+01    4.851E+01    4.847E+01    4.843E+01    4.839E+01
     4.835E+01    4.831E+01    4.827E+01    4.823E+01    4.819E+01    4.814E+01    4.810E+01    4.806E+01    4.802E+01    4.798E+01
     4.794E+01    4.790E+01    4.786E+01    4.782E+01    4.778E+01    4.774E+01    4.770E+01    4.766E+01    4.762E+01    4.758E+01
     4.754E+01    4.750E+01    4.746E+01    4.742E+01    4.737E+01    4.733E+01    4.729E+01    4.725E+01    4.721E+01    4.717E+01
     4.713E+01    4.709E+01    4.705E+01    4.701E+01    4.697E+01    4.693E+01    4.689E+01    4.685E+01    4.681E+01    4.677E+01
     4.673E+01    4.669E+01    4.665E+01    4.660E+01    4.656E+01    4.652E+01    4.648E+01    4.644E+01    4.640E+01    4.636E+01
     4.632E+01    4.628E+01    4.624E+01    4.620E+01    4.616E+01    4.612E+01    4.608E+01    4.604E+01    4.600E+01    4.596E+01
     4.592E+01    4.587E+01    4.583E+01    4.579E+01    4.575E+01    4.571E+01    4.567E+01    4.563E+01    4.559E+01    4.555E+01
     4.551E+01    4.547E+01    4.543E+01    4.539E+01    4.535E+01    4.531E+01    4.527E+01    4.523E+01    4.519E+01    4.515E+01
     4.510E+01    4.506E+01    4.502E+01    4.498E+01    4.494E+01    4.490E+01    4.486E+01    4.482E+01    4.478E+01    4.474E+01
     4.470E+01    4.466E+01    4.462E+01    4.458E+01    4.454E+01    4.450E+01    4.446E+01    4.442E+01    4.438E+01    4.433E+01
     4.429E+01    4.425E+01    4.421E+01    4.417E+01    4.413E+01    4.409E+01    4.405E+01    4.401E+01    4.397E+01    4.393E+01
     4.389E+01    4.385E+01    4.381E+01    4.377E+01    4.373E+01    4.369E+01    4.365E+01    4.361E+01    4.356E+01    4.352E+01
     4.348E+01    4.344E+01    4.340E+01    4.336E+01    4.332E+01    4.328E+01    4.324E+01    4.320E+01    4.316E+01    4.312E+01
     4.308E+01    4.304E+01    4.300E+01    4.296E+01    4.292E+01    4.288E+01    4.284E+01    4.280E+01    4.275E+01    4.271E+01
     4.267E+01    4.263E+01    4.259E+01    4.255E+01    4.251E+01    4.247E+01    4.243E+01    4.239E+01    4.235E+01    4.231E+01
     4.227E+01    4.223E+01    4.219E+01    4.215E+01    4.211E+01    4.207E+01    4.203E+01    4.199E+01    4.194E+01    4.190E+01
     4.186E+01    4.182E+01    4.178E+01    4.174E+01    4.170E+01    4.166E+01    4.162E+01    4.158E+01    4.154E+01    4.150E+01
     4.146E+01    4.142E+01    4.138E+01    4.134E+01    4.130E+01    4.126E+01    4.122E+01    4.117E+01    4.113E+01    4.109E+01
     4.105E+01    4.101E+01    4.097E+01    4.093E+01    4.089E+01    4.085E+01    4.081E+01    4.077E+01    4.073E+01    4.069E+01
     4.065E+01    4.061E+01    4.057E+01    4.053E+01    4.049E+01    4.045E+01    4.041E+01    4.037E+01    4.032E+01    4.028E+01
     4.024E+01    4.020E+01    4.016E+01    4.012E+01    4.008E+01    4.004E+01    4.000E+01    3.996E+01    3.992E+01    3.988E+01
     3.984E+01    3.980E+01    3.976E+01    3.972E+01    3.968E+01    3.964E+01    3.960E+01    3.955E+01    3.951E+01    3.947E+01
     3.943E+01    3.939E+01    3.935E+01    3.931E+01    3.927E+01    3.923E+01    3.919E+01    3.915E+01    3.911E+01    3.907E+01
     3.903E+01    3.899E+01    3.895E+01    3.891E+01    3.887E+01    3.883E+01    3.879E+01    3.874E+01    3.870E+01    3.866E+01
     3.862E+01    3.858E+01    3.854E+01    3.850E+01    3.846E+01    3.842E+01    3.838E+01    3.834E+01    3.830E+01    3.826E+01
     3.822E+01    3.818E+01    3.814E+01    3.810E+01    3.806E+01    3.802E+01    3.798E+01    3.793E+01    3.789E+01    3.785E+01
     3.781E+01    3.777E+01    3.773E+01    3.769E+01    3.765E+01    3.761E+01    3.757E+01    3.753E+01    3.749E+01    3.745E+01
     3.741E+01    3.737E+01    3.733E+01    3.729E+01    3.725E+01    3.721E+01    3.717E+01    3.712E+01    3.708E+01    3.704E+01
     3.700E+01    3.696E+01    3.692E+01    3.688E+01    3.684E+01    3.680E+01    3.676E+01    3.672E+01    3.668E+01    3.664E+01
     3.660E+01    3.656E+01    3.652E+01    3.648E+01    3.644E+01    3.640E+01    3.636E+01    3.632E+01    3.627E+01    3.623E+01
     3.619E+01    3.615E+01    3.611E+01    3.607E+01    3.603E+01    3.599E+01    3.595E+01    3.591E+01    3.587E+01    3.583E+01
     3.579E+01    3.575E+01    3.571E+01    3.567E+01    3.563E+01    3.559E+01    3.555E+01    3.551E+01    3.547E+01    3.542E+01
     3.538E+01    3.534E+01    3.530E+01    3.526E+01    3.522E+01    3.518E+01    3.514E+01    3.510E+01    3.506E+01    3.502E+01
     3.498E+01    3.494E+01    3.490E+01    3.486E+01    3.482E+01    3.478E+01    3.474E+01    3.470E+01    3.466E+01    3.461E+01
     3.457E+01    3.453E+01    3.449E+01    3.445E+01    3.441E+01    3.437E+01    3.433E+01    3.429E+01    3.425E+01    3.421E+01
     3.417E+01    3.413E+01    3.409E+01    3.405E+01    3.401E+01    3.397E+01    3.393E+01    3.389E+01    3.385E+01    3.380E+01
     3.376E+01    3.372E+01    3.368E+01    3.364E+01    3.360E+01    3.356E+01    3.352E+01    3.348E+01    3.344E+01    3.340E+01
     3.336E+01    3.332E+01    3.328E+01    3.324E+01    3.320E+01    3.316E+01    3.312E+01    3.308E+01    3.304E+01    3.300E+01
 Mac      Conc. = 2.41E-04
   3.45854E+01  3.36347E+01  3.26014E+01  3.14692E+01  3.03628E+01  2.93497E+01  2.84100E+01  2.74566E+01  2.64481E+01  2.56404E+01
   2.51893E+01  2.49927E+01  2.51994E+01  2.60288E+01  2.74442E+01  2.93451E+01  3.15371E+01  3.37966E+01  3.58588E+01  3.75785E+01
   3.90490E+01  4.04413E+01  4.18397E+01  4.32428E+01  4.46308E+01  4.59373E+01  4.70808E+01  4.79453E+01  4.85756E+01  4.91544E+01
   4.97919E+01  5.04944E+01  5.12028E+01  5.19776E+01  5.28241E+01  5.37320E+01  5.46736E+01  5.55021E+01  5.61638E+01  5.66630E+01
   5.71038E+01  5.74659E+01  5.76802E+01  5.76670E+01  5.73237E+01  5.67086E+01  5.59632E+01  5.52128E+01  5.45764E+01  5.41794E+01
   5.39762E+01  5.39577E+01  5.42207E+01  5.47175E+01  5.53394E+01  5.60366E+01  5.66604E+01  5.71324E+01  5.73893E+01  5.74386E+01
   5.72493E+01  5.69077E+01  5.66033E+01  5.65090E+01  5.66808E+01  5.71456E+01  5.79034E+01  5.88189E+01  5.98022E+01  6.07304E+01
   6.14640E+01  6.19437E+01  6.20946E+01  6.19563E+01  6.16726E+01  6.14356E+01  6.12542E+01  6.11987E+01  6.12580E+01  6.14951E+01
   6.18573E+01  6.23126E+01  6.28543E+01  6.34256E+01  6.39599E+01  6.44577E+01  6.48397E+01  6.50511E+01  6.50635E+01  6.47838E+01
   6.41680E+01  6.32800E+01  6.21446E+01  6.07648E+01  5.91802E+01  5.74734E+01  5.55866E+01  5.34195E+01  5.07553E+01  4.75695E+01
   4.39894E+01  4.01743E+01  3.64361E+01  3.30886E+01  3.04617E+01  2.87377E+01  2.79955E+01  2.81560E+01  2.90569E+01  3.03995E+01
