 
 $NMID
 ID=''
 FMTDAT='(2E13.5)'
 TRAMP=   1.00000E+0
 VOLUME=   1.00000E+0
 $END
   4.52553E+5   9.70319E+4
   1.07649E+6   6.29796E+5
   1.14446E+6   4.38430E+5
   1.02565E+6   4.27093E+5
   1.02413E+6   4.98337E+5
   1.03301E+6   4.88109E+5
   1.02408E+6   4.87943E+5
   1.05649E+6   4.78139E+5
   1.03687E+6   4.28247E+5
   9.91832E+5   4.43452E+5
   1.00768E+6   4.69798E+5
   1.02042E+6   4.45252E+5
   1.01241E+6   4.29566E+5
   1.01242E+6   4.17708E+5
   9.92628E+5   4.00381E+5
   9.78746E+5   4.06132E+5
   9.99850E+5   4.10646E+5
   9.99839E+5   3.95096E+5
   9.80357E+5   3.90181E+5
   9.75215E+5   3.87875E+5
   9.66390E+5   3.89457E+5
   9.63221E+5   3.97252E+5
   9.71684E+5   3.86379E+5
   9.64107E+5   3.69951E+5
   9.46953E+5   3.71421E+5
   9.46872E+5   3.68030E+5
   9.50271E+5   3.58919E+5
   9.50068E+5   3.50750E+5
   9.44578E+5   3.38438E+5
   9.34777E+5   3.26765E+5
   9.32325E+5   3.29188E+5
   9.34158E+5   3.25312E+5
   9.28462E+5   3.17340E+5
   9.20830E+5   3.13179E+5
   9.15785E+5   3.09410E+5
   9.11984E+5   3.05116E+5
   9.11236E+5   3.04492E+5
   9.06353E+5   3.00446E+5
   8.97240E+5   2.94284E+5
   8.93997E+5   2.90480E+5
   8.92409E+5   2.84771E+5
   8.85741E+5   2.76905E+5
   8.79880E+5   2.68737E+5
   8.77294E+5   2.62672E+5
   8.73286E+5   2.57335E+5
   8.70275E+5   2.51404E+5
   8.65548E+5   2.46739E+5
   8.58134E+5   2.45255E+5
   8.50481E+5   2.43584E+5
   8.45448E+5   2.39981E+5
   8.40390E+5   2.37883E+5
   8.34085E+5   2.36332E+5
   8.27854E+5   2.33999E+5
   8.22238E+5   2.32397E+5
   8.16671E+5   2.30714E+5
   8.10932E+5   2.28759E+5
   8.04409E+5   2.26276E+5
   7.97200E+5   2.22876E+5
   7.90621E+5   2.18686E+5
   7.85697E+5   2.16230E+5
   7.80516E+5   2.14844E+5
   7.74306E+5   2.12387E+5
   7.68143E+5   2.10034E+5
   7.61279E+5   2.09647E+5
   7.53138E+5   2.09690E+5
   7.45818E+5   2.08431E+5
   7.39195E+5   2.06127E+5
   7.32489E+5   2.04330E+5
   7.26335E+5   2.04141E+5
   7.19936E+5   2.04837E+5
   7.13271E+5   2.04148E+5
   7.06415E+5   2.02076E+5
   7.00604E+5   1.99857E+5
   6.94841E+5   1.99242E+5
   6.88118E+5   1.99497E+5
   6.81242E+5   1.98564E+5
   6.74951E+5   1.97530E+5
   6.68707E+5   1.97335E+5
   6.61937E+5   1.97578E+5
   6.54754E+5   1.97647E+5
   6.47504E+5   1.97489E+5
   6.41046E+5   1.97510E+5
   6.34838E+5   1.97697E+5
   6.28424E+5   1.97872E+5
   6.21152E+5   1.97623E+5
   6.13852E+5   1.97083E+5
   6.07896E+5   1.96549E+5
   6.02400E+5   1.96337E+5
   5.96102E+5   1.95668E+5
   5.89186E+5   1.93506E+5
   5.82754E+5   1.92415E+5
   5.77451E+5   1.92266E+5
   5.71502E+5   1.92047E+5
   5.64865E+5   1.91276E+5
   5.56925E+5   1.90057E+5
   5.50175E+5   1.89221E+5
   5.44781E+5   1.88486E+5
   5.39248E+5   1.88413E+5
   5.32536E+5   1.87145E+5
   5.25968E+5   1.85735E+5
   5.20409E+5   1.84875E+5
   5.14747E+5   1.85091E+5
   5.07764E+5   1.84148E+5
   5.01370E+5   1.82051E+5
   4.95378E+5   1.79810E+5
   4.90286E+5   1.78054E+5
   4.84805E+5   1.76883E+5
   4.78677E+5   1.76065E+5
   4.72080E+5   1.74082E+5
   4.65666E+5   1.71287E+5
   4.60601E+5   1.68959E+5
   4.55097E+5   1.68252E+5
   4.49092E+5   1.67387E+5
   4.42765E+5   1.65712E+5
   4.36778E+5   1.63917E+5
   4.31140E+5   1.62753E+5
   4.25162E+5   1.62013E+5
   4.18641E+5   1.60394E+5
   4.12647E+5   1.57999E+5
   4.07281E+5   1.55395E+5
   4.02203E+5   1.54067E+5
   3.96661E+5   1.52343E+5
   3.91438E+5   1.50620E+5
   3.85986E+5   1.48997E+5
   3.80353E+5   1.47434E+5
   3.74005E+5   1.45444E+5
   3.68344E+5   1.43764E+5
   3.63144E+5   1.42049E+5
   3.57757E+5   1.40189E+5
   3.52299E+5   1.38838E+5
   3.47042E+5   1.38110E+5
   3.41186E+5   1.37055E+5
   3.35317E+5   1.35437E+5
   3.30164E+5   1.33697E+5
   3.25004E+5   1.32475E+5
   3.19565E+5   1.31485E+5
   3.13885E+5   1.29542E+5
   3.09085E+5   1.28356E+5
   3.04230E+5   1.26959E+5
   2.99189E+5   1.26129E+5
   2.93387E+5   1.24913E+5
   2.87926E+5   1.22778E+5
   2.83415E+5   1.21068E+5
   2.78905E+5   1.19607E+5
   2.73940E+5   1.18742E+5
   2.69069E+5   1.17456E+5
   2.63638E+5   1.16143E+5
   2.58548E+5   1.14325E+5
   2.54175E+5   1.13250E+5
   2.49921E+5   1.11419E+5
   2.45429E+5   1.09952E+5
   2.41067E+5   1.08306E+5
   2.36724E+5   1.06370E+5
   2.32630E+5   1.05306E+5
   2.28553E+5   1.04162E+5
   2.24169E+5   1.02291E+5
   2.20135E+5   1.00367E+5
   2.16168E+5   9.90522E+4
   2.12408E+5   9.77456E+4
   2.08348E+5   9.57019E+4
   2.04595E+5   9.45989E+4
   2.00842E+5   9.30417E+4
   1.97141E+5   9.16269E+4
   1.93105E+5   9.02747E+4
   1.89588E+5   8.85815E+4
   1.86312E+5   8.67147E+4
   1.83139E+5   8.51682E+4
   1.79876E+5   8.41578E+4
   1.76516E+5   8.29353E+4
   1.73599E+5   8.12295E+4
   1.70126E+5   7.95275E+4
   1.67380E+5   7.81033E+4
   1.64262E+5   7.66986E+4
   1.61055E+5   7.56211E+4
   1.58389E+5   7.42793E+4
   1.55764E+5   7.26575E+4
   1.52993E+5   7.16072E+4
   1.50001E+5   7.03361E+4
   1.47305E+5   6.89052E+4
   1.44784E+5   6.74841E+4
   1.42096E+5   6.60973E+4
   1.39679E+5   6.50044E+4
   1.36881E+5   6.40230E+4
   1.34369E+5   6.28955E+4
   1.32073E+5   6.12166E+4
   1.29698E+5   6.01334E+4
   1.27155E+5   5.88484E+4
   1.24510E+5   5.77875E+4
   1.22373E+5   5.65289E+4
   1.20290E+5   5.50615E+4
   1.18127E+5   5.41351E+4
   1.16001E+5   5.34270E+4
   1.13277E+5   5.24206E+4
   1.11220E+5   5.09654E+4
   1.09132E+5   4.96138E+4
   1.06812E+5   4.88278E+4
   1.04856E+5   4.79242E+4
   1.02620E+5   4.68422E+4
   1.00448E+5   4.58833E+4
   9.83558E+4   4.50231E+4
   9.59832E+4   4.41088E+4
   9.40618E+4   4.32896E+4
   9.16633E+4   4.18827E+4
   9.02950E+4   4.08014E+4
   8.83319E+4   4.00522E+4
   8.61824E+4   3.91798E+4
   8.39356E+4   3.87496E+4
   8.23653E+4   3.75329E+4
   8.04851E+4   3.64044E+4
   7.85741E+4   3.56070E+4
   7.67152E+4   3.50062E+4
   7.48178E+4   3.37562E+4
   7.33110E+4   3.29495E+4
   7.14797E+4   3.23519E+4
   6.99541E+4   3.17411E+4
   6.79157E+4   3.08144E+4
   6.63137E+4   2.97177E+4
   6.47791E+4   2.88714E+4
   6.31238E+4   2.79818E+4
   6.19052E+4   2.71807E+4
   5.99550E+4   2.65886E+4
   5.82505E+4   2.56306E+4
   5.70037E+4   2.48383E+4
   5.58488E+4   2.42726E+4
   5.41756E+4   2.32015E+4
   5.23678E+4   2.24431E+4
   5.09741E+4   2.15729E+4
   4.99392E+4   2.10630E+4
   4.84035E+4   2.02966E+4
   4.70067E+4   1.97721E+4
   4.58946E+4   1.87985E+4
   4.46471E+4   1.81067E+4
   4.29752E+4   1.72412E+4
   4.20046E+4   1.65843E+4
   4.08145E+4   1.59600E+4
   3.97923E+4   1.51237E+4
   3.85976E+4   1.42864E+4
   3.74504E+4   1.36912E+4
   3.63428E+4   1.30726E+4
   3.49120E+4   1.23871E+4
   3.37814E+4   1.15183E+4
   3.27984E+4   1.05855E+4
   3.22040E+4   1.01112E+4
   3.12343E+4   9.44244E+3
   2.98628E+4   9.14920E+3
   2.90599E+4   8.15012E+3
   2.82954E+4   7.47028E+3
   2.71429E+4   6.85584E+3
   2.61629E+4   6.32468E+3
   2.55326E+4   5.57501E+3
   2.46918E+4   5.09551E+3
   2.37050E+4   4.49120E+3
   2.30074E+4   3.95813E+3
   2.20150E+4   3.21288E+3
   2.14476E+4   2.67198E+3
   2.05406E+4   1.78184E+3
   2.01044E+4   1.53610E+3
   1.90702E+4   7.21186E+2
   1.85973E+4   4.68686E+2
   1.79499E+4  -1.36626E+2
   1.72105E+4  -6.07406E+2
   1.67396E+4  -1.50740E+3
   1.59484E+4  -1.83495E+3
   1.54190E+4  -2.32264E+3
   1.47817E+4  -2.96762E+3
   1.45738E+4  -3.36686E+3
   1.40362E+4  -4.04609E+3
   1.34458E+4  -4.39232E+3
   1.30154E+4  -5.07692E+3
   1.24793E+4  -5.49694E+3
   1.22012E+4  -5.86119E+3
   1.15165E+4  -6.49508E+3
   1.13523E+4  -7.30218E+3
   1.09482E+4  -7.60959E+3
   1.04685E+4  -8.09176E+3
   1.01556E+4  -8.63063E+3
   9.76102E+3  -9.20056E+3
   9.42718E+3  -9.91529E+3
   8.80200E+3  -1.03065E+4
   8.74364E+3  -1.04394E+4
   8.32615E+3  -1.10906E+4
   8.31759E+3  -1.18502E+4
   7.76884E+3  -1.23221E+4
   7.43273E+3  -1.27625E+4
   7.22762E+3  -1.31985E+4
   7.31062E+3  -1.37794E+4
   6.85498E+3  -1.42148E+4
   6.81587E+3  -1.48850E+4
   6.48950E+3  -1.52811E+4
   6.19731E+3  -1.57551E+4
   6.02620E+3  -1.61619E+4
   5.98800E+3  -1.64251E+4
   5.69730E+3  -1.67291E+4
   5.62633E+3  -1.72334E+4
   5.37526E+3  -1.77361E+4
   5.45120E+3  -1.80901E+4
   5.28892E+3  -1.84398E+4
   5.39409E+3  -1.91275E+4
   5.18177E+3  -1.95016E+4
   5.17742E+3  -1.96960E+4
   4.94267E+3  -2.01410E+4
   5.00395E+3  -2.04898E+4
   4.92648E+3  -2.07832E+4
   4.75456E+3  -2.13854E+4
   4.97724E+3  -2.15063E+4
   4.72808E+3  -2.20166E+4
   4.75202E+3  -2.22349E+4
   5.09476E+3  -2.27260E+4
   5.10956E+3  -2.27876E+4
   4.91490E+3  -2.31096E+4
   5.18789E+3  -2.35557E+4
   5.10024E+3  -2.38081E+4
   5.44194E+3  -2.37770E+4
   5.47514E+3  -2.38826E+4
   5.54151E+3  -2.40970E+4
   5.50531E+3  -2.43931E+4
   5.80228E+3  -2.47445E+4
   5.88611E+3  -2.48934E+4
   5.92999E+3  -2.49247E+4
   6.21524E+3  -2.51688E+4
   6.41445E+3  -2.52578E+4
   6.60059E+3  -2.55441E+4
   6.75085E+3  -2.58308E+4
   6.91392E+3  -2.58724E+4
   6.98659E+3  -2.59751E+4
   7.26285E+3  -2.61725E+4
   7.18568E+3  -2.62913E+4
   7.81488E+3  -2.63798E+4
   7.85904E+3  -2.64665E+4
   8.11341E+3  -2.65679E+4
   8.72271E+3  -2.66573E+4
   8.85468E+3  -2.66098E+4
   9.05547E+3  -2.67282E+4
   9.28827E+3  -2.68101E+4
   9.38971E+3  -2.67434E+4
   9.91348E+3  -2.69500E+4
   1.00814E+4  -2.70205E+4
   1.05688E+4  -2.70255E+4
   1.05836E+4  -2.68345E+4
   1.10638E+4  -2.70448E+4
   1.11012E+4  -2.71625E+4
   1.14319E+4  -2.72360E+4
   1.16848E+4  -2.71855E+4
   1.20166E+4  -2.72651E+4
   1.22357E+4  -2.71154E+4
   1.25670E+4  -2.73155E+4
   1.29670E+4  -2.71265E+4
   1.31520E+4  -2.70913E+4
   1.34591E+4  -2.72115E+4
   1.35951E+4  -2.70557E+4
   1.39105E+4  -2.68890E+4
   1.41212E+4  -2.69181E+4
   1.46968E+4  -2.68912E+4
   1.46420E+4  -2.67726E+4
   1.51017E+4  -2.69262E+4
   1.51707E+4  -2.65167E+4
   1.56732E+4  -2.64822E+4
   1.57516E+4  -2.63593E+4
   1.62244E+4  -2.63947E+4
   1.64616E+4  -2.61339E+4
   1.68298E+4  -2.61805E+4
   1.69240E+4  -2.58720E+4
   1.70051E+4  -2.57323E+4
   1.74446E+4  -2.58596E+4
   1.76611E+4  -2.58232E+4
   1.75955E+4  -2.55755E+4
   1.78766E+4  -2.53328E+4
