 LCModel (Version 6.3-1N) Copyright: S.W. Provencher.          Ref.: Magn. Reson. Med. 30:672-679 (1993).                
 Slice_N1@20_24  28-Feb-2025 11:41:36
 27 lines in following concentration table = NCONC+1
    Conc.  %SD /Cr+PCr  Metabolite                                         
 2.79E-04   7% 8.8E-04 Mac                                                 
 5.15E-03 999% 1.6E-02 Cr                                                  
    2.525  54%   7.984 PCr                                                 
    2.954  26%   9.341 Ins                                                 
    3.883  17%  12.279 NAA                                                 
    0.415 154%   1.313 Tau                                                 
    0.000 999%   0.000 PCho                                                
    0.000 999%   0.000 GPC                                                 
    4.099  21%  12.964 Glu                                                 
    5.422  14%  17.147 Gln                                                 
    0.000 999%   0.000 Ala                                                 
    0.000 999%   0.000 Asc                                                 
    0.606  79%   1.917 Asp                                                 
    0.000 999%   0.000 GABA                                                
    0.112 266%   0.354 Glc                                                 
    0.238 174%   0.754 GSH                                                 
    0.998  57%   3.157 Lac                                                 
    2.483  21%   7.851 NAAG                                                
    2.211  30%   6.991 PE                                                  
    0.000 999%   0.000 GPC+PCho                                            
    6.366  12%  20.131 NAA+NAAG                                            
    9.521  13%  30.111 Glu+Gln                                             
    2.530  21%   8.000 Cr+PCr                                              
    6.366  12%  20.131 NAA+NAAG                                            
    2.530  21%   8.000 Cr+PCr                                              
    9.521  13%  30.111 Glu+Gln                                             
   6 lines in following misc. output table
  FWHM = 0.041 ppm    S/N =   3                                            
  Data shift = 0.057 ppm                                                   
  Ph: -12 deg       0.0 deg/ppm                                            
  alphaB,S = 1.2E-01,   6.4E+00                                            
   19 spline knots.   Ns = 8(1)                                            
  (11) 6 infls.   (10) 2 extrs.                                            
  480 points on ppm-axis = NY
      4.100000     4.091866     4.083733     4.075600     4.067466     4.059333     4.051199     4.043066     4.034933     4.026799
      4.018666     4.010532     4.002399     3.994265     3.986132     3.977998     3.969864     3.961731     3.953597     3.945463
      3.937330     3.929196     3.921062     3.912929     3.904795     3.896662     3.888528     3.880394     3.872261     3.864127
      3.855993     3.847860     3.839726     3.831592     3.823459     3.815325     3.807191     3.799058     3.790924     3.782790
      3.774657     3.766523     3.758389     3.750256     3.742122     3.733989     3.725855     3.717721     3.709588     3.701454
      3.693320     3.685187     3.677053     3.668919     3.660786     3.652652     3.644518     3.636385     3.628251     3.620117
      3.611984     3.603850     3.595716     3.587583     3.579449     3.571316     3.563182     3.555048     3.546915     3.538781
      3.530647     3.522514     3.514380     3.506246     3.498113     3.489979     3.481845     3.473712     3.465578     3.457444
      3.449311     3.441177     3.433043     3.424910     3.416776     3.408643     3.400509     3.392375     3.384242     3.376108
      3.367974     3.359841     3.351707     3.343573     3.335440     3.327306     3.319172     3.311039     3.302905     3.294771
      3.286638     3.278504     3.270370     3.262237     3.254103     3.245970     3.237836     3.229702     3.221569     3.213435
      3.205301     3.197168     3.189034     3.180900     3.172767     3.164633     3.156499     3.148366     3.140232     3.132098
      3.123965     3.115831     3.107697     3.099564     3.091430     3.083297     3.075163     3.067029     3.058896     3.050762
      3.042628     3.034495     3.026361     3.018227     3.010094     3.001960     2.993826     2.985693     2.977559     2.969425
      2.961292     2.953158     2.945024     2.936891     2.928757     2.920624     2.912490     2.904356     2.896223     2.888089
      2.879955     2.871822     2.863688     2.855554     2.847421     2.839287     2.831153     2.823020     2.814886     2.806752
      2.798619     2.790485     2.782351     2.774218     2.766084     2.757951     2.749817     2.741683     2.733550     2.725416
      2.717282     2.709149     2.701015     2.692881     2.684748     2.676614     2.668480     2.660347     2.652213     2.644079
      2.635946     2.627812     2.619678     2.611545     2.603411     2.595278     2.587144     2.579010     2.570877     2.562743
      2.554609     2.546476     2.538342     2.530208     2.522075     2.513941     2.505807     2.497674     2.489540     2.481406
      2.473273     2.465139     2.457006     2.448872     2.440738     2.432605     2.424471     2.416337     2.408204     2.400070
      2.391936     2.383803     2.375669     2.367535     2.359402     2.351268     2.343134     2.335001     2.326867     2.318733
      2.310600     2.302466     2.294333     2.286199     2.278065     2.269932     2.261798     2.253664     2.245531     2.237397
      2.229263     2.221130     2.212996     2.204862     2.196729     2.188595     2.180461     2.172328     2.164194     2.156060
      2.147927     2.139793     2.131660     2.123526     2.115392     2.107259     2.099125     2.090991     2.082858     2.074724
      2.066590     2.058457     2.050323     2.042189     2.034056     2.025922     2.017788     2.009655     2.001521     1.993387
      1.985254     1.977120     1.968987     1.960853     1.952719     1.944586     1.936452     1.928318     1.920185     1.912051
      1.903917     1.895784     1.887650     1.879516     1.871383     1.863249     1.855115     1.846982     1.838848     1.830714
      1.822581     1.814447     1.806314     1.798180     1.790046     1.781913     1.773779     1.765645     1.757512     1.749378
      1.741244     1.733111     1.724977     1.716843     1.708710     1.700576     1.692442     1.684309     1.676175     1.668041
      1.659908     1.651774     1.643641     1.635507     1.627373     1.619240     1.611106     1.602972     1.594839     1.586705
      1.578571     1.570438     1.562304     1.554170     1.546037     1.537903     1.529769     1.521636     1.513502     1.505368
      1.497235     1.489101     1.480968     1.472834     1.464700     1.456567     1.448433     1.440299     1.432166     1.424032
      1.415898     1.407765     1.399631     1.391497     1.383364     1.375230     1.367096     1.358963     1.350829     1.342695
      1.334562     1.326428     1.318295     1.310161     1.302027     1.293894     1.285760     1.277626     1.269493     1.261359
      1.253225     1.245092     1.236958     1.228824     1.220691     1.212557     1.204423     1.196290     1.188156     1.180022
      1.171889     1.163755     1.155622     1.147488     1.139354     1.131221     1.123087     1.114953     1.106820     1.098686
      1.090552     1.082419     1.074285     1.066151     1.058018     1.049884     1.041750     1.033617     1.025483     1.017349
      1.009216     1.001082     0.992949     0.984815     0.976681     0.968548     0.960414     0.952280     0.944147     0.936013
      0.927879     0.919746     0.911612     0.903478     0.895345     0.887211     0.879077     0.870944     0.862810     0.854676
      0.846543     0.838409     0.830276     0.822142     0.814008     0.805875     0.797741     0.789607     0.781474     0.773340
      0.765206     0.757073     0.748939     0.740805     0.732672     0.724538     0.716404     0.708271     0.700137     0.692003
      0.683870     0.675736     0.667603     0.659469     0.651335     0.643202     0.635068     0.626934     0.618801     0.610667
      0.602533     0.594400     0.586266     0.578132     0.569999     0.561865     0.553731     0.545598     0.537464     0.529330
      0.521197     0.513063     0.504930     0.496796     0.488662     0.480529     0.472395     0.464261     0.456128     0.447994
      0.439861     0.431727     0.423593     0.415460     0.407326     0.399192     0.391059     0.382925     0.374792     0.366658
      0.358524     0.350391     0.342257     0.334124     0.325990     0.317856     0.309723     0.301589     0.293455     0.285322
      0.277188     0.269055     0.260921     0.252787     0.244654     0.236520     0.228386     0.220253     0.212119     0.203986
 NY phased data points follow
   1.17054E+01  2.15951E+01  9.71130E+00 -7.75675E+00  2.18494E+01  8.91017E+00 -5.90643E+00  1.24441E+01 -2.30065E+00 -5.69265E+00
  -1.54426E+01 -2.10188E+01 -3.92652E+01 -2.09466E+01 -1.65555E+01 -4.07655E+01 -4.32666E+01 -4.09342E+01 -2.37379E+01 -4.75600E+01
  -4.37453E+01 -2.78807E+01 -3.50720E+01 -1.90215E+01 -2.55435E+00  1.26986E+01  1.69603E+01  2.11187E+01  4.09167E+01  4.13147E+01
   3.29890E+01  3.59485E+01  3.23694E+01  2.81448E+01  1.78280E+01  4.29469E+01  4.02860E+01  1.72456E+00  1.01733E+01 -5.56237E-01
  -1.96535E+01 -1.47183E+01 -3.22439E+01 -3.72257E+01  1.06863E+00 -8.22098E+00  7.06215E+00  3.29220E+01  6.86774E+00  4.05331E+01
   4.88564E+01  4.19971E+01  5.46680E+01  3.28836E+01  2.29313E+01  2.86229E+01  3.36100E+01  2.43991E+01  2.12888E+01  1.90933E+01
  -8.28162E+00 -1.55377E+00  3.44388E+00 -7.12419E+00  3.54841E+01  4.20836E+01  2.40763E+01  1.83753E+01  2.14478E+01  2.76663E+01
  -4.99052E+00  3.35557E+00  1.60776E+01  3.04514E+00  2.45958E+01  3.35200E+01  1.95794E+01  3.27821E+01  2.74044E+01  2.40610E+01
   2.98555E+01  1.61174E+01  3.34121E+01  2.54414E+01  1.69603E+01  2.19334E+01  3.67116E+01  4.71697E+01  4.21373E+01  3.88581E+01
   4.27998E+01  6.34441E+01  3.27003E+01  6.58180E+01  8.34595E+01  6.16131E+01  6.67090E+01  6.35943E+01  9.47785E+01  4.75480E+01
   4.04404E+01  5.16067E+01  2.71828E+01  1.50110E+01 -7.32460E+00  2.62015E+00 -1.57871E+01 -1.03933E+01 -1.48970E+01 -4.33362E+01
  -6.95823E+01 -7.89170E+01 -8.27576E+01 -9.09519E+01 -7.15958E+01 -7.04441E+01 -3.77967E+01 -3.67138E+01 -3.64967E+01 -1.94454E+01
  -2.08899E+01 -4.09577E+00  1.19075E+01  1.56898E+01 -1.89207E+01  1.95534E+01  2.79438E+01  7.70162E+00  4.98170E+01  4.72067E+01
   6.45965E+01  6.35410E+01  3.50960E+01  4.69477E+00 -4.21956E+01 -5.55358E+01 -6.22962E+01 -6.31160E+01 -6.26969E+01 -8.45339E+01
  -7.88093E+01 -6.54604E+01 -8.28140E+01 -7.59160E+01 -6.77039E+01 -7.88366E+01 -8.50043E+01 -7.26951E+01 -5.45479E+01 -5.76825E+01
  -8.13291E+01 -7.46984E+01 -4.04368E+01 -5.10155E+01 -5.27635E+01 -5.86057E+01 -5.83677E+01 -5.22134E+01 -6.09593E+01 -3.24479E+01
  -3.95609E+01 -4.58494E+01 -3.82753E+01 -4.52748E+01 -4.41140E+01 -3.99104E+01 -4.68989E+01 -6.03012E+01 -4.05479E+01 -3.13837E+01
  -4.11788E+01 -2.90713E+01 -2.09346E-01 -2.48217E+01 -2.21612E+01  2.89583E+00 -1.62960E+01 -1.70283E+00 -1.53169E+01 -1.65400E+01
  -2.06548E+01 -3.14710E+01 -3.51226E+01 -6.20655E+01 -4.95703E+01 -5.32616E+01 -4.89541E+01 -5.82270E+01 -6.44885E+01 -5.62106E+01
  -5.98333E+01 -3.18482E+01 -5.76683E+01 -6.90924E+01 -4.65238E+01 -5.30292E+01 -4.52378E+01 -5.53719E+01 -5.97901E+01 -3.86679E+01
  -4.18411E+01 -5.47527E+01 -4.67814E+01 -4.35968E+01 -5.35955E+01 -4.08360E+01 -3.62242E+01 -4.03874E+01 -3.64084E+01 -4.09228E+01
  -3.93380E+01 -4.76328E+01 -3.59886E+01 -3.63795E+01 -4.13258E+01 -3.28947E-01  1.17390E+01  1.07251E+01  1.43730E+01  1.20777E+01
   2.20688E+01  2.03980E+01 -1.06367E+01 -2.54368E+01 -1.97145E+01 -1.31007E+01 -2.09948E+01 -4.17641E+01 -2.60687E+01 -3.03007E+01
  -4.93152E+01 -6.55377E+01 -6.52827E+01 -6.03304E+01 -8.70069E+01 -7.59600E+01 -7.86636E+01 -9.19635E+01 -1.19602E+02 -1.45061E+02
  -1.12215E+02 -1.30432E+02 -1.35718E+02 -9.77319E+01 -1.12381E+02 -1.22353E+02 -1.07732E+02 -9.21345E+01 -9.36457E+01 -9.43351E+01
  -9.33404E+01 -9.41358E+01 -6.87288E+01 -1.13317E+02 -1.17029E+02 -7.23674E+01 -1.04402E+02 -8.16108E+01 -2.84195E+01  8.45643E+00
   2.31619E+01  4.29100E+01  6.13630E+01  4.40078E+01  4.81040E+01  4.58539E+01  4.09731E+01  3.74938E+01  3.70651E+01  4.36113E+01
   3.70889E+01  1.40112E+01  6.19088E+00  8.29501E+00  1.03065E+01  1.21381E+01 -2.21898E+00  6.11881E+00  1.47093E+01  1.60361E+01
   1.22588E+01  1.08969E+01  1.04930E+00  7.93767E+00  2.69853E+01  2.23856E+01  1.21727E+01 -1.47009E+01 -1.19879E+01 -3.34549E+01
  -2.88894E+01 -1.46792E+01 -4.27592E+01 -3.98803E+01 -6.08615E+01 -8.24774E+01 -9.17315E+01 -8.64596E+01 -7.17673E+01 -6.59513E+01
  -8.14949E+01 -7.92345E+01 -8.13311E+01 -8.24985E+01 -5.65167E+01 -5.71790E+01 -1.51735E+01 -9.34589E+00 -8.21433E+00  1.00428E+01
   2.01324E+01  3.77731E+01  3.07209E+01  5.43470E+01  5.16880E+01  6.04653E+01  7.03890E+01  8.03878E+01  8.84230E+01  8.72720E+01
   8.13048E+01  4.24823E+01  7.44600E+01  8.55283E+01  5.65036E+01  6.68441E+01  7.32137E+01  4.66747E+01  4.61905E+01  5.66830E+01
   2.98228E+01  3.35426E+01  2.32837E+01  1.87684E+00  5.57347E+00  5.06551E-01 -2.71027E+00  6.86392E+00  6.30509E+00  8.90611E+00
   5.35688E+00  8.61516E+00  2.80083E+01  1.84513E+01  1.61638E+01  1.61928E+01  3.06712E+01  4.39561E+01  3.15288E+01  1.63138E+01
   2.04728E+01  3.37142E+01  1.20386E+01  1.50463E+01  3.22221E+01  1.69090E+01  1.61619E+01  2.25079E+01  7.10689E+00  2.22168E+01
   3.09207E+00 -1.65937E+01  8.56232E+00 -1.49842E+01  7.52605E+00  2.46693E+01 -3.53919E+00  1.60557E+01  2.54590E+01 -5.39276E-01
   1.43330E+01  2.60296E+01  2.28006E+01  4.92952E+01  4.29207E+01  5.48410E+01  5.53246E+01  5.56777E+01  8.45894E+01  8.68552E+01
   8.81028E+01  9.06151E+01  1.04725E+02  1.07395E+02  1.23841E+02  1.30292E+02  1.22970E+02  1.42366E+02  1.55634E+02  1.58461E+02
   1.55598E+02  1.55014E+02  1.40697E+02  1.35339E+02  1.35490E+02  9.53791E+01  9.51744E+01  1.07164E+02  5.46934E+01  6.77888E+01
   5.51989E+01  2.83925E+01  6.57018E+01  2.53471E+01  1.53473E+01  2.35405E+01  2.40892E+00 -1.40519E+00  1.33693E+00 -4.24647E+00
  -1.95471E+01 -1.32303E+01 -1.15478E+01 -1.99154E-01 -1.44312E+01 -1.65106E+01 -7.80989E+00 -1.36846E+01 -7.73681E+00 -2.92804E+01
  -2.35018E+01 -9.96695E+00 -9.69503E+00 -4.18024E+00 -1.91192E+01 -2.39246E+01 -1.48016E+01 -9.40781E+00 -7.27672E+00 -2.23851E+01
  -1.62041E+01 -8.55583E+00 -2.21875E+01 -4.90715E+00  2.20968E+00 -1.98597E+01 -2.23431E+01 -1.57729E+01 -2.24168E+01 -7.10064E+00
  -7.04447E+00  4.31518E+00  1.03133E+00 -2.45372E+01  4.60944E+00 -2.44216E+01 -2.33970E+01 -2.51275E+00 -3.62665E+01 -1.46954E+01
   1.42984E+00 -1.77460E+01 -1.83035E+01 -7.66594E+00 -1.51910E+01 -1.98894E+01 -2.20977E+01 -1.36321E+01 -5.59749E+00 -8.13944E+00
  -7.46696E+00 -5.78543E+00 -1.16481E+01 -1.80062E+01 -9.72341E+00 -1.72021E+01 -1.23880E+01 -4.58598E+00 -9.16102E+00 -1.47260E+01
  -2.67225E+00 -4.86746E+00 -1.98914E+01 -2.13254E+01 -1.25508E+01  4.53185E+00 -1.68653E+01 -7.72593E+00 -1.36737E+01 -7.78500E+00
 NY points of the fit to the data follow
   2.94423E+00  9.63942E-01 -9.90180E-01 -1.74654E+00 -1.11800E+00  1.37365E+00  5.70955E+00  8.47768E+00  6.37890E+00  8.84740E-01
  -6.75623E+00 -1.47303E+01 -1.89701E+01 -2.23184E+01 -2.89558E+01 -3.40971E+01 -3.59984E+01 -3.77842E+01 -3.91098E+01 -3.84826E+01
  -3.65878E+01 -3.11730E+01 -1.99563E+01 -7.03537E+00  2.14872E+00  8.45690E+00  1.37233E+01  1.77636E+01  2.22488E+01  2.75749E+01
   3.12115E+01  3.41206E+01  3.89781E+01  4.42240E+01  4.79886E+01  4.75357E+01  4.25344E+01  3.19788E+01  1.75685E+01  1.99200E+00
  -1.16005E+01 -2.03446E+01 -2.17756E+01 -1.67594E+01 -8.27972E+00  8.29872E-01  8.60749E+00  1.46899E+01  2.08621E+01  2.65283E+01
   3.16108E+01  3.79093E+01  4.05119E+01  3.97020E+01  3.96066E+01  3.72018E+01  3.14010E+01  2.58027E+01  2.06762E+01  1.45015E+01
   1.06938E+01  1.27722E+01  1.62463E+01  1.79725E+01  2.21157E+01  2.65445E+01  2.57304E+01  2.28739E+01  1.94577E+01  1.28629E+01
   6.94218E+00  5.39394E+00  5.42609E+00  5.33743E+00  6.37408E+00  8.92235E+00  1.12170E+01  1.34891E+01  1.67534E+01  1.88294E+01
   1.94620E+01  2.04099E+01  2.12218E+01  2.10619E+01  2.09003E+01  2.13827E+01  2.24927E+01  2.42602E+01  2.65380E+01  2.87059E+01
   3.02931E+01  3.25550E+01  3.47272E+01  3.58323E+01  3.83882E+01  4.16808E+01  4.40795E+01  4.70823E+01  4.89387E+01  4.84214E+01
   4.60897E+01  4.31714E+01  3.80857E+01  3.05279E+01  2.13589E+01  1.09039E+01 -1.01160E+00 -1.31298E+01 -2.48792E+01 -3.63631E+01
  -4.58276E+01 -5.14423E+01 -5.39302E+01 -5.42060E+01 -5.33381E+01 -5.26450E+01 -5.17461E+01 -5.01519E+01 -4.55551E+01 -3.74212E+01
  -2.75433E+01 -1.77649E+01 -9.38629E+00 -5.31768E+00  5.17465E+00  2.01354E+01  3.18315E+01  4.08840E+01  4.98934E+01  5.49425E+01
   5.53100E+01  5.05592E+01  3.58565E+01  1.25042E+01 -8.97441E+00 -2.28652E+01 -3.26835E+01 -4.05740E+01 -4.82585E+01 -5.79639E+01
  -6.69055E+01 -6.96075E+01 -6.97107E+01 -6.94668E+01 -6.86342E+01 -6.71246E+01 -6.53275E+01 -6.37093E+01 -6.21829E+01 -6.05323E+01
  -5.86330E+01 -5.64788E+01 -5.45061E+01 -5.28293E+01 -5.13018E+01 -4.98448E+01 -4.89138E+01 -4.83151E+01 -4.80103E+01 -4.75258E+01
  -4.62011E+01 -4.43656E+01 -4.33023E+01 -4.39561E+01 -4.62115E+01 -4.78175E+01 -4.72120E+01 -4.54082E+01 -4.35488E+01 -4.21494E+01
  -4.03533E+01 -3.65834E+01 -3.21636E+01 -2.91515E+01 -2.79309E+01 -2.74735E+01 -2.65493E+01 -2.50405E+01 -2.46902E+01 -2.73121E+01
  -3.28169E+01 -3.87798E+01 -4.28387E+01 -4.52232E+01 -4.61499E+01 -4.73353E+01 -5.03998E+01 -5.37655E+01 -5.54358E+01 -5.70803E+01
  -5.90233E+01 -6.01285E+01 -5.93960E+01 -5.76247E+01 -5.55594E+01 -5.36485E+01 -5.41646E+01 -5.74575E+01 -6.03620E+01 -6.37205E+01
  -6.64698E+01 -6.55413E+01 -6.03893E+01 -5.22842E+01 -4.32509E+01 -3.44430E+01 -2.92192E+01 -3.08171E+01 -3.39855E+01 -3.95625E+01
  -4.61837E+01 -5.02772E+01 -5.09191E+01 -5.01713E+01 -4.73499E+01 -4.26763E+01 -3.81047E+01 -3.31717E+01 -2.71825E+01 -2.04490E+01
  -1.38257E+01 -6.71608E+00  5.00476E-01  6.19904E+00  9.47622E+00  9.64299E+00  6.37459E+00  2.21071E-02 -1.09069E+01 -2.37867E+01
  -3.89612E+01 -5.44851E+01 -6.83521E+01 -7.88971E+01 -8.67346E+01 -9.40270E+01 -9.86860E+01 -1.04479E+02 -1.10976E+02 -1.17014E+02
  -1.21049E+02 -1.23603E+02 -1.20343E+02 -1.12280E+02 -9.97809E+01 -9.14849E+01 -9.01943E+01 -8.86678E+01 -8.15971E+01 -7.94586E+01
  -8.76890E+01 -9.48677E+01 -9.96170E+01 -1.01583E+02 -9.67168E+01 -8.67156E+01 -7.89933E+01 -6.57326E+01 -4.06600E+01 -1.29345E+01
   7.33905E+00  2.09206E+01  2.69170E+01  2.82027E+01  3.22953E+01  3.87461E+01  3.97603E+01  3.49434E+01  3.04851E+01  2.69367E+01
   2.40000E+01  2.17110E+01  2.00472E+01  1.88682E+01  1.82362E+01  1.82174E+01  1.85500E+01  1.90317E+01  1.95076E+01  1.99877E+01
   2.05769E+01  2.11173E+01  2.16901E+01  2.20460E+01  2.18311E+01  2.07213E+01  1.84913E+01  1.48472E+01  9.85664E+00  3.91810E+00
  -2.55374E+00 -9.09744E+00 -1.50404E+01 -1.98277E+01 -2.32561E+01 -2.51914E+01 -2.56710E+01 -2.51657E+01 -2.39591E+01 -2.18269E+01
  -1.90885E+01 -1.58807E+01 -1.23966E+01 -8.85269E+00 -5.17001E+00 -1.01503E+00  3.40058E+00  8.04911E+00  1.30175E+01  1.81279E+01
   2.31765E+01  2.85539E+01  3.40041E+01  3.90342E+01  4.36657E+01  4.77919E+01  5.15560E+01  5.53624E+01  5.93445E+01  6.29130E+01
   6.57063E+01  6.74013E+01  6.70723E+01  6.40148E+01  5.77201E+01  4.79618E+01  3.54683E+01  2.15990E+01  7.77524E+00 -4.89697E+00
  -1.54583E+01 -2.37808E+01 -2.98703E+01 -3.23867E+01 -3.18136E+01 -2.92861E+01 -2.39003E+01 -1.73487E+01 -1.08897E+01 -4.21328E+00
   2.39289E+00  7.22769E+00  1.06226E+01  1.37312E+01  1.68412E+01  2.00362E+01  2.39753E+01  2.73680E+01  2.82370E+01  2.67679E+01
   2.35144E+01  1.84574E+01  1.27478E+01  7.36611E+00  2.24478E+00 -2.15498E+00 -5.39688E+00 -7.20430E+00 -7.78037E+00 -7.13247E+00
  -5.21911E+00 -2.44999E+00  7.80588E-01  4.28397E+00  7.70023E+00  1.06887E+01  1.35995E+01  1.61846E+01  1.81232E+01  1.96360E+01
   2.10595E+01  2.22901E+01  2.34608E+01  2.51663E+01  2.74176E+01  3.05002E+01  3.55171E+01  4.31373E+01  5.39558E+01  6.82526E+01
   8.54541E+01  1.03857E+02  1.21949E+02  1.37985E+02  1.50026E+02  1.57268E+02  1.60163E+02  1.59327E+02  1.55838E+02  1.51265E+02
   1.45821E+02  1.39253E+02  1.31350E+02  1.22107E+02  1.11119E+02  9.89372E+01  8.62042E+01  7.34606E+01  6.11306E+01  4.99416E+01
   3.99525E+01  3.09639E+01  2.30686E+01  1.65382E+01  1.12125E+01  6.81128E+00  3.27217E+00  5.52711E-01 -1.43543E+00 -3.07210E+00
  -4.27360E+00 -5.07652E+00 -5.75248E+00 -6.39320E+00 -6.84506E+00 -7.13717E+00 -7.34309E+00 -7.38375E+00 -7.40172E+00 -7.53124E+00
  -7.75218E+00 -7.93013E+00 -8.02130E+00 -8.09439E+00 -8.00861E+00 -7.95721E+00 -7.89634E+00 -7.91268E+00 -7.99310E+00 -8.19618E+00
  -8.45546E+00 -8.77522E+00 -8.96076E+00 -8.84413E+00 -8.65157E+00 -8.46456E+00 -8.29973E+00 -8.22712E+00 -8.22105E+00 -8.28552E+00
  -8.38053E+00 -8.45127E+00 -8.66840E+00 -8.87855E+00 -9.04268E+00 -9.17760E+00 -9.35771E+00 -9.49853E+00 -9.70547E+00 -9.91129E+00
  -1.00542E+01 -1.00052E+01 -9.82277E+00 -9.67718E+00 -9.54643E+00 -9.38760E+00 -9.39476E+00 -9.47515E+00 -9.68412E+00 -9.95663E+00
  -1.02878E+01 -1.04451E+01 -1.04506E+01 -1.03772E+01 -1.01927E+01 -9.88473E+00 -9.73551E+00 -9.78600E+00 -9.84490E+00 -9.96751E+00
  -1.02399E+01 -1.03387E+01 -1.05548E+01 -1.10233E+01 -1.16749E+01 -1.23905E+01 -1.31895E+01 -1.39756E+01 -1.44531E+01 -1.45544E+01
 NY background values follow
     2.531E+01    2.513E+01    2.496E+01    2.478E+01    2.460E+01    2.443E+01    2.425E+01    2.408E+01    2.391E+01    2.373E+01
     2.356E+01    2.339E+01    2.321E+01    2.304E+01    2.287E+01    2.270E+01    2.253E+01    2.236E+01    2.220E+01    2.203E+01
     2.186E+01    2.170E+01    2.153E+01    2.137E+01    2.121E+01    2.105E+01    2.089E+01    2.073E+01    2.057E+01    2.041E+01
     2.026E+01    2.010E+01    1.995E+01    1.980E+01    1.965E+01    1.950E+01    1.935E+01    1.920E+01    1.905E+01    1.890E+01
     1.875E+01    1.860E+01    1.846E+01    1.831E+01    1.816E+01    1.801E+01    1.786E+01    1.771E+01    1.755E+01    1.740E+01
     1.725E+01    1.709E+01    1.693E+01    1.677E+01    1.661E+01    1.645E+01    1.628E+01    1.612E+01    1.595E+01    1.577E+01
     1.560E+01    1.542E+01    1.524E+01    1.506E+01    1.487E+01    1.468E+01    1.449E+01    1.429E+01    1.409E+01    1.389E+01
     1.368E+01    1.347E+01    1.325E+01    1.303E+01    1.281E+01    1.258E+01    1.234E+01    1.211E+01    1.186E+01    1.161E+01
     1.136E+01    1.110E+01    1.083E+01    1.056E+01    1.029E+01    1.000E+01    9.714E+00    9.419E+00    9.118E+00    8.811E+00
     8.496E+00    8.176E+00    7.848E+00    7.515E+00    7.176E+00    6.832E+00    6.483E+00    6.129E+00    5.770E+00    5.408E+00
     5.042E+00    4.672E+00    4.299E+00    3.923E+00    3.544E+00    3.164E+00    2.781E+00    2.397E+00    2.012E+00    1.625E+00
     1.238E+00    8.511E-01    4.638E-01    7.670E-02   -3.097E-01   -6.953E-01   -1.080E+00   -1.462E+00   -1.843E+00   -2.222E+00
    -2.598E+00   -2.971E+00   -3.342E+00   -3.710E+00   -4.075E+00   -4.437E+00   -4.797E+00   -5.153E+00   -5.507E+00   -5.858E+00
    -6.206E+00   -6.551E+00   -6.894E+00   -7.233E+00   -7.569E+00   -7.903E+00   -8.233E+00   -8.561E+00   -8.885E+00   -9.206E+00
    -9.525E+00   -9.840E+00   -1.015E+01   -1.046E+01   -1.077E+01   -1.107E+01   -1.137E+01   -1.167E+01   -1.196E+01   -1.225E+01
    -1.254E+01   -1.282E+01   -1.310E+01   -1.338E+01   -1.366E+01   -1.393E+01   -1.420E+01   -1.447E+01   -1.474E+01   -1.501E+01
    -1.528E+01   -1.554E+01   -1.581E+01   -1.607E+01   -1.633E+01   -1.660E+01   -1.686E+01   -1.713E+01   -1.740E+01   -1.766E+01
    -1.793E+01   -1.820E+01   -1.847E+01   -1.875E+01   -1.902E+01   -1.930E+01   -1.958E+01   -1.987E+01   -2.015E+01   -2.044E+01
    -2.074E+01   -2.103E+01   -2.134E+01   -2.164E+01   -2.195E+01   -2.226E+01   -2.258E+01   -2.290E+01   -2.322E+01   -2.354E+01
    -2.387E+01   -2.420E+01   -2.454E+01   -2.488E+01   -2.522E+01   -2.556E+01   -2.591E+01   -2.626E+01   -2.661E+01   -2.697E+01
    -2.733E+01   -2.769E+01   -2.805E+01   -2.842E+01   -2.879E+01   -2.916E+01   -2.953E+01   -2.991E+01   -3.029E+01   -3.067E+01
    -3.105E+01   -3.143E+01   -3.182E+01   -3.221E+01   -3.260E+01   -3.299E+01   -3.338E+01   -3.377E+01   -3.416E+01   -3.454E+01
    -3.493E+01   -3.532E+01   -3.570E+01   -3.608E+01   -3.646E+01   -3.684E+01   -3.721E+01   -3.758E+01   -3.794E+01   -3.830E+01
    -3.866E+01   -3.901E+01   -3.935E+01   -3.969E+01   -4.003E+01   -4.035E+01   -4.067E+01   -4.099E+01   -4.129E+01   -4.159E+01
    -4.188E+01   -4.216E+01   -4.243E+01   -4.269E+01   -4.294E+01   -4.318E+01   -4.341E+01   -4.364E+01   -4.385E+01   -4.405E+01
    -4.424E+01   -4.441E+01   -4.458E+01   -4.473E+01   -4.488E+01   -4.500E+01   -4.512E+01   -4.522E+01   -4.531E+01   -4.538E+01
    -4.545E+01   -4.549E+01   -4.552E+01   -4.554E+01   -4.554E+01   -4.553E+01   -4.550E+01   -4.545E+01   -4.539E+01   -4.531E+01
    -4.521E+01   -4.510E+01   -4.497E+01   -4.482E+01   -4.465E+01   -4.447E+01   -4.427E+01   -4.405E+01   -4.381E+01   -4.355E+01
    -4.327E+01   -4.298E+01   -4.266E+01   -4.233E+01   -4.197E+01   -4.160E+01   -4.120E+01   -4.079E+01   -4.036E+01   -3.990E+01
    -3.942E+01   -3.893E+01   -3.841E+01   -3.787E+01   -3.731E+01   -3.673E+01   -3.612E+01   -3.550E+01   -3.485E+01   -3.418E+01
    -3.348E+01   -3.277E+01   -3.203E+01   -3.128E+01   -3.050E+01   -2.971E+01   -2.890E+01   -2.808E+01   -2.724E+01   -2.640E+01
    -2.553E+01   -2.466E+01   -2.378E+01   -2.289E+01   -2.200E+01   -2.110E+01   -2.019E+01   -1.928E+01   -1.837E+01   -1.746E+01
    -1.654E+01   -1.563E+01   -1.472E+01   -1.382E+01   -1.292E+01   -1.202E+01   -1.113E+01   -1.025E+01   -9.377E+00   -8.515E+00
    -7.665E+00   -6.826E+00   -6.000E+00   -5.186E+00   -4.385E+00   -3.596E+00   -2.819E+00   -2.056E+00   -1.306E+00   -5.682E-01
     1.557E-01    8.662E-01    1.563E+00    2.246E+00    2.915E+00    3.570E+00    4.211E+00    4.837E+00    5.449E+00    6.046E+00
     6.628E+00    7.196E+00    7.748E+00    8.284E+00    8.806E+00    9.311E+00    9.801E+00    1.027E+01    1.073E+01    1.117E+01
     1.160E+01    1.201E+01    1.240E+01    1.278E+01    1.314E+01    1.348E+01    1.381E+01    1.413E+01    1.442E+01    1.471E+01
     1.497E+01    1.523E+01    1.547E+01    1.569E+01    1.590E+01    1.609E+01    1.627E+01    1.644E+01    1.659E+01    1.673E+01
     1.685E+01    1.697E+01    1.706E+01    1.715E+01    1.722E+01    1.728E+01    1.732E+01    1.736E+01    1.738E+01    1.738E+01
     1.738E+01    1.736E+01    1.733E+01    1.729E+01    1.724E+01    1.718E+01    1.711E+01    1.703E+01    1.693E+01    1.683E+01
     1.672E+01    1.659E+01    1.646E+01    1.632E+01    1.617E+01    1.602E+01    1.585E+01    1.568E+01    1.550E+01    1.532E+01
     1.512E+01    1.492E+01    1.472E+01    1.450E+01    1.429E+01    1.406E+01    1.384E+01    1.360E+01    1.336E+01    1.312E+01
     1.288E+01    1.262E+01    1.237E+01    1.211E+01    1.185E+01    1.159E+01    1.132E+01    1.105E+01    1.078E+01    1.050E+01
     1.022E+01    9.944E+00    9.662E+00    9.377E+00    9.091E+00    8.803E+00    8.514E+00    8.224E+00    7.932E+00    7.639E+00
     7.345E+00    7.051E+00    6.756E+00    6.461E+00    6.166E+00    5.870E+00    5.575E+00    5.280E+00    4.985E+00    4.691E+00
     4.398E+00    4.105E+00    3.814E+00    3.523E+00    3.232E+00    2.942E+00    2.653E+00    2.364E+00    2.076E+00    1.789E+00
     1.502E+00    1.215E+00    9.290E-01    6.432E-01    3.578E-01    7.279E-02   -2.119E-01   -4.964E-01   -7.805E-01   -1.064E+00
    -1.348E+00   -1.632E+00   -1.915E+00   -2.198E+00   -2.482E+00   -2.765E+00   -3.048E+00   -3.331E+00   -3.614E+00   -3.897E+00
 Mac      Conc. = 2.79E-04
   1.09432E+01  1.07195E+01  9.94725E+00  8.54914E+00  6.88063E+00  5.43108E+00  4.34278E+00  2.74206E+00  1.56971E-01 -2.84616E+00
  -6.50178E+00 -1.11198E+01 -1.57056E+01 -1.95167E+01 -2.20178E+01 -2.25448E+01 -2.07883E+01 -1.80309E+01 -1.52797E+01 -1.25902E+01
  -9.87541E+00 -7.33756E+00 -4.67748E+00 -1.58040E+00  1.50067E+00  4.59326E+00  7.69293E+00  1.00729E+01  1.13399E+01  1.20187E+01
   1.26853E+01  1.32826E+01  1.37538E+01  1.43488E+01  1.50157E+01  1.60635E+01  1.74578E+01  1.88452E+01  1.98799E+01  2.10503E+01
   2.27848E+01  2.49706E+01  2.74793E+01  2.96278E+01  3.07392E+01  3.09111E+01  3.04178E+01  2.91487E+01  2.74182E+01  2.55529E+01
   2.32870E+01  2.08027E+01  1.88853E+01  1.75332E+01  1.70746E+01  1.76573E+01  1.89844E+01  2.04383E+01  2.21157E+01  2.37771E+01
   2.45850E+01  2.42376E+01  2.31332E+01  2.14514E+01  1.94200E+01  1.79324E+01  1.70136E+01  1.67448E+01  1.75277E+01  1.93307E+01
   2.15541E+01  2.38059E+01  2.56337E+01  2.66499E+01  2.70008E+01  2.68522E+01  2.63323E+01  2.52598E+01  2.40506E+01  2.28619E+01
   2.17894E+01  2.10798E+01  2.09119E+01  2.09587E+01  2.14285E+01  2.24570E+01  2.38459E+01  2.56819E+01  2.78976E+01  3.00372E+01
   3.16466E+01  3.29100E+01  3.36307E+01  3.36449E+01  3.33314E+01  3.32034E+01  3.36289E+01  3.43851E+01  3.47720E+01  3.39165E+01
   3.09776E+01  2.58156E+01  1.84201E+01  9.25846E+00 -8.18994E-01 -1.07060E+01 -1.94106E+01 -2.62478E+01 -3.11164E+01 -3.42982E+01
