 
 $NMID
 ID=''
 FMTDAT='(2E13.5)'
 TRAMP=   1.00000E+0
 VOLUME=   1.00000E+0
 $END
  -7.28906E+3  -7.05763E+3
  -1.45850E+4  -5.55145E+3
  -7.23266E+3   9.55777E+3
   8.91436E+3   1.54770E+4
   1.27327E+4   2.40668E+3
   6.45218E+3  -1.33812E+4
  -3.39332E+3  -1.31074E+4
  -1.03133E+4   7.12777E+2
  -5.06166E+3   1.17257E+4
   6.39631E+3   9.62834E+3
   7.80960E+3  -9.72536E+2
   9.80626E+2  -7.85403E+3
  -5.14845E+3  -4.48190E+3
  -6.69027E+3   2.33862E+3
  -2.30124E+3   3.67716E+3
   4.86882E+3   5.04975E+2
   5.02229E+3  -1.36355E+3
  -9.27643E+2  -1.90890E+3
  -3.16344E+3  -1.49838E+3
  -9.99312E+2   1.55667E+3
   6.07519E+2   2.71407E+3
   1.98731E+3  -2.57812E+1
   1.76620E+3  -1.14066E+3
  -1.32472E+3  -3.41442E+2
  -2.19158E+3  -4.75675E+2
   4.86365E+2  -8.83482E+0
   1.87460E+3   1.79026E+3
  -6.08785E+2   1.23682E+3
  -1.34009E+3  -1.40855E+3
  -4.31209E+1  -9.28468E+2
   3.48945E+2   1.19257E+3
  -2.93273E+2   1.52443E+3
  -8.31419E+2  -6.14924E+1
  -6.74676E+2  -1.61915E+3
   3.12069E+2  -1.69857E+3
   1.41997E+3  -1.79472E+1
   5.55159E+2   1.50676E+3
  -5.80885E+2   9.11260E+2
   1.88264E+2  -4.42109E+2
   9.37196E+1  -2.72530E+2
  -7.95038E+2  -1.73190E+2
  -8.24026E+1  -9.18957E+2
   1.27791E+3  -3.85917E+2
   8.16655E+2   2.40637E+2
   3.45230E+1   2.96550E+2
   5.03681E+2   4.09213E+2
  -2.99171E+2   1.46920E+3
  -1.73769E+3   4.80166E+2
  -1.15935E+3  -1.67646E+3
   3.30841E+2  -1.53276E+3
   5.15652E+2   1.56230E+2
   3.76204E+2  -1.38651E+2
   6.76908E+2  -5.18146E+2
   3.60607E+2   4.54610E+2
  -7.76751E+1   6.69141E+2
  -9.29433E+2   2.30779E+1
  -6.47790E+2  -5.70310E+2
   2.62420E+2  -6.34168E+2
   7.59587E+2  -6.73556E+2
   4.35031E+2  -4.59012E+2
   1.51539E+2   3.98124E+1
   3.46786E+2   1.10275E+3
  -1.78955E+2   1.22477E+3
  -1.18413E+3   3.71051E+2
  -1.35584E+3  -1.13143E+3
  -5.35143E+2  -1.19128E+3
   1.29656E+2  -4.18032E+2
   4.64840E+2  -3.66293E+2
   1.02937E+3   1.04336E+2
   3.67950E+2   4.95757E+2
  -3.05094E+2  -9.11835E+1
   1.05631E+2  -2.57817E+2
   4.97783E+2   4.61600E+2
   1.75762E+1   9.41324E+2
  -4.87665E+2   1.78453E+2
  -2.86074E+1  -5.32622E+2
   8.78984E+1  -2.05709E+2
  -3.77687E+2   5.06045E+2
  -4.14625E+2   5.48409E+2
  -2.27756E+2  -3.27142E+2
  -6.70584E+1  -6.69206E+2
   6.72238E+1  -1.03765E+2
   6.53717E+1   4.11090E+2
  -2.17996E+2  -8.86255E+1
   5.00131E+1  -4.70194E+2
   7.29396E+2  -1.03635E+2
   6.94205E+2   1.84659E+2
   8.09253E+1   3.95323E+2
  -9.86012E+1   1.11241E+1
   3.45122E+2   3.34072E+2
   2.85499E+2   6.53267E+2
   1.19462E+2   5.06827E+2
  -5.43418E+2  -1.95224E+2
  -5.96282E+2  -7.29482E+1
  -3.57990E+2  -3.80222E+2
   4.11962E+2  -5.36751E+2
   7.48394E+2   3.35220E+1
   2.47942E+2   2.42697E+2
  -1.82968E+1  -2.64031E+2
   4.40778E+2  -2.73404E+2
   5.23873E+2   8.45462E+2
  -1.80700E+2   9.79083E+2
  -6.26296E+2  -3.55177E+2
   1.85502E+2  -1.02511E+3
   6.63530E+2  -1.90210E+2
  -1.41219E+2   8.25629E+2
  -7.00334E+2   5.61754E+2
  -6.45344E+2  -2.24617E+2
   2.36705E+2  -1.10330E+3
   5.55750E+2  -3.41638E+2
   7.98120E+2   6.19853E+1
   3.07607E+2   1.91872E+2
  -1.82709E+2   4.29483E+2
  -2.43530E+2   2.08348E+2
  -1.48862E+2   2.20258E+2
  -4.63950E+2  -5.63176E+1
  -6.44283E+2   1.93522E+2
  -5.49153E+2  -5.62940E+2
   3.49637E+2  -7.74521E+2
   9.59643E+2  -2.07920E+2
   4.23916E+2   2.14229E+2
   2.57933E+2   4.01484E+2
  -1.81444E+2   3.52683E+2
  -3.35745E+2   5.43445E+2
  -4.91079E+2  -7.38587E+1
  -5.22616E+2  -3.74125E+2
   1.00324E+2  -2.59882E+2
   2.30933E+2  -1.21000E+2
   8.55087E+1   1.60747E+2
  -5.41166E+1   2.81697E+2
  -5.18441E+2   9.43322E+1
  -3.06067E+2  -3.14244E+2
  -6.98331E+1  -8.92435E+1
   3.28439E+2  -7.60148E+1
  -1.49478E+2   1.21463E+2
  -3.83930E+1  -1.58796E+2
   2.91072E+2  -2.13923E+2
   2.77601E+2   6.29165E+2
  -2.57050E+2   5.47517E+2
  -4.27228E+2   1.23908E+2
  -2.19266E+2  -3.04252E+2
   3.36192E+2  -2.66702E+2
   2.18507E+2   3.62737E+2
   2.12259E+2   6.85961E+2
  -3.05794E+2   3.78629E+2
  -2.67437E+2   9.91219E+0
  -8.29980E+1  -1.37572E+2
  -2.57031E+2  -2.74972E+2
   6.93443E+1  -2.18538E+2
   9.94770E+1  -1.10748E+2
   2.31911E+2  -2.72094E+2
   6.84904E+2   2.70930E+2
   2.15407E+2   4.04596E+2
  -3.93283E+1   4.83855E+2
  -3.10507E+2   1.81987E+2
   1.69495E+2  -3.79150E+1
  -1.41056E+2   2.44171E+2
  -2.56570E+1   2.31147E+2
  -9.82307E+1   1.06204E+2
  -2.79802E+1  -1.96287E+2
  -1.39544E+2   1.80027E+2
  -1.35482E+2   2.34861E+2
  -2.09346E+2  -1.14795E+2
   1.57012E+2  -2.79959E+2
   3.33811E+2  -3.21650E+2
   3.10855E+2   1.40810E+2
   1.64276E+2   2.48336E+2
  -1.72307E+2  -5.50656E+1
  -8.03215E+1   2.18916E+1
   2.36562E+2  -1.24669E+2
  -3.44073E+1   2.53751E+2
  -1.14225E+2   2.13548E+2
  -1.38677E+2   2.31240E+1
  -6.08198E+1  -8.86202E+1
  -1.70547E+1  -2.04981E+2
  -5.29958E+1   2.30444E+2
  -3.58397E+2   1.18922E+2
  -2.44215E+2  -2.55670E+2
   3.68093E+2  -4.39872E+2
   3.22136E+2   1.74354E+2
  -9.34178E+1   1.97123E+2
  -2.93070E+2   6.17552E+1
  -2.29812E+2  -8.67945E+1
  -2.95418E+2  -8.91489E+1
   2.09289E+2  -2.15091E+2
  -2.68665E+2  -1.38870E+2
   3.96064E+2  -1.49061E+2
   5.76935E+2   2.32851E+2
   2.90566E+2   3.03991E+2
   2.00843E+2   5.49707E+2
  -3.88957E+2   3.73449E+2
  -3.58850E+2  -1.98935E+2
  -2.25411E+2  -6.13496E+2
  -6.28258E+1  -3.02701E+2
   2.38641E+2  -6.74732E+0
   1.10678E+1   9.98506E+1
  -6.02329E+1  -6.99753E+0
  -1.47787E+1   1.55414E+2
  -3.90764E+1   1.79122E+2
  -2.62012E+2  -4.08210E+1
  -1.91086E+2  -1.50019E+2
   2.47397E+2  -1.21125E+2
   5.29321E+2   7.83017E+1
   2.29265E+2   3.31775E+2
  -2.23704E+2   2.73953E+1
  -7.97377E+1   1.13311E+2
   6.65015E+1  -2.20714E+2
  -1.42336E+2   3.47509E+0
  -1.05505E+2  -4.23082E+1
  -2.53086E+1  -2.11545E+2
   4.40907E+1  -3.10706E+2
   2.75711E+2   5.59015E+1
   2.86770E+2   2.25531E+2
  -6.36003E+1   2.83522E+2
  -3.44436E+2  -9.68624E+1
  -4.80283E+1  -2.17245E+2
   6.50828E+1  -3.05731E+2
   1.28466E+2   4.20253E+1
  -3.85409E-1   1.02428E+2
   2.42910E+0  -2.97254E+2
   9.55074E+1   3.00313E+1
   4.92849E+1   1.38638E+2
  -1.02978E+2   2.72994E+2
  -3.00550E+2  -2.74372E+2
  -3.86601E+1  -7.28995E+1
   5.67239E+1  -2.25267E+1
   6.44967E+1   1.20630E+2
  -1.42677E+2   3.75819E+1
  -2.72438E+2   3.89866E+1
  -8.23065E+1  -1.06380E+2
   1.42363E+2   2.68994E+0
   6.03025E+1  -8.16042E+1
  -1.42642E+2   7.69216E+1
  -2.78116E+2  -6.46377E+1
  -1.21179E+2   1.27548E+2
   4.22355E+1  -6.13534E+1
  -1.86473E+2   6.50972E+1
   4.11623E+1   1.59170E+2
   1.08379E+1  -2.27824E+2
   7.19335E+1   1.06682E+2
  -1.17515E+2   1.76381E+2
   1.37025E+2   1.53746E+2
  -1.46435E+2   1.39717E+2
   6.37805E+1   3.76230E+0
  -1.76513E+2  -3.84315E+1
   1.19917E+2   1.61049E+2
  -6.66856E+1  -7.65713E+1
  -1.78750E+2   3.89987E+1
   1.60825E+2  -2.15726E+2
   1.17280E+2  -1.10921E+1
   1.89947E+2   1.36146E+2
  -2.74577E+2   6.85513E+1
  -2.64285E+2  -1.59844E+2
   1.58368E+2  -2.36521E+2
   3.06652E+2   1.01592E+2
   2.86611E+2   2.66892E+2
   8.15865E+1   1.04750E+2
  -8.28460E+1   1.93362E+2
  -1.60580E+2   3.97968E+1
  -6.38526E+1   9.38114E+1
  -2.91889E+2  -1.70579E+2
  -3.35167E+1  -3.87829E+2
   2.50087E+2  -3.48548E+2
   3.15117E+2  -5.33295E+1
   1.44932E+2   1.49758E+2
  -8.90983E+1   1.57103E+2
  -3.17985E+2   7.36293E+1
  -2.67237E+2  -1.84783E+2
  -1.60925E+2   2.11147E+2
   1.99771E+2   4.15216E+1
   2.59185E+2   8.83551E-1
   2.41917E+2  -2.97193E+1
   1.05478E+2  -1.25725E+2
   9.61955E+1  -6.02580E+1
   6.61714E+1   3.90509E+1
  -9.93605E+1  -9.74033E+1
   1.27863E+2  -2.59881E+2
   2.90288E+1  -9.50745E+1
   1.97597E+2   3.94006E+1
   1.49034E+2   1.36363E+2
   2.17107E+2   1.16472E+2
  -9.48849E+1   7.24164E+1
   2.59860E+2  -3.94972E+1
  -2.35114E+2   5.75314E+1
  -2.22340E+2  -1.32001E+2
  -1.24840E+2  -2.02586E+2
   5.80362E+1  -2.86439E+2
   2.14431E+2   7.26709E+1
   8.99224E+1   8.95730E+1
   1.06064E+2   9.76780E+1
  -3.66402E+2  -2.19111E+0
   6.52051E+1  -1.90902E+2
   2.20713E-1  -1.20308E+2
   1.06359E+2  -8.51852E+1
   8.04571E+1  -1.40791E+2
   2.52402E+2  -4.48438E+1
  -4.60885E+1   6.59631E+1
  -1.74476E+2  -1.90447E+2
   6.74825E+1  -1.27588E+2
   6.14133E+1  -1.82788E+2
   7.02266E+1  -2.55844E+2
   1.58920E+2   8.72926E+1
  -7.75011E+1   1.50678E+2
  -7.03827E+1   1.04248E+2
   1.29687E+1  -1.00394E+1
   1.73337E+2  -2.43651E+2
   1.27497E+2  -4.00388E+1
  -1.99512E+2  -6.45955E+1
  -9.54413E+1  -2.26228E+2
  -1.03473E+2   8.19798E+1
   6.81764E+1  -2.20322E+2
   5.33591E+1  -5.44841E+1
  -8.87375E+1  -7.39248E+1
  -5.13772E+1   8.47519E+1
  -1.39670E+2  -8.09025E+1
  -1.31179E+1   5.50302E+1
   1.33866E+1   2.16185E+2
   1.13702E+2   3.18427E+1
   1.72919E+2   5.99680E+0
   1.19437E+2  -7.29755E+1
   3.86451E+1  -3.20519E+1
  -8.30105E+1   2.31328E+2
   1.36041E+2  -4.54206E+1
   3.15314E+1   4.26716E+1
   5.49517E+1   2.71894E+2
   9.15109E+1   1.49534E+2
  -2.97487E+1   2.75156E+2
  -9.12774E+1  -9.30448E+1
   1.41752E+1  -2.81858E+2
   1.58935E+2  -1.04798E+2
   1.60364E+2   1.47443E+2
   2.10778E+2  -3.67556E+1
  -1.40230E+2   4.27254E+1
   1.09739E+2   1.54642E+1
   6.06655E+1  -1.83628E+1
  -9.35355E+1   4.90382E+1
  -3.95804E+2  -2.50949E+2
   1.06467E+2  -3.48009E+2
   1.66350E+2  -2.47722E+2
   1.54482E+2   1.01419E+2
   1.86236E+2   1.78235E+2
  -1.78583E+1   3.22672E+2
  -1.21696E+2   6.56399E+1
   2.05545E+2  -6.95090E+1
  -1.42466E+2   4.87972E+1
  -8.97204E+1  -1.43700E+2
   1.39229E+2   3.25687E+1
   4.01121E+1  -2.09164E+2
   1.94382E+2  -3.02206E+1
   1.13899E+2   4.63822E+1
  -7.27489E+1   1.09155E+2
   5.25899E+1  -1.70116E+1
   8.55554E+1  -3.41846E+1
   5.93322E+1  -2.79485E+2
  -6.46840E+1  -1.46853E+2
   9.62377E+1   3.40990E+1
  -4.80231E+1   1.15518E+2
   2.33455E+2   3.19136E+2
  -3.38210E+1   2.20879E+2
   1.04677E+2  -3.56001E+1
  -1.28562E+2  -9.92360E+1
   1.81887E+2   1.23740E+2
   9.57185E+1   1.59609E+2
  -9.26976E+1   4.86167E+0
   5.78507E+1   6.56854E+1
  -9.91615E+1  -7.96889E+1
   7.56468E+1   4.72689E+1
