 LCModel (Version 6.3-1N) Copyright: S.W. Provencher.          Ref.: Magn. Reson. Med. 30:672-679 (1993).                
 Slice_N1@12_13  28-Feb-2025 11:40:49
 27 lines in following concentration table = NCONC+1
    Conc.  %SD /Cr+PCr  Metabolite                                         
 3.10E-04   4% 3.7E-04 Mac                                                 
    3.439  27%   4.113 Cr                                                  
    3.250  28%   3.887 PCr                                                 
    5.861  15%   7.010 Ins                                                 
    8.173   9%   9.775 NAA                                                 
    7.376  12%   8.822 Tau                                                 
    1.679  17%   2.008 PCho                                                
    0.000 999%   0.000 GPC                                                 
    8.853  12%  10.588 Glu                                                 
    4.591  18%   5.491 Gln                                                 
    0.739  88%   0.884 Ala                                                 
    2.692  43%   3.220 Asc                                                 
    1.072  70%   1.282 Asp                                                 
    0.406 104%   0.485 GABA                                                
    0.515  96%   0.616 Glc                                                 
    0.868  55%   1.039 GSH                                                 
    3.004  23%   3.593 Lac                                                 
    1.362  38%   1.629 NAAG                                                
    0.724 147%   0.866 PE                                                  
    1.679  17%   2.008 GPC+PCho                                            
    9.535   8%  11.405 NAA+NAAG                                            
   13.444  10%  16.079 Glu+Gln                                             
    6.689  10%   8.000 Cr+PCr                                              
    9.535   8%  11.405 NAA+NAAG                                            
    6.689  10%   8.000 Cr+PCr                                              
   13.444  10%  16.079 Glu+Gln                                             
   6 lines in following misc. output table
  FWHM = 0.016 ppm    S/N =   4                                            
  Data shift = 0.024 ppm                                                   
  Ph: 175 deg       0.0 deg/ppm                                            
  alphaB,S = 3.3E-01,   3.3E-01                                            
   19 spline knots.   Ns = 5(1)                                            
   2 inflections.     1 extrema                                            
  480 points on ppm-axis = NY
      4.100000     4.091866     4.083733     4.075600     4.067466     4.059333     4.051199     4.043066     4.034933     4.026799
      4.018666     4.010532     4.002399     3.994265     3.986132     3.977998     3.969864     3.961731     3.953597     3.945463
      3.937330     3.929196     3.921062     3.912929     3.904795     3.896662     3.888528     3.880394     3.872261     3.864127
      3.855993     3.847860     3.839726     3.831592     3.823459     3.815325     3.807191     3.799058     3.790924     3.782790
      3.774657     3.766523     3.758389     3.750256     3.742122     3.733989     3.725855     3.717721     3.709588     3.701454
      3.693320     3.685187     3.677053     3.668919     3.660786     3.652652     3.644518     3.636385     3.628251     3.620117
      3.611984     3.603850     3.595716     3.587583     3.579449     3.571316     3.563182     3.555048     3.546915     3.538781
      3.530647     3.522514     3.514380     3.506246     3.498113     3.489979     3.481845     3.473712     3.465578     3.457444
      3.449311     3.441177     3.433043     3.424910     3.416776     3.408643     3.400509     3.392375     3.384242     3.376108
      3.367974     3.359841     3.351707     3.343573     3.335440     3.327306     3.319172     3.311039     3.302905     3.294771
      3.286638     3.278504     3.270370     3.262237     3.254103     3.245970     3.237836     3.229702     3.221569     3.213435
      3.205301     3.197168     3.189034     3.180900     3.172767     3.164633     3.156499     3.148366     3.140232     3.132098
      3.123965     3.115831     3.107697     3.099564     3.091430     3.083297     3.075163     3.067029     3.058896     3.050762
      3.042628     3.034495     3.026361     3.018227     3.010094     3.001960     2.993826     2.985693     2.977559     2.969425
      2.961292     2.953158     2.945024     2.936891     2.928757     2.920624     2.912490     2.904356     2.896223     2.888089
      2.879955     2.871822     2.863688     2.855554     2.847421     2.839287     2.831153     2.823020     2.814886     2.806752
      2.798619     2.790485     2.782351     2.774218     2.766084     2.757951     2.749817     2.741683     2.733550     2.725416
      2.717282     2.709149     2.701015     2.692881     2.684748     2.676614     2.668480     2.660347     2.652213     2.644079
      2.635946     2.627812     2.619678     2.611545     2.603411     2.595278     2.587144     2.579010     2.570877     2.562743
      2.554609     2.546476     2.538342     2.530208     2.522075     2.513941     2.505807     2.497674     2.489540     2.481406
      2.473273     2.465139     2.457006     2.448872     2.440738     2.432605     2.424471     2.416337     2.408204     2.400070
      2.391936     2.383803     2.375669     2.367535     2.359402     2.351268     2.343134     2.335001     2.326867     2.318733
      2.310600     2.302466     2.294333     2.286199     2.278065     2.269932     2.261798     2.253664     2.245531     2.237397
      2.229263     2.221130     2.212996     2.204862     2.196729     2.188595     2.180461     2.172328     2.164194     2.156060
      2.147927     2.139793     2.131660     2.123526     2.115392     2.107259     2.099125     2.090991     2.082858     2.074724
      2.066590     2.058457     2.050323     2.042189     2.034056     2.025922     2.017788     2.009655     2.001521     1.993387
      1.985254     1.977120     1.968987     1.960853     1.952719     1.944586     1.936452     1.928318     1.920185     1.912051
      1.903917     1.895784     1.887650     1.879516     1.871383     1.863249     1.855115     1.846982     1.838848     1.830714
      1.822581     1.814447     1.806314     1.798180     1.790046     1.781913     1.773779     1.765645     1.757512     1.749378
      1.741244     1.733111     1.724977     1.716843     1.708710     1.700576     1.692442     1.684309     1.676175     1.668041
      1.659908     1.651774     1.643641     1.635507     1.627373     1.619240     1.611106     1.602972     1.594839     1.586705
      1.578571     1.570438     1.562304     1.554170     1.546037     1.537903     1.529769     1.521636     1.513502     1.505368
      1.497235     1.489101     1.480968     1.472834     1.464700     1.456567     1.448433     1.440299     1.432166     1.424032
      1.415898     1.407765     1.399631     1.391497     1.383364     1.375230     1.367096     1.358963     1.350829     1.342695
      1.334562     1.326428     1.318295     1.310161     1.302027     1.293894     1.285760     1.277626     1.269493     1.261359
      1.253225     1.245092     1.236958     1.228824     1.220691     1.212557     1.204423     1.196290     1.188156     1.180022
      1.171889     1.163755     1.155622     1.147488     1.139354     1.131221     1.123087     1.114953     1.106820     1.098686
      1.090552     1.082419     1.074285     1.066151     1.058018     1.049884     1.041750     1.033617     1.025483     1.017349
      1.009216     1.001082     0.992949     0.984815     0.976681     0.968548     0.960414     0.952280     0.944147     0.936013
      0.927879     0.919746     0.911612     0.903478     0.895345     0.887211     0.879077     0.870944     0.862810     0.854676
      0.846543     0.838409     0.830276     0.822142     0.814008     0.805875     0.797741     0.789607     0.781474     0.773340
      0.765206     0.757073     0.748939     0.740805     0.732672     0.724538     0.716404     0.708271     0.700137     0.692003
      0.683870     0.675736     0.667603     0.659469     0.651335     0.643202     0.635068     0.626934     0.618801     0.610667
      0.602533     0.594400     0.586266     0.578132     0.569999     0.561865     0.553731     0.545598     0.537464     0.529330
      0.521197     0.513063     0.504930     0.496796     0.488662     0.480529     0.472395     0.464261     0.456128     0.447994
      0.439861     0.431727     0.423593     0.415460     0.407326     0.399192     0.391059     0.382925     0.374792     0.366658
      0.358524     0.350391     0.342257     0.334124     0.325990     0.317856     0.309723     0.301589     0.293455     0.285322
      0.277188     0.269055     0.260921     0.252787     0.244654     0.236520     0.228386     0.220253     0.212119     0.203986
 NY phased data points follow
  -5.07654E+01 -6.35812E+01 -6.04642E+01 -5.53659E+01 -7.67487E+01 -4.51079E+01 -4.98218E+01 -6.90932E+01 -6.84840E+01 -6.51099E+01
  -6.42715E+01 -7.45409E+01 -7.22552E+01 -6.92738E+01 -8.70629E+01 -8.39375E+01 -6.83482E+01 -9.02467E+01 -8.54174E+01 -9.64748E+01
  -1.25266E+02 -9.22937E+01 -7.59895E+01 -7.22789E+01 -3.53181E+01 -1.03636E+01 -1.65801E+01 -2.24796E+01 -8.85760E+00 -1.33063E+01
  -2.21248E+01 -9.93860E+00 -2.61303E+01 -3.46800E+01 -3.79785E+01 -4.19648E+01 -3.97363E+01 -5.40935E+01 -6.46113E+01 -9.20321E+01
  -1.00082E+02 -8.84013E+01 -8.16729E+01 -8.06717E+01 -7.68652E+01 -3.90853E+01 -5.93525E+00  9.61202E-01 -6.07561E+00 -2.99661E+00
  -8.77657E+00 -9.70195E+00 -1.43551E+01 -2.40446E+01 -1.55491E+01 -3.69312E+01 -4.56445E+01 -3.80429E+01 -5.49435E+01 -5.56452E+01
  -3.63958E+01 -3.56228E+01 -3.57074E+01 -1.56180E+01 -2.20220E+00 -2.22376E+00  2.39832E+00 -1.90613E+00 -4.05174E+01 -6.47687E+01
  -6.88020E+01 -4.46984E+01 -2.57017E+01 -3.79703E+01 -8.66306E+00  2.84624E+00 -4.79715E+00  1.06643E+01  1.75003E+00  4.28512E+00
   1.11828E+01 -8.18594E+00 -1.87288E+01 -4.18584E+01 -6.10478E+01 -5.23332E+01 -5.31560E+01 -3.88574E+01 -2.24611E+01 -1.69070E+01
  -3.64128E+00  6.68624E+00  1.25157E+01  1.97960E+01  3.17810E+01  3.43603E+01  2.85852E+01  2.37251E+01  2.18882E+01  1.19865E+01
   1.40284E+01  1.88228E+01 -1.44772E+01 -1.89927E+01 -2.88297E+01 -7.25440E+01 -6.52952E+01 -6.42496E+01 -8.47986E+01 -1.28485E+02
  -2.10549E+02 -2.13230E+02 -1.54470E+02 -1.15136E+02 -9.51687E+01 -8.47737E+01 -6.95521E+01 -5.83315E+01 -6.40911E+01 -5.86217E+01
  -4.04669E+01 -4.29869E+01 -2.03742E+01 -6.16904E+00 -1.42062E+01 -1.01226E+01 -1.52312E+01  1.14071E+01  2.39021E+01  3.71055E+01
   8.44742E+01  8.21573E+01 -1.76127E+01 -1.26053E+02 -1.37384E+02 -1.26034E+02 -1.10367E+02 -9.73727E+01 -1.09765E+02 -1.23132E+02
  -1.17325E+02 -9.60188E+01 -1.14765E+02 -1.08985E+02 -9.87119E+01 -1.03971E+02 -9.25724E+01 -9.67973E+01 -8.47308E+01 -9.17493E+01
  -9.38292E+01 -8.12821E+01 -7.49302E+01 -5.31740E+01 -7.13696E+01 -7.06048E+01 -5.95144E+01 -7.16772E+01 -5.28698E+01 -6.58170E+01
  -7.31972E+01 -5.01307E+01 -4.99532E+01 -4.58540E+01 -4.71289E+01 -4.81331E+01 -5.68379E+01 -4.67057E+01 -3.90559E+01 -6.66930E+01
  -4.32661E+01 -2.33927E+01 -2.18587E+01 -8.39170E+00 -3.20047E+01 -4.30274E+01 -2.34860E+01 -1.45775E+01 -3.10469E+01 -5.10400E+01
  -4.40482E+01 -5.83444E+01 -8.05235E+01 -6.63055E+01 -8.05588E+01 -8.31791E+01 -7.13656E+01 -6.26522E+01 -5.35442E+01 -7.11840E+01
  -5.97245E+01 -6.02953E+01 -4.95216E+01 -4.26447E+01 -4.59798E+01 -3.38052E+01 -4.87279E+01 -4.57824E+01 -4.58322E+01 -3.25306E+01
  -4.50773E+01 -3.55972E+01 -1.03124E+01 -2.26350E+01 -9.81535E+00 -1.54856E+01 -1.26415E+01 -4.45374E+01 -6.45460E+01 -6.20914E+01
  -6.81825E+01 -5.90152E+01 -5.47490E+01 -3.05238E+01 -2.54325E+01  1.61155E+01  2.83635E+01  2.18806E+01  3.02457E+01  1.76040E+01
   5.43081E+00 -3.34050E+01 -1.02584E+01 -5.43271E+00 -3.01982E+01 -1.15004E+01 -5.90976E+00 -1.82778E+01 -2.01789E+01 -1.57495E+01
  -2.17051E+01 -2.33611E+01 -3.93254E+01 -4.58022E+01 -6.29626E+01 -6.93732E+01 -7.29876E+01 -8.63555E+01 -7.23414E+01 -9.04692E+01
  -9.24862E+01 -7.53611E+01 -7.21888E+01 -5.45473E+01 -3.67663E+01 -1.55950E+01 -1.54933E+01 -3.87149E+01 -3.63385E+01 -4.97971E+01
  -4.97632E+01 -2.90465E+01 -4.80367E+01 -5.15988E+01 -5.83845E+01 -7.09554E+01 -1.06726E+02 -3.79640E+01  1.24950E+02  1.33823E+02
   1.14372E+02  1.23087E+02  1.12583E+02  9.70808E+01  6.59661E+01  6.75334E+01  7.34382E+01  6.92159E+01  5.74520E+01  4.64388E+01
   5.93349E+01  5.59570E+01  4.40343E+01  5.84508E+01  5.13022E+01  5.10990E+01  5.71729E+01  3.75815E+01  3.63814E+01  4.47081E+01
   4.58628E+01  3.93933E+01  3.66136E+01  2.91358E+01  2.02339E+01  2.02037E+01  1.72962E+01  1.91836E+01  2.62195E+01  1.92781E+01
   1.79250E+01  2.00457E+01  7.88008E+00  1.85610E+01  1.01927E+01 -3.91161E+00  6.98551E+00 -2.78789E+00 -9.81755E+00  1.46095E+01
   1.57206E+01  6.93853E-01  1.87700E+01  1.77762E+01  2.09738E+01  2.64645E+01  2.41437E+01  4.71017E+01  5.99910E+01  6.49053E+01
   8.27014E+01  8.01802E+01  6.85674E+01  1.06089E+02  1.16464E+02  9.91574E+01  9.83632E+01  1.00006E+02  1.19236E+02  1.31198E+02
   1.20550E+02  1.12637E+02  1.02511E+02  7.09473E+01  6.52459E+01  5.87087E+01  5.33654E+01  4.37599E+01  3.02004E+01  3.74620E+01
   2.09423E+01 -3.77483E+00 -2.71203E+01 -2.56022E+01 -4.60844E+01 -5.70627E+01 -4.98196E+01 -5.58737E+01 -5.53932E+01 -4.94780E+01
  -2.13413E+01 -4.19329E+01 -2.84839E+01 -1.65785E+01 -3.83397E+01 -2.20533E+01 -1.79764E+01 -2.33028E+01 -3.27752E+01 -2.82771E+01
  -3.60778E+01 -2.14325E+01 -3.08183E+01 -4.62153E+01 -3.58747E+01 -4.83220E+01 -2.67024E+01 -3.44996E+01 -3.70966E+01 -2.38945E+01
  -3.12452E+01 -2.97109E+01 -1.78659E+01 -6.81613E+00 -2.95693E+01 -1.94722E+01  1.21269E+01  2.37890E+00 -4.25606E+00 -1.26834E+00
  -1.55861E+00  4.46369E+00  5.04352E+00  1.55446E+01  7.60636E+00  5.33149E+00  1.73966E+01  2.11075E+01  3.09213E+01  1.78542E+01
   3.40837E+01  4.17034E+01  4.74207E+01  5.77515E+01  5.47623E+01  7.85044E+01  8.24614E+01  9.15004E+01  7.98858E+01  8.40533E+01
   9.13157E+01  6.74762E+01  5.84877E+01  3.13778E+01  3.40458E+01  3.13679E+01  1.24365E+01  2.24212E+01  1.78876E+01 -9.26573E-01
  -9.86053E+00 -2.22883E+01 -3.80115E+01 -3.38915E+01 -3.81061E+01 -5.49319E+01 -5.37347E+01 -4.01179E+01 -5.06916E+01 -5.80602E+01
  -3.47816E+01 -4.56197E+01 -6.08665E+01 -3.94589E+01 -4.22500E+01 -5.19423E+01 -4.66165E+01 -5.78405E+01 -6.09774E+01 -4.80421E+01
  -5.16101E+01 -4.90025E+01 -4.67099E+01 -5.62379E+01 -3.96448E+01 -4.75721E+01 -4.96739E+01 -3.35588E+01 -4.04917E+01 -4.38196E+01
  -5.01502E+01 -3.78469E+01 -5.75236E+01 -5.83887E+01 -4.64563E+01 -4.53970E+01 -1.89282E+01 -4.55334E+01 -4.15405E+01 -4.26338E+01
  -4.07701E+01 -3.38764E+01 -5.08480E+01 -3.04071E+01 -4.65578E+01 -3.43663E+01 -3.73431E+01 -4.53279E+01 -3.10487E+01 -3.98270E+01
  -2.99808E+01 -3.53625E+01 -3.00506E+01 -4.24261E+01 -3.91848E+01 -4.11507E+01 -3.94840E+01 -3.14680E+01 -5.29346E+01 -2.59146E+01
  -3.62933E+01 -3.04152E+01 -1.94659E+01 -3.29018E+01 -2.96351E+01 -3.21562E+01 -1.94555E+01 -3.89131E+01 -3.35994E+01 -3.39454E+01
  -2.84835E+01 -2.08526E+01 -3.96869E+01 -3.25669E+01 -3.26372E+01 -2.78783E+01 -3.53792E+01 -1.76327E+01 -2.17194E+01 -3.84738E+01
 NY points of the fit to the data follow
  -6.95710E+01 -7.33400E+01 -7.75570E+01 -8.39108E+01 -8.35640E+01 -6.63035E+01 -4.85328E+01 -4.89219E+01 -5.96592E+01 -6.77258E+01
  -7.26565E+01 -7.61287E+01 -7.56993E+01 -7.33874E+01 -7.31649E+01 -7.42434E+01 -7.81356E+01 -8.56426E+01 -8.91421E+01 -1.01637E+02
  -1.18383E+02 -9.95658E+01 -7.76029E+01 -6.70742E+01 -3.33934E+01 -1.30345E+01 -1.95134E+01 -2.04053E+01 -1.80616E+01 -1.80938E+01
  -1.83024E+01 -1.94909E+01 -2.04068E+01 -2.19380E+01 -2.50496E+01 -2.87772E+01 -3.20107E+01 -3.88768E+01 -5.07496E+01 -7.11554E+01
  -9.59534E+01 -9.95462E+01 -8.66272E+01 -7.35381E+01 -5.79829E+01 -3.68620E+01 -1.92600E+01 -1.22875E+01 -7.56827E+00 -3.17922E+00
  -4.23384E+00 -6.03682E+00 -7.54002E+00 -1.32017E+01 -2.43546E+01 -3.93852E+01 -4.87903E+01 -4.61183E+01 -5.23278E+01 -5.98652E+01
  -4.20216E+01 -3.34670E+01 -3.82650E+01 -2.04291E+01 -1.72115E+00  2.63811E-01 -8.51834E-01 -7.36847E+00 -3.12003E+01 -6.05784E+01
  -5.89755E+01 -4.13016E+01 -4.15580E+01 -3.57034E+01 -1.44983E+01 -1.87426E+00  2.70963E+00  7.45375E+00  1.11050E+01  1.50572E+01
   1.03208E+01 -5.64187E+00 -2.49109E+01 -5.35804E+01 -6.99508E+01 -6.79183E+01 -5.91916E+01 -3.91373E+01 -2.07303E+01 -1.27677E+01
  -5.70678E+00  1.61334E-01  4.35111E+00  8.48498E+00  1.29082E+01  1.64103E+01  1.85136E+01  2.17288E+01  2.22631E+01  1.86669E+01
   2.49410E+01  3.36269E+01  1.71842E+01 -5.28013E+00 -1.91519E+01 -4.77748E+01 -6.19047E+01 -5.40670E+01 -5.92831E+01 -1.18454E+02
  -1.88843E+02 -1.79649E+02 -1.35815E+02 -1.18487E+02 -1.03328E+02 -8.76795E+01 -7.90196E+01 -7.11161E+01 -6.37310E+01 -5.74266E+01
  -5.14150E+01 -4.48741E+01 -3.79617E+01 -3.04250E+01 -2.08373E+01 -9.49959E+00  1.51309E+00  1.51354E+01  3.57688E+01  5.00018E+01
   7.41178E+01  8.51133E+01 -1.12731E+01 -1.19255E+02 -1.25716E+02 -1.10936E+02 -1.13232E+02 -1.05733E+02 -1.00186E+02 -1.00373E+02
  -9.97214E+01 -9.86549E+01 -9.88464E+01 -9.85732E+01 -9.81952E+01 -9.70473E+01 -9.41477E+01 -9.07738E+01 -8.69113E+01 -8.34461E+01
  -8.05665E+01 -7.78676E+01 -7.63040E+01 -7.45999E+01 -7.18129E+01 -6.91359E+01 -6.72904E+01 -6.60762E+01 -6.47557E+01 -6.35895E+01
  -6.22461E+01 -6.04337E+01 -5.99242E+01 -6.06325E+01 -6.03107E+01 -5.81978E+01 -5.57974E+01 -5.62239E+01 -5.91063E+01 -5.92715E+01
  -5.24596E+01 -3.87090E+01 -2.69700E+01 -3.04833E+01 -4.33008E+01 -4.39690E+01 -3.15633E+01 -2.18343E+01 -2.60488E+01 -4.25286E+01
  -5.33248E+01 -5.56556E+01 -5.97137E+01 -6.29878E+01 -6.33949E+01 -6.31668E+01 -6.24923E+01 -6.15928E+01 -5.95852E+01 -5.86683E+01
  -5.79778E+01 -5.46523E+01 -5.59134E+01 -5.55433E+01 -4.31701E+01 -3.92876E+01 -4.66957E+01 -4.33156E+01 -3.57099E+01 -3.34244E+01
  -3.41293E+01 -3.33712E+01 -2.34024E+01 -1.33916E+01 -1.54178E+01 -2.28227E+01 -2.72793E+01 -3.51005E+01 -4.77565E+01 -5.58096E+01
  -5.97041E+01 -6.57962E+01 -6.11180E+01 -4.78447E+01 -3.35796E+01  1.40736E+00  2.31796E+01  2.09509E+01  2.58855E+01  1.67897E+01
  -1.48130E+00 -4.51633E+00 -3.98704E+00 -1.88773E+00  1.30435E+00  1.27653E+00 -4.40897E-01 -5.79756E+00 -1.46225E+01 -2.42043E+01
  -3.49429E+01 -4.67300E+01 -5.79188E+01 -6.71568E+01 -7.77371E+01 -8.69207E+01 -8.97154E+01 -9.40046E+01 -9.53546E+01 -8.82218E+01
  -8.59496E+01 -7.87796E+01 -6.44724E+01 -5.46025E+01 -4.04969E+01 -3.28575E+01 -3.26120E+01 -3.20218E+01 -3.82909E+01 -4.12521E+01
  -4.27084E+01 -4.57015E+01 -4.74509E+01 -5.37236E+01 -4.64148E+01 -7.16209E+01 -1.19233E+02 -3.55633E+01  1.04028E+02  1.29681E+02
   1.08543E+02  1.05638E+02  9.46021E+01  8.29059E+01  7.83837E+01  7.45923E+01  7.05022E+01  6.69908E+01  6.36973E+01  6.07547E+01
   5.97422E+01  5.94496E+01  5.93497E+01  5.98005E+01  5.97529E+01  5.91230E+01  5.80049E+01  5.69790E+01  5.63839E+01  5.51387E+01
   5.32204E+01  5.10402E+01  4.89011E+01  4.73312E+01  4.53564E+01  4.27194E+01  4.07119E+01  3.84957E+01  3.58194E+01  3.27360E+01
   2.84382E+01  2.42146E+01  2.01304E+01  1.51626E+01  1.11194E+01  9.48655E+00  9.90944E+00  1.19391E+01  1.47169E+01  1.73126E+01
   1.99237E+01  2.32930E+01  2.66594E+01  2.95039E+01  3.21952E+01  3.46600E+01  3.67152E+01  3.90173E+01  4.23208E+01  4.55229E+01
   4.77282E+01  4.97068E+01  5.14196E+01  5.31929E+01  5.52637E+01  5.62120E+01  5.63317E+01  5.66605E+01  5.57582E+01  5.37961E+01
   5.22292E+01  5.02749E+01  4.30081E+01  3.23980E+01  2.58394E+01  1.88060E+01  1.13136E+01  5.41293E+00 -3.31581E+00 -1.30400E+01
  -2.11716E+01 -2.84811E+01 -3.35143E+01 -3.50058E+01 -3.28328E+01 -2.74065E+01 -1.94190E+01 -1.02213E+01 -1.84886E+00  6.86989E+00
   1.07057E+01 -3.17625E+00 -1.91995E+01 -2.79444E+01 -3.85547E+01 -3.50267E+01 -2.11366E+01 -1.57013E+01 -1.24939E+01 -8.62708E+00
  -8.54863E+00 -1.02980E+01 -1.32099E+01 -1.80509E+01 -2.37658E+01 -2.82931E+01 -3.06124E+01 -3.13864E+01 -3.07406E+01 -2.84720E+01
  -2.54268E+01 -2.16529E+01 -1.72721E+01 -1.29502E+01 -9.04316E+00 -5.38085E+00 -1.87977E+00  1.30248E+00  4.43154E+00  7.85134E+00
   1.11352E+01  1.40210E+01  1.74195E+01  2.11040E+01  2.45024E+01  2.91024E+01  3.46008E+01  3.96610E+01  4.58605E+01  5.36092E+01
   6.06251E+01  6.77522E+01  7.70040E+01  8.69360E+01  9.56401E+01  1.02889E+02  1.07114E+02  1.05945E+02  9.82614E+01  8.56418E+01
   7.13414E+01  5.89904E+01  4.91697E+01  4.06632E+01  3.41500E+01  2.84569E+01  2.04807E+01  9.99339E+00 -3.21477E-01 -1.06171E+01
  -2.10987E+01 -2.86493E+01 -3.36332E+01 -3.81925E+01 -4.15427E+01 -4.32891E+01 -4.41175E+01 -4.50864E+01 -4.61812E+01 -4.71546E+01
  -4.80862E+01 -4.85422E+01 -4.84391E+01 -4.83344E+01 -4.85702E+01 -4.83485E+01 -4.76628E+01 -4.75409E+01 -4.84073E+01 -4.84731E+01
  -4.70230E+01 -4.66246E+01 -4.71757E+01 -4.69593E+01 -4.64072E+01 -4.62043E+01 -4.62886E+01 -4.63803E+01 -4.58005E+01 -4.46722E+01
  -4.43120E+01 -4.45300E+01 -4.45338E+01 -4.46164E+01 -4.47450E+01 -4.41741E+01 -4.35505E+01 -4.33810E+01 -4.28181E+01 -4.22681E+01
  -4.20571E+01 -4.16544E+01 -4.11685E+01 -4.11012E+01 -4.14456E+01 -4.18158E+01 -4.14396E+01 -4.05880E+01 -4.03725E+01 -4.01254E+01
  -3.95537E+01 -3.98725E+01 -4.00889E+01 -3.91864E+01 -3.85642E+01 -3.84083E+01 -3.78734E+01 -3.75616E+01 -3.73596E+01 -3.68701E+01
  -3.64246E+01 -3.64546E+01 -3.64934E+01 -3.65608E+01 -3.65334E+01 -3.62130E+01 -3.57389E+01 -3.47091E+01 -3.35172E+01 -3.30989E+01
  -3.33617E+01 -3.37158E+01 -3.38824E+01 -3.35692E+01 -3.27962E+01 -3.25834E+01 -3.25531E+01 -3.17864E+01 -3.16655E+01 -3.21522E+01
 NY background values follow
    -4.173E+01   -4.167E+01   -4.161E+01   -4.155E+01   -4.149E+01   -4.143E+01   -4.138E+01   -4.132E+01   -4.126E+01   -4.120E+01
    -4.114E+01   -4.108E+01   -4.102E+01   -4.096E+01   -4.090E+01   -4.084E+01   -4.078E+01   -4.072E+01   -4.066E+01   -4.060E+01
    -4.054E+01   -4.048E+01   -4.041E+01   -4.035E+01   -4.029E+01   -4.022E+01   -4.016E+01   -4.009E+01   -4.003E+01   -3.996E+01
    -3.989E+01   -3.983E+01   -3.976E+01   -3.969E+01   -3.962E+01   -3.955E+01   -3.948E+01   -3.941E+01   -3.933E+01   -3.926E+01
    -3.919E+01   -3.911E+01   -3.904E+01   -3.896E+01   -3.888E+01   -3.881E+01   -3.873E+01   -3.865E+01   -3.857E+01   -3.849E+01
    -3.841E+01   -3.833E+01   -3.824E+01   -3.816E+01   -3.808E+01   -3.799E+01   -3.791E+01   -3.782E+01   -3.773E+01   -3.765E+01
    -3.756E+01   -3.747E+01   -3.738E+01   -3.729E+01   -3.720E+01   -3.711E+01   -3.701E+01   -3.692E+01   -3.682E+01   -3.673E+01
    -3.663E+01   -3.654E+01   -3.644E+01   -3.634E+01   -3.624E+01   -3.614E+01   -3.604E+01   -3.594E+01   -3.583E+01   -3.573E+01
    -3.562E+01   -3.552E+01   -3.541E+01   -3.530E+01   -3.520E+01   -3.509E+01   -3.498E+01   -3.486E+01   -3.475E+01   -3.464E+01
    -3.453E+01   -3.441E+01   -3.430E+01   -3.418E+01   -3.406E+01   -3.394E+01   -3.382E+01   -3.370E+01   -3.358E+01   -3.346E+01
    -3.333E+01   -3.321E+01   -3.308E+01   -3.296E+01   -3.283E+01   -3.270E+01   -3.257E+01   -3.244E+01   -3.231E+01   -3.217E+01
    -3.204E+01   -3.191E+01   -3.177E+01   -3.163E+01   -3.149E+01   -3.135E+01   -3.121E+01   -3.107E+01   -3.093E+01   -3.079E+01
    -3.064E+01   -3.050E+01   -3.035E+01   -3.020E+01   -3.005E+01   -2.990E+01   -2.975E+01   -2.960E+01   -2.944E+01   -2.929E+01
    -2.914E+01   -2.898E+01   -2.882E+01   -2.867E+01   -2.851E+01   -2.835E+01   -2.819E+01   -2.803E+01   -2.787E+01   -2.771E+01
    -2.755E+01   -2.739E+01   -2.723E+01   -2.707E+01   -2.690E+01   -2.674E+01   -2.658E+01   -2.641E+01   -2.625E+01   -2.609E+01
    -2.592E+01   -2.576E+01   -2.559E+01   -2.543E+01   -2.527E+01   -2.510E+01   -2.494E+01   -2.477E+01   -2.461E+01   -2.445E+01
    -2.428E+01   -2.412E+01   -2.396E+01   -2.379E+01   -2.363E+01   -2.347E+01   -2.331E+01   -2.315E+01   -2.298E+01   -2.282E+01
    -2.266E+01   -2.250E+01   -2.234E+01   -2.219E+01   -2.203E+01   -2.187E+01   -2.172E+01   -2.156E+01   -2.140E+01   -2.125E+01
    -2.110E+01   -2.094E+01   -2.079E+01   -2.064E+01   -2.049E+01   -2.034E+01   -2.020E+01   -2.005E+01   -1.990E+01   -1.976E+01
    -1.961E+01   -1.947E+01   -1.933E+01   -1.919E+01   -1.905E+01   -1.891E+01   -1.877E+01   -1.864E+01   -1.850E+01   -1.837E+01
    -1.823E+01   -1.810E+01   -1.797E+01   -1.784E+01   -1.771E+01   -1.759E+01   -1.746E+01   -1.734E+01   -1.721E+01   -1.709E+01
    -1.697E+01   -1.686E+01   -1.674E+01   -1.662E+01   -1.651E+01   -1.640E+01   -1.628E+01   -1.617E+01   -1.607E+01   -1.596E+01
    -1.586E+01   -1.575E+01   -1.565E+01   -1.555E+01   -1.545E+01   -1.536E+01   -1.527E+01   -1.517E+01   -1.508E+01   -1.499E+01
    -1.491E+01   -1.482E+01   -1.474E+01   -1.466E+01   -1.458E+01   -1.451E+01   -1.443E+01   -1.436E+01   -1.429E+01   -1.423E+01
    -1.416E+01   -1.410E+01   -1.404E+01   -1.398E+01   -1.393E+01   -1.387E+01   -1.382E+01   -1.377E+01   -1.372E+01   -1.368E+01
    -1.364E+01   -1.360E+01   -1.356E+01   -1.352E+01   -1.349E+01   -1.345E+01   -1.342E+01   -1.339E+01   -1.336E+01   -1.334E+01
    -1.332E+01   -1.329E+01   -1.327E+01   -1.326E+01   -1.324E+01   -1.322E+01   -1.321E+01   -1.320E+01   -1.319E+01   -1.318E+01
    -1.318E+01   -1.317E+01   -1.317E+01   -1.317E+01   -1.317E+01   -1.317E+01   -1.317E+01   -1.318E+01   -1.319E+01   -1.320E+01
    -1.321E+01   -1.322E+01   -1.324E+01   -1.325E+01   -1.327E+01   -1.329E+01   -1.332E+01   -1.334E+01   -1.337E+01   -1.340E+01
    -1.344E+01   -1.347E+01   -1.351E+01   -1.355E+01   -1.359E+01   -1.364E+01   -1.369E+01   -1.374E+01   -1.379E+01   -1.385E+01
    -1.391E+01   -1.397E+01   -1.403E+01   -1.410E+01   -1.417E+01   -1.424E+01   -1.432E+01   -1.440E+01   -1.448E+01   -1.456E+01
    -1.465E+01   -1.474E+01   -1.483E+01   -1.492E+01   -1.502E+01   -1.512E+01   -1.522E+01   -1.533E+01   -1.544E+01   -1.555E+01
    -1.566E+01   -1.578E+01   -1.590E+01   -1.602E+01   -1.615E+01   -1.628E+01   -1.641E+01   -1.654E+01   -1.668E+01   -1.682E+01
    -1.696E+01   -1.711E+01   -1.726E+01   -1.741E+01   -1.756E+01   -1.771E+01   -1.787E+01   -1.803E+01   -1.819E+01   -1.835E+01
    -1.851E+01   -1.868E+01   -1.884E+01   -1.901E+01   -1.918E+01   -1.934E+01   -1.951E+01   -1.968E+01   -1.985E+01   -2.001E+01
    -2.018E+01   -2.035E+01   -2.052E+01   -2.068E+01   -2.085E+01   -2.101E+01   -2.118E+01   -2.134E+01   -2.150E+01   -2.166E+01
    -2.182E+01   -2.197E+01   -2.212E+01   -2.228E+01   -2.243E+01   -2.257E+01   -2.272E+01   -2.287E+01   -2.301E+01   -2.315E+01
    -2.329E+01   -2.342E+01   -2.356E+01   -2.369E+01   -2.382E+01   -2.395E+01   -2.408E+01   -2.420E+01   -2.432E+01   -2.444E+01
    -2.456E+01   -2.468E+01   -2.479E+01   -2.490E+01   -2.501E+01   -2.512E+01   -2.522E+01   -2.532E+01   -2.543E+01   -2.552E+01
    -2.562E+01   -2.571E+01   -2.580E+01   -2.589E+01   -2.598E+01   -2.606E+01   -2.614E+01   -2.622E+01   -2.630E+01   -2.638E+01
    -2.645E+01   -2.652E+01   -2.659E+01   -2.666E+01   -2.673E+01   -2.679E+01   -2.686E+01   -2.692E+01   -2.698E+01   -2.703E+01
    -2.709E+01   -2.714E+01   -2.720E+01   -2.725E+01   -2.730E+01   -2.735E+01   -2.739E+01   -2.744E+01   -2.748E+01   -2.752E+01
    -2.756E+01   -2.760E+01   -2.764E+01   -2.768E+01   -2.772E+01   -2.775E+01   -2.779E+01   -2.782E+01   -2.785E+01   -2.788E+01
    -2.791E+01   -2.794E+01   -2.797E+01   -2.800E+01   -2.802E+01   -2.805E+01   -2.807E+01   -2.810E+01   -2.812E+01   -2.814E+01
    -2.816E+01   -2.818E+01   -2.820E+01   -2.822E+01   -2.824E+01   -2.826E+01   -2.828E+01   -2.830E+01   -2.831E+01   -2.833E+01
    -2.835E+01   -2.836E+01   -2.838E+01   -2.839E+01   -2.841E+01   -2.842E+01   -2.844E+01   -2.845E+01   -2.847E+01   -2.848E+01
    -2.849E+01   -2.851E+01   -2.852E+01   -2.853E+01   -2.855E+01   -2.856E+01   -2.857E+01   -2.858E+01   -2.860E+01   -2.861E+01
    -2.862E+01   -2.863E+01   -2.864E+01   -2.866E+01   -2.867E+01   -2.868E+01   -2.869E+01   -2.870E+01   -2.872E+01   -2.873E+01
 Mac      Conc. = 3.10E-04
  -6.44302E+01 -6.46559E+01 -6.47088E+01 -6.46459E+01 -6.47062E+01 -6.56703E+01 -6.75556E+01 -6.97954E+01 -7.18976E+01 -7.34565E+01
  -7.41120E+01 -7.38791E+01 -7.36722E+01 -7.36409E+01 -7.48644E+01 -7.78051E+01 -8.08882E+01 -8.05180E+01 -7.40405E+01 -6.74750E+01
  -6.42549E+01 -5.95812E+01 -5.46826E+01 -5.31869E+01 -5.29439E+01 -5.18333E+01 -5.01030E+01 -4.81818E+01 -4.56245E+01 -4.30872E+01
  -4.14227E+01 -4.00574E+01 -3.88288E+01 -3.83563E+01 -3.91632E+01 -4.03948E+01 -4.02122E+01 -3.77403E+01 -3.38280E+01 -3.10073E+01
  -3.10861E+01 -3.22859E+01 -3.21450E+01 -3.08137E+01 -2.87269E+01 -2.68276E+01 -2.63238E+01 -2.68130E+01 -2.77783E+01 -2.91394E+01
  -3.10619E+01 -3.26762E+01 -3.34370E+01 -3.41148E+01 -3.46728E+01 -3.50365E+01 -3.51157E+01 -3.36604E+01 -3.12077E+01 -3.00499E+01
  -2.87079E+01 -2.59711E+01 -2.49779E+01 -2.57762E+01 -2.65778E+01 -2.79234E+01 -2.89500E+01 -2.93378E+01 -3.00002E+01 -3.10162E+01
  -3.00903E+01 -2.61386E+01 -2.23126E+01 -2.03831E+01 -1.91547E+01 -1.85501E+01 -1.87965E+01 -1.97429E+01 -2.08544E+01 -2.15361E+01
  -2.19558E+01 -2.25162E+01 -2.31458E+01 -2.26807E+01 -2.13387E+01 -2.05505E+01 -1.94994E+01 -1.82309E+01 -1.73955E+01 -1.69001E+01
  -1.63242E+01 -1.55453E+01 -1.51182E+01 -1.50194E+01 -1.50663E+01 -1.67877E+01 -1.95541E+01 -2.21477E+01 -2.51549E+01 -2.78033E+01
  -2.88837E+01 -3.01345E+01 -3.27911E+01 -3.57775E+01 -3.96267E+01 -4.59717E+01 -5.45525E+01 -6.33180E+01 -6.85836E+01 -6.94569E+01
