 
 $NMID
 ID=''
 FMTDAT='(2E13.5)'
 TRAMP=   1.00000E+0
 VOLUME=   1.00000E+0
 $END
   3.81762E+2   5.37037E+5
  -4.89955E+5   1.34739E+6
  -3.22829E+5   1.36721E+6
  -3.93205E+5   1.25803E+6
  -4.80166E+5   1.28946E+6
  -4.74141E+5   1.25524E+6
  -5.25613E+5   1.18926E+6
  -5.70284E+5   1.20927E+6
  -5.54419E+5   1.19314E+6
  -5.88468E+5   1.15142E+6
  -6.16810E+5   1.14878E+6
  -6.10958E+5   1.11834E+6
  -6.39407E+5   1.08505E+6
  -6.59016E+5   1.08456E+6
  -6.54739E+5   1.06026E+6
  -6.70436E+5   1.03182E+6
  -6.89342E+5   1.02733E+6
  -7.02659E+5   9.94107E+5
  -7.33280E+5   9.56554E+5
  -7.51987E+5   9.40660E+5
  -7.64823E+5   9.10266E+5
  -7.88175E+5   8.79688E+5
  -7.99871E+5   8.61364E+5
  -8.08231E+5   8.31990E+5
  -8.27017E+5   8.01686E+5
  -8.31934E+5   7.86813E+5
  -8.33871E+5   7.65428E+5
  -8.43462E+5   7.46552E+5
  -8.46461E+5   7.28354E+5
  -8.48739E+5   7.04390E+5
  -8.62427E+5   6.80074E+5
  -8.68962E+5   6.58234E+5
  -8.75953E+5   6.30143E+5
  -8.86383E+5   6.04408E+5
  -8.91670E+5   5.79016E+5
  -8.98401E+5   5.50302E+5
  -9.10498E+5   5.24374E+5
  -9.16950E+5   4.98411E+5
  -9.18244E+5   4.71713E+5
  -9.22131E+5   4.50463E+5
  -9.23280E+5   4.30119E+5
  -9.22926E+5   4.07874E+5
  -9.22210E+5   3.89581E+5
  -9.22001E+5   3.72442E+5
  -9.21718E+5   3.52212E+5
  -9.22533E+5   3.33422E+5
  -9.22608E+5   3.13204E+5
  -9.22364E+5   2.88716E+5
  -9.20956E+5   2.64929E+5
  -9.19202E+5   2.42770E+5
  -9.18970E+5   2.20346E+5
  -9.18320E+5   1.97213E+5
  -9.16375E+5   1.75269E+5
  -9.14491E+5   1.53596E+5
  -9.11696E+5   1.33031E+5
  -9.07547E+5   1.12979E+5
  -9.02864E+5   9.40625E+4
  -8.97537E+5   7.62120E+4
  -8.91464E+5   5.98757E+4
  -8.86890E+5   4.31411E+4
  -8.81934E+5   2.56921E+4
  -8.76099E+5   8.90953E+3
  -8.70402E+5  -8.80435E+3
  -8.63582E+5  -2.71076E+4
  -8.55706E+5  -4.52051E+4
  -8.47277E+5  -6.15841E+4
  -8.39177E+5  -7.77354E+4
  -8.30625E+5  -9.37807E+4
  -8.22717E+5  -1.09528E+5
  -8.14868E+5  -1.25197E+5
  -8.05709E+5  -1.40410E+5
  -7.95401E+5  -1.53403E+5
  -7.86891E+5  -1.65870E+5
  -7.77817E+5  -1.79304E+5
  -7.67457E+5  -1.92709E+5
  -7.56672E+5  -2.05158E+5
  -7.46443E+5  -2.17342E+5
  -7.36047E+5  -2.30389E+5
  -7.24871E+5  -2.43247E+5
  -7.12660E+5  -2.55431E+5
  -7.00909E+5  -2.67289E+5
  -6.89100E+5  -2.78373E+5
  -6.76578E+5  -2.89308E+5
  -6.64399E+5  -2.99598E+5
  -6.51610E+5  -3.09594E+5
  -6.39541E+5  -3.18052E+5
  -6.27066E+5  -3.25874E+5
  -6.15190E+5  -3.33646E+5
  -6.02773E+5  -3.40898E+5
  -5.90903E+5  -3.47155E+5
  -5.78392E+5  -3.53194E+5
  -5.66419E+5  -3.59792E+5
  -5.53807E+5  -3.66327E+5
  -5.40433E+5  -3.72455E+5
  -5.26951E+5  -3.77746E+5
  -5.13902E+5  -3.82611E+5
  -5.01772E+5  -3.87872E+5
  -4.88834E+5  -3.93386E+5
  -4.75336E+5  -3.97852E+5
  -4.62860E+5  -4.01237E+5
  -4.50538E+5  -4.04588E+5
  -4.38035E+5  -4.08576E+5
  -4.24473E+5  -4.11251E+5
  -4.11781E+5  -4.12913E+5
  -4.00269E+5  -4.14580E+5
  -3.88940E+5  -4.15854E+5
  -3.77195E+5  -4.17879E+5
  -3.64350E+5  -4.18914E+5
  -3.51942E+5  -4.19840E+5
  -3.40398E+5  -4.19782E+5
  -3.29077E+5  -4.20030E+5
  -3.17716E+5  -4.20808E+5
  -3.05421E+5  -4.21558E+5
  -2.93387E+5  -4.21763E+5
  -2.81970E+5  -4.21627E+5
  -2.70604E+5  -4.21498E+5
  -2.58970E+5  -4.21116E+5
  -2.47009E+5  -4.20269E+5
  -2.36437E+5  -4.18247E+5
  -2.26236E+5  -4.16618E+5
  -2.16436E+5  -4.15177E+5
  -2.05898E+5  -4.13982E+5
  -1.95824E+5  -4.12122E+5
  -1.85839E+5  -4.10299E+5
  -1.75468E+5  -4.08271E+5
  -1.65477E+5  -4.05454E+5
  -1.56012E+5  -4.02612E+5
  -1.46652E+5  -3.99808E+5
  -1.37249E+5  -3.97177E+5
  -1.28067E+5  -3.94652E+5
  -1.18633E+5  -3.91828E+5
  -1.08834E+5  -3.88427E+5
  -1.00363E+5  -3.84668E+5
  -9.19325E+4  -3.81090E+5
  -8.32979E+4  -3.78004E+5
  -7.48286E+4  -3.73491E+5
  -6.72604E+4  -3.69561E+5
  -5.98288E+4  -3.65612E+5
  -5.19139E+4  -3.61465E+5
  -4.42821E+4  -3.57098E+5
  -3.70312E+4  -3.52265E+5
  -3.00540E+4  -3.47719E+5
  -2.37243E+4  -3.42837E+5
  -1.72882E+4  -3.38315E+5
  -1.08228E+4  -3.33786E+5
  -4.72961E+3  -3.28601E+5
   1.15946E+3  -3.23411E+5
   6.71211E+3  -3.18026E+5
   1.21324E+4  -3.12869E+5
   1.71520E+4  -3.07659E+5
   2.20509E+4  -3.02187E+5
   2.66621E+4  -2.96893E+5
   3.06819E+4  -2.91756E+5
   3.51827E+4  -2.86677E+5
   3.97147E+4  -2.81276E+5
   4.35683E+4  -2.75888E+5
   4.71323E+4  -2.70407E+5
   5.08756E+4  -2.65177E+5
   5.46082E+4  -2.59839E+5
   5.78242E+4  -2.54289E+5
   6.08438E+4  -2.49142E+5
   6.39361E+4  -2.43713E+5
   6.68784E+4  -2.38233E+5
   6.96173E+4  -2.32962E+5
   7.19328E+4  -2.27480E+5
   7.41776E+4  -2.22305E+5
   7.66782E+4  -2.17251E+5
   7.90375E+4  -2.12136E+5
   8.07454E+4  -2.06924E+5
   8.25385E+4  -2.01910E+5
   8.40821E+4  -1.96680E+5
   8.58006E+4  -1.91907E+5
   8.72274E+4  -1.87237E+5
   8.86870E+4  -1.82113E+5
   8.99718E+4  -1.77230E+5
   9.13200E+4  -1.72426E+5
   9.25540E+4  -1.67743E+5
   9.39871E+4  -1.63063E+5
   9.44870E+4  -1.57847E+5
   9.54126E+4  -1.53251E+5
   9.64155E+4  -1.48945E+5
   9.72796E+4  -1.44579E+5
   9.79002E+4  -1.40158E+5
   9.85468E+4  -1.35695E+5
   9.86040E+4  -1.31384E+5
   9.94146E+4  -1.27007E+5
   9.94834E+4  -1.22919E+5
   9.97400E+4  -1.19061E+5
   9.97454E+4  -1.14954E+5
   9.97830E+4  -1.11341E+5
   1.00017E+5  -1.07705E+5
   1.00070E+5  -1.03604E+5
   9.99600E+4  -9.95623E+4
   9.96588E+4  -9.59699E+4
   9.95568E+4  -9.23199E+4
   9.93714E+4  -8.89846E+4
   9.90806E+4  -8.51720E+4
   9.87972E+4  -8.17163E+4
   9.84244E+4  -7.85089E+4
   9.80126E+4  -7.50593E+4
   9.77750E+4  -7.15060E+4
   9.69938E+4  -6.83035E+4
   9.62296E+4  -6.50835E+4
   9.56342E+4  -6.24080E+4
   9.49994E+4  -5.92596E+4
   9.40979E+4  -5.62567E+4
   9.33366E+4  -5.33412E+4
   9.24613E+4  -5.04739E+4
   9.16295E+4  -4.78381E+4
   9.06572E+4  -4.50627E+4
   8.95977E+4  -4.22745E+4
   8.86893E+4  -3.96194E+4
   8.74602E+4  -3.74799E+4
   8.66863E+4  -3.48762E+4
   8.53995E+4  -3.26787E+4
   8.41880E+4  -3.01107E+4
   8.29556E+4  -2.81885E+4
   8.19099E+4  -2.58002E+4
   8.06662E+4  -2.42024E+4
   7.92424E+4  -2.17700E+4
   7.78368E+4  -2.01504E+4
   7.66306E+4  -1.81255E+4
   7.55929E+4  -1.63688E+4
   7.43106E+4  -1.46234E+4
   7.29039E+4  -1.31378E+4
   7.16427E+4  -1.13659E+4
   7.02525E+4  -9.83110E+3
   6.87750E+4  -8.60679E+3
   6.76244E+4  -7.01727E+3
   6.62314E+4  -5.78993E+3
   6.46143E+4  -4.49275E+3
   6.33613E+4  -3.29584E+3
   6.18984E+4  -2.20995E+3
   6.05684E+4  -1.26789E+3
   5.89778E+4  -2.99291E+2
   5.78907E+4   6.15984E+2
   5.64118E+4   1.19060E+3
   5.51323E+4   2.20236E+3
   5.37829E+4   2.79637E+3
   5.24745E+4   3.63507E+3
   5.11993E+4   4.31687E+3
   4.98922E+4   4.79686E+3
   4.89272E+4   5.39570E+3
   4.75683E+4   5.89437E+3
   4.63947E+4   6.50620E+3
   4.53664E+4   7.00815E+3
   4.41119E+4   7.28932E+3
   4.29858E+4   7.85338E+3
   4.16630E+4   8.16765E+3
   4.06486E+4   8.29502E+3
   3.95716E+4   8.72969E+3
   3.85534E+4   9.03331E+3
   3.73659E+4   9.11575E+3
   3.62733E+4   9.24746E+3
   3.54512E+4   9.65788E+3
   3.43768E+4   9.76348E+3
   3.35633E+4   9.99515E+3
   3.24034E+4   1.01352E+4
   3.15509E+4   1.02182E+4
   3.08758E+4   1.03169E+4
   2.97840E+4   1.03288E+4
   2.88736E+4   1.04505E+4
   2.81974E+4   1.04572E+4
   2.71431E+4   1.05609E+4
   2.64098E+4   1.05342E+4
   2.56974E+4   1.03788E+4
   2.50204E+4   1.05411E+4
   2.41781E+4   1.06639E+4
   2.35377E+4   1.06266E+4
   2.26303E+4   1.04997E+4
   2.21402E+4   1.05233E+4
   2.13105E+4   1.04063E+4
   2.09955E+4   1.02145E+4
   2.04078E+4   1.01873E+4
   1.96565E+4   9.95567E+3
   1.93980E+4   1.01206E+4
   1.88355E+4   9.85846E+3
   1.83176E+4   9.56917E+3
   1.75047E+4   9.59138E+3
   1.68548E+4   9.60766E+3
   1.65575E+4   9.40060E+3
   1.62796E+4   8.90254E+3
   1.59415E+4   8.79115E+3
   1.55724E+4   8.91947E+3
   1.51947E+4   8.89231E+3
   1.46342E+4   8.78540E+3
   1.44919E+4   8.15543E+3
   1.40097E+4   7.93459E+3
   1.36905E+4   7.85793E+3
   1.33945E+4   7.66068E+3
   1.32198E+4   7.47536E+3
   1.31263E+4   7.36578E+3
   1.29164E+4   7.20568E+3
   1.24887E+4   6.86549E+3
   1.25299E+4   6.65654E+3
   1.24121E+4   6.60211E+3
   1.20647E+4   6.33839E+3
   1.19175E+4   5.99766E+3
   1.20374E+4   5.83618E+3
   1.16510E+4   5.71628E+3
   1.16273E+4   5.29613E+3
   1.16276E+4   5.20446E+3
   1.17016E+4   4.94747E+3
   1.15492E+4   5.00281E+3
   1.16515E+4   4.72464E+3
   1.16080E+4   4.66423E+3
   1.17281E+4   4.28800E+3
   1.13485E+4   4.18089E+3
   1.16092E+4   4.28837E+3
   1.15015E+4   3.78511E+3
   1.14136E+4   3.81777E+3
   1.14595E+4   3.50128E+3
   1.14825E+4   3.31674E+3
   1.15694E+4   3.17780E+3
   1.15809E+4   2.94716E+3
   1.16259E+4   2.88703E+3
   1.14632E+4   2.60458E+3
   1.18514E+4   2.58388E+3
   1.19234E+4   2.48313E+3
   1.19446E+4   2.53504E+3
   1.16801E+4   2.47221E+3
   1.20925E+4   2.05530E+3
   1.18614E+4   2.03074E+3
   1.22528E+4   2.09933E+3
   1.22166E+4   1.78791E+3
   1.21197E+4   1.92869E+3
   1.24149E+4   1.85196E+3
   1.28115E+4   1.66245E+3
   1.27004E+4   1.70277E+3
   1.28028E+4   1.74617E+3
   1.26267E+4   1.65323E+3
   1.29174E+4   1.72991E+3
   1.30145E+4   1.57327E+3
   1.30557E+4   1.70583E+3
   1.34073E+4   1.49023E+3
   1.33785E+4   1.48366E+3
   1.34024E+4   1.61577E+3
   1.35522E+4   1.69085E+3
   1.36250E+4   1.36578E+3
   1.36847E+4   1.58017E+3
   1.39939E+4   1.57633E+3
   1.40442E+4   1.61622E+3
   1.41057E+4   1.61434E+3
   1.43781E+4   1.59813E+3
   1.41445E+4   1.48556E+3
   1.45101E+4   1.75224E+3
   1.45741E+4   1.80903E+3
   1.48733E+4   1.96348E+3
   1.47818E+4   1.94771E+3
   1.49335E+4   2.00338E+3
   1.49479E+4   2.05449E+3
   1.51565E+4   2.11808E+3
   1.51743E+4   2.38130E+3
   1.51655E+4   2.32647E+3
   1.56066E+4   2.34005E+3
   1.54364E+4   2.79859E+3
   1.55316E+4   2.63883E+3
   1.58022E+4   2.32703E+3
   1.59722E+4   2.94352E+3
   1.59430E+4   2.89972E+3
   1.60621E+4   3.16961E+3
   1.62189E+4   3.18702E+3
   1.63436E+4   3.21980E+3
   1.63791E+4   3.24384E+3
   1.66654E+4   3.40247E+3
   1.66504E+4   3.68605E+3
   1.68258E+4   3.87530E+3
