 
 $NMID
 ID=''
 FMTDAT='(2E13.5)'
 TRAMP=   1.00000E+0
 VOLUME=   1.00000E+0
 $END
   1.55471E+4  -2.58416E+3
   1.56490E+4  -2.87630E+4
  -2.91851E+4  -1.51214E+4
  -5.98552E+3   3.19845E+4
   3.42842E+4   1.21733E+4
   3.78360E+3  -2.89894E+4
  -2.64146E+4  -5.95249E+3
   2.12983E+3   2.11068E+4
   2.03049E+4   1.68287E+3
   4.87557E+2  -1.07902E+4
  -9.82331E+3   2.70227E+3
  -4.78492E+2   7.40304E+3
   5.83521E+3   8.12451E+2
  -7.48633E+1  -2.09253E+3
  -7.40149E+3  -6.10537E+2
  -2.70177E+3   1.38238E+3
   5.29755E+3   1.11619E+3
   2.02907E+3  -8.44915E+1
  -2.35307E+3  -5.40721E+2
   2.06982E+2  -2.62241E+2
   4.16135E+2   4.16975E+2
  -6.65414E-1   1.22086E+2
   1.30420E+3  -1.53753E+3
  -2.07380E+2   3.09623E+2
  -2.12459E+3   1.28158E+3
   6.53448E+2  -1.42542E+3
   2.64498E+3  -1.06166E+3
  -3.05280E+2   2.54290E+3
  -1.80189E+3   7.47518E+2
   1.67863E+2  -1.68224E+3
   1.54235E+3   9.31115E+1
  -2.22834E+1   1.37036E+3
  -1.52634E+3   1.06530E+2
  -1.48458E+3  -3.39010E+2
  -1.37872E+3  -1.40998E+3
  -5.59926E+2  -2.18701E+3
   1.69546E+3  -1.45247E+1
   1.38658E+3   1.47630E+3
  -6.38769E+2  -4.10631E+1
  -5.61296E+2  -2.93895E+2
  -2.39784E+2   7.03006E+2
  -1.06914E+3   3.27070E+2
  -8.72584E+2  -1.35100E+3
   7.42575E+1  -1.18338E+3
   1.00008E+3  -4.93182E+2
   1.52491E+3   2.38528E+1
   9.36778E+2   9.70248E+2
  -1.16490E+3   1.70835E+3
  -2.15282E+3   5.67481E+2
  -8.34450E+2  -6.18013E+2
  -6.20420E+2  -7.62621E+2
  -5.49624E+2  -6.18849E+2
   1.84536E+2  -7.85711E+2
   9.01685E+2  -6.35394E+2
   6.40428E+2   3.13944E+2
   1.21347E+1   3.80013E+2
  -3.29100E+2   9.13057E+2
  -8.84527E+2  -3.70796E+2
  -6.86706E+2  -1.49979E+3
   2.14573E+2  -1.15214E+3
   5.58645E+2  -4.32850E+2
   8.34128E+2  -2.47429E+2
   9.57233E+2   6.31913E+2
   2.32079E+2   1.75924E+3
  -1.01306E+3   1.42524E+3
  -1.71174E+3   6.69904E+1
  -1.31051E+3  -7.32005E+2
  -5.92964E+2  -1.37763E+3
   5.22670E+2  -1.40884E+3
   6.92196E+2   1.28091E+2
  -5.35850E+2   5.90647E+2
  -1.00084E+3  -4.95032E+2
   6.97185E+2  -1.23058E+3
   1.14130E+3   3.11906E+1
  -4.61761E+1   8.98644E+2
  -5.17471E+2  -2.46749E+1
   5.02996E+1  -7.25701E+2
   5.37812E+2  -3.19927E+1
  -1.73179E+2   6.83029E+2
  -6.02462E+2   4.08466E+2
  -5.26901E+2  -1.39945E+1
  -1.02852E+2  -2.51669E+2
  -3.77281E+2  -3.10152E+1
  -2.11942E+2  -3.24664E+2
  -4.09445E+2  -3.29596E+2
  -5.41790E+1  -8.43182E+2
  -6.33241E+0  -5.72265E+2
   2.84924E+2  -1.67661E+2
   1.60056E+2   5.47248E+1
   4.90082E+1  -1.13539E+2
   4.51643E+2  -6.38628E+2
   7.28260E+2  -6.62435E+1
   6.04789E+2   6.31755E+2
  -6.73309E+2   1.00633E+3
  -1.22984E+3   2.87217E+2
  -5.63192E+2  -8.59889E+2
   3.54552E+2  -6.71684E+2
   1.32673E+2   4.85001E+2
  -7.72986E+2  -8.14703E+1
   4.82024E+1  -9.83464E+2
   1.04725E+3  -5.95831E+2
   7.44091E+2   7.34550E+2
  -4.93544E+2   5.13649E+2
  -9.72866E+2  -2.15342E+2
  -3.09744E+2  -7.08685E+2
   6.05478E+2  -5.25742E+2
   7.47169E+2   4.73270E+1
  -2.82758E+2   7.94124E+2
  -1.16639E+3   3.29491E+2
  -6.68170E+2  -9.12683E+2
   1.84344E+2  -1.20487E+3
   8.43328E+2  -1.87929E+2
   5.11635E+2   5.01423E+2
   8.93966E+1   8.59336E+1
   2.51882E+1  -2.44976E+2
   3.44156E+2   3.76531E+2
  -1.51996E+2   1.19841E+3
  -1.02884E+3   3.90033E+2
  -1.18461E+3  -5.77653E+2
  -4.31632E+2  -1.07859E+3
   5.50525E+2  -5.09795E+2
   3.73290E+2  -4.80470E+2
   5.43180E+2  -1.26364E+1
   2.78131E+2   2.03837E+2
   1.94469E+2   6.98638E+2
  -3.63198E+2   3.78744E+2
  -5.29764E+2  -4.47250E+2
   3.25176E+1  -2.95648E+2
   1.98006E+2  -2.55348E+2
   4.20501E+2   1.21212E+2
   5.18255E+2   6.98761E+2
  -3.72818E+1   8.34965E+2
  -3.91323E+2   2.32682E+2
   9.78735E+1  -2.66394E+2
   1.56833E+2  -8.51133E+0
  -3.25552E+2  -6.49208E+1
  -1.70170E+2  -4.92573E+2
   3.79152E+2  -2.63187E+2
   7.65284E+2   2.36229E+2
   2.89143E+2   6.91439E+2
  -6.42983E+2   6.42828E+2
  -2.05128E+2  -4.91879E+2
   2.02836E+2  -1.02309E+3
   8.30747E+2  -4.59845E+2
   9.31705E+2   7.15872E+2
   1.76867E+2   5.94348E+2
  -2.49975E+2   3.57321E+2
  -4.62780E+1   4.26562E+1
  -1.59304E+2   4.01147E+2
  -3.20247E+2  -1.67138E+1
  -5.44464E+2  -1.75964E+2
  -4.32926E+1  -8.16589E+2
   3.81380E+2  -3.29658E+2
   6.91445E+2   5.56567E+1
  -7.47113E+1   4.29100E+2
   4.56230E+1   1.62718E+2
   1.99895E+2  -7.83632E+1
   4.22892E+2  -4.21971E+1
   2.68408E+2   2.94090E+0
   2.71822E+2   7.02908E+1
   3.36885E+2   1.41999E+2
   4.58760E+2   1.42950E+2
  -1.96568E+2   3.07398E+2
  -2.63710E+2   1.83889E+2
  -2.43762E+2  -1.80500E+2
  -1.50248E+2  -6.09486E+2
   1.85806E+2  -3.67613E+2
   3.13307E+2   3.88569E+2
   5.08965E+1   1.84951E+2
  -1.97738E+2  -1.35683E+2
   1.33876E+2  -1.23485E+2
   3.12942E+2   2.91734E+2
   7.65001E+1   5.07384E+2
   5.76367E+1   1.04855E+2
  -2.06106E+2  -9.14484E+1
   1.94333E+2  -9.93655E+1
   7.88088E+1   3.74459E+2
  -2.53126E+2   1.39656E+2
  -4.60607E+2  -2.19119E+2
   1.66341E+2  -3.36551E+2
   4.24769E+2   8.20795E+1
   7.11323E+2   4.53656E+2
   4.34694E+1   3.95659E+2
  -2.96120E+2   3.45969E+2
  -3.22374E+2  -5.67145E+0
   4.42744E+1   3.25901E+1
  -1.42973E+2  -1.71152E+2
  -2.25446E+2  -2.10833E+2
  -7.67087E+1  -3.90090E+2
   6.48572E+2  -5.33639E+2
   8.10175E+2   1.71247E+2
   5.71669E+2   9.81515E+2
  -7.18673E+1   7.11924E+2
  -2.33077E+2  -2.50883E+1
  -1.88182E+2  -2.12149E+2
   1.96906E+2  -9.12054E+1
   2.20964E+2   4.72765E+1
   3.95484E+2  -7.01995E+1
  -6.11986E-1   2.29984E+2
   2.94290E+2   4.15974E+2
  -1.15519E+2   2.61227E+2
  -2.91431E+2   1.62403E+2
  -4.54922E+2  -2.80838E+2
  -3.73319E+1  -4.90165E+2
   5.81837E+2  -1.65239E+1
   8.90974E+1   1.46350E+2
   2.46208E+0   2.40602E+2
  -1.10463E+2  -9.30727E+1
   1.39443E+2  -4.10730E+1
   1.21952E+2   3.95697E+2
  -2.79014E+2   1.06936E+2
  -9.23591E+1  -3.17674E+2
   1.29714E+2  -3.29842E+2
   5.80349E+2   2.91280E+2
   3.73079E+2   7.73206E+2
  -2.23166E+2   4.65676E+2
  -4.51337E+2   2.36243E+2
  -1.17405E+2  -1.35335E+2
   5.86090E+1   5.85189E+1
   4.42157E+1   2.31996E+2
   9.58211E+1  -1.43896E+2
  -3.82776E+1  -2.75718E+2
   4.54202E+2   2.13381E+2
   2.20668E+2   4.49071E+2
  -9.41242E+1   4.75319E+2
  -4.03180E+2   8.62496E+1
  -1.14699E+2  -1.41422E+2
   3.85847E+2  -4.64255E+1
   2.40183E+2   3.76166E+2
   1.90958E+2   4.38907E+2
  -3.52241E+2   1.04749E+2
  -1.86490E+2   5.89654E+1
   1.10760E+2  -3.19715E+1
   2.07224E+2   1.68735E+2
  -2.93533E+2   8.74246E+1
  -4.56220E+1   1.06530E+2
   6.58056E+1   6.55102E+1
   9.16855E+1   9.04397E+1
   1.55373E+2   2.33767E+2
  -3.05084E+2   3.65035E+1
   1.05498E+2  -1.48526E+2
   2.69297E+2   2.23727E+2
   3.19158E+2   3.21452E+2
   3.67596E+2   4.63659E+2
  -3.42377E+2   6.73885E+1
   2.76245E+1  -5.49499E+1
   1.39995E+2   2.11804E+2
   8.32838E+1   2.39375E+2
  -1.89970E+2   7.68771E+1
  -2.86103E+1  -1.66596E+2
   2.23106E+2  -2.35301E+2
   4.17875E+2   4.11898E+2
  -1.51570E+2   5.94834E+2
  -4.93672E+2   1.96862E+2
  -3.73385E+1  -5.35190E+1
   1.68077E+2  -3.02015E+2
   2.52036E+2   1.29557E+2
   1.51036E+2   1.29957E+2
   1.97974E+2   1.24487E+2
   2.35236E+2   2.45679E+2
   1.92959E+2   3.94651E+2
  -3.30282E+2   5.18929E+2
  -4.15217E+2   4.21357E+2
  -3.31454E+2  -2.44379E+2
  -3.41596E+1  -3.41068E+2
   5.50412E+2  -5.64959E+1
   1.54404E+2   4.18483E+2
  -1.89591E+2   3.06149E+2
  -1.18951E+2  -8.88535E+1
  -1.92163E+2  -4.75443E+1
  -4.76310E+1  -1.84333E+2
  -2.44185E+2   9.75454E+1
  -7.13734E+1   2.60112E+1
   2.92828E+2  -2.06858E+2
   2.53173E+2   1.15737E+2
   6.83763E+1   2.24004E+2
  -3.11298E+2   4.44864E+2
  -1.14457E+2  -2.55596E+2
  -2.54848E+2  -1.05020E+2
   2.59129E+2  -8.01137E+0
  -3.71841E+1   2.66054E+2
   7.20588E+1   2.29960E+2
  -6.86208E+1  -3.52981E+1
   1.49830E+1   2.05637E+2
  -4.92822E+1   1.73571E+2
  -4.55598E+2   4.43261E+2
  -4.45678E+2  -1.01951E+2
   1.76999E+2  -1.24019E+2
   2.50770E+2  -2.71257E+2
   4.14838E+2   1.85764E+2
   3.04848E+2   3.63158E+2
  -1.37006E+2   1.27462E+2
  -1.78039E+2   1.33242E+2
  -2.45691E+1   4.84372E+1
   3.98730E+1   2.24084E+1
  -1.58656E+2   1.06923E+1
   7.16634E+1  -1.08432E+2
   2.14622E+2   5.67196E+1
   2.74973E+2   7.90429E+1
  -1.04912E+2   2.04657E+2
  -1.56111E+2  -1.56936E+2
   1.86666E+2  -5.98111E+1
   4.33280E+2  -3.38306E+1
   1.23214E+2   2.94805E+2
  -1.61606E+2   3.28135E+2
  -2.63774E+2  -1.91882E+1
  -3.25230E+1  -1.53341E+2
  -1.74828E+1  -8.42355E+1
  -1.00872E+1  -1.58253E+2
  -1.85049E+2   5.86577E+1
   1.17020E+2  -2.60069E+2
   2.79976E+2  -2.25674E+2
   1.66796E+2   5.89879E+1
   2.02730E+2   2.88290E+2
  -3.20938E+2  -6.59309E+1
  -1.91665E+2  -5.77130E+1
   2.00702E+2   2.53497E+1
  -1.32486E+2   1.91028E+2
  -1.65555E+2   1.84485E+0
  -1.02546E+2   1.34666E+2
   9.62428E+1   1.05409E+2
   2.05079E+2   1.17276E+1
  -1.09587E+2   9.67608E+1
  -1.87907E+2   8.71447E+1
   2.11946E+1  -2.02541E+2
  -4.76794E+1  -6.99319E+1
   1.29125E+2   1.23687E+2
  -1.21057E+2   3.53675E+2
  -1.86306E+2   1.54746E+2
  -3.27584E+2   2.21231E+2
  -2.45648E+2  -2.46992E+1
   5.97458E+1  -1.96354E+2
  -3.16551E+1  -1.00964E+2
   4.31270E+1  -4.11004E+2
   3.66791E+1  -6.14320E+1
   3.02727E+2   3.06406E+2
  -8.82605E+0   3.36786E+2
  -4.98380E+2   3.68344E+2
  -1.96284E+2  -8.99229E+1
   2.97065E+1  -5.27893E+2
   2.04366E+2   4.93468E+1
   1.64842E+0   2.39803E+2
  -3.02008E+1  -1.15155E+2
  -1.08341E+2   4.71652E+1
   8.39914E+1   2.55556E+1
  -1.95596E+2  -2.13589E+1
  -2.08463E+2  -2.31978E+2
  -1.73351E+2  -2.04370E+2
   2.72684E+1   2.82645E+0
   2.16530E+2   5.02355E+1
   6.15581E+1   3.03496E+2
  -2.59099E+2   1.41983E+2
  -3.89020E+2  -2.24727E+1
   2.92303E+0   7.73037E+1
  -1.35406E+2  -1.56930E+1
  -1.37235E+2  -4.81530E+1
  -1.37908E+2  -1.24969E+2
  -4.86950E+1  -6.81558E+1
   1.13816E+2  -6.28781E+1
   2.45131E+2  -6.11089E+1
  -1.01446E+2   1.90984E+2
  -4.08700E+2  -1.38822E+2
  -2.20276E+2  -1.85681E+1
   2.29352E+2  -1.49657E+2
   2.00330E+2  -5.07669E+1
   1.05699E+2   2.60087E+2
   2.11192E+2  -2.30438E+1
