 LCModel (Version 6.3-1N) Copyright: S.W. Provencher.          Ref.: Magn. Reson. Med. 30:672-679 (1993).                
 Slice_N1@20_13  28-Feb-2025 11:41:12
 27 lines in following concentration table = NCONC+1
    Conc.  %SD /Cr+PCr  Metabolite                                         
 3.42E-04   3% 4.1E-04 Mac                                                 
    2.472  49%   2.972 Cr                                                  
    4.183  28%   5.028 PCr                                                 
    6.116  13%   7.352 Ins                                                 
    8.175   9%   9.827 NAA                                                 
    4.648  16%   5.588 Tau                                                 
    0.000 999%   0.000 PCho                                                
    1.560  13%   1.875 GPC                                                 
    8.020  11%   9.641 Glu                                                 
    3.885  19%   4.670 Gln                                                 
    2.931  22%   3.523 Ala                                                 
    3.514  30%   4.224 Asc                                                 
    2.513  32%   3.021 Asp                                                 
    0.416 107%   0.501 GABA                                                
    0.617  91%   0.742 Glc                                                 
    1.241  36%   1.491 GSH                                                 
    2.915  21%   3.504 Lac                                                 
    1.884  28%   2.265 NAAG                                                
    0.000 999%   0.000 PE                                                  
    1.560  13%   1.875 GPC+PCho                                            
   10.059   7%  12.092 NAA+NAAG                                            
   11.905  10%  14.312 Glu+Gln                                             
    6.655   9%   8.000 Cr+PCr                                              
   10.059   7%  12.092 NAA+NAAG                                            
    6.655   9%   8.000 Cr+PCr                                              
   11.905  10%  14.312 Glu+Gln                                             
   6 lines in following misc. output table
  FWHM = 0.033 ppm    S/N =   4                                            
  Data shift = 0.016 ppm                                                   
  Ph:-138 deg       0.0 deg/ppm                                            
  alphaB,S = 4.5E+00,   1.7E+01                                            
   19 spline knots.   Ns = 5(1)                                            
   2 inflections.     2 extrema                                            
  480 points on ppm-axis = NY
      4.100000     4.091866     4.083733     4.075600     4.067466     4.059333     4.051199     4.043066     4.034933     4.026799
      4.018666     4.010532     4.002399     3.994265     3.986132     3.977998     3.969864     3.961731     3.953597     3.945463
      3.937330     3.929196     3.921062     3.912929     3.904795     3.896662     3.888528     3.880394     3.872261     3.864127
      3.855993     3.847860     3.839726     3.831592     3.823459     3.815325     3.807191     3.799058     3.790924     3.782790
      3.774657     3.766523     3.758389     3.750256     3.742122     3.733989     3.725855     3.717721     3.709588     3.701454
      3.693320     3.685187     3.677053     3.668919     3.660786     3.652652     3.644518     3.636385     3.628251     3.620117
      3.611984     3.603850     3.595716     3.587583     3.579449     3.571316     3.563182     3.555048     3.546915     3.538781
      3.530647     3.522514     3.514380     3.506246     3.498113     3.489979     3.481845     3.473712     3.465578     3.457444
      3.449311     3.441177     3.433043     3.424910     3.416776     3.408643     3.400509     3.392375     3.384242     3.376108
      3.367974     3.359841     3.351707     3.343573     3.335440     3.327306     3.319172     3.311039     3.302905     3.294771
      3.286638     3.278504     3.270370     3.262237     3.254103     3.245970     3.237836     3.229702     3.221569     3.213435
      3.205301     3.197168     3.189034     3.180900     3.172767     3.164633     3.156499     3.148366     3.140232     3.132098
      3.123965     3.115831     3.107697     3.099564     3.091430     3.083297     3.075163     3.067029     3.058896     3.050762
      3.042628     3.034495     3.026361     3.018227     3.010094     3.001960     2.993826     2.985693     2.977559     2.969425
      2.961292     2.953158     2.945024     2.936891     2.928757     2.920624     2.912490     2.904356     2.896223     2.888089
      2.879955     2.871822     2.863688     2.855554     2.847421     2.839287     2.831153     2.823020     2.814886     2.806752
      2.798619     2.790485     2.782351     2.774218     2.766084     2.757951     2.749817     2.741683     2.733550     2.725416
      2.717282     2.709149     2.701015     2.692881     2.684748     2.676614     2.668480     2.660347     2.652213     2.644079
      2.635946     2.627812     2.619678     2.611545     2.603411     2.595278     2.587144     2.579010     2.570877     2.562743
      2.554609     2.546476     2.538342     2.530208     2.522075     2.513941     2.505807     2.497674     2.489540     2.481406
      2.473273     2.465139     2.457006     2.448872     2.440738     2.432605     2.424471     2.416337     2.408204     2.400070
      2.391936     2.383803     2.375669     2.367535     2.359402     2.351268     2.343134     2.335001     2.326867     2.318733
      2.310600     2.302466     2.294333     2.286199     2.278065     2.269932     2.261798     2.253664     2.245531     2.237397
      2.229263     2.221130     2.212996     2.204862     2.196729     2.188595     2.180461     2.172328     2.164194     2.156060
      2.147927     2.139793     2.131660     2.123526     2.115392     2.107259     2.099125     2.090991     2.082858     2.074724
      2.066590     2.058457     2.050323     2.042189     2.034056     2.025922     2.017788     2.009655     2.001521     1.993387
      1.985254     1.977120     1.968987     1.960853     1.952719     1.944586     1.936452     1.928318     1.920185     1.912051
      1.903917     1.895784     1.887650     1.879516     1.871383     1.863249     1.855115     1.846982     1.838848     1.830714
      1.822581     1.814447     1.806314     1.798180     1.790046     1.781913     1.773779     1.765645     1.757512     1.749378
      1.741244     1.733111     1.724977     1.716843     1.708710     1.700576     1.692442     1.684309     1.676175     1.668041
      1.659908     1.651774     1.643641     1.635507     1.627373     1.619240     1.611106     1.602972     1.594839     1.586705
      1.578571     1.570438     1.562304     1.554170     1.546037     1.537903     1.529769     1.521636     1.513502     1.505368
      1.497235     1.489101     1.480968     1.472834     1.464700     1.456567     1.448433     1.440299     1.432166     1.424032
      1.415898     1.407765     1.399631     1.391497     1.383364     1.375230     1.367096     1.358963     1.350829     1.342695
      1.334562     1.326428     1.318295     1.310161     1.302027     1.293894     1.285760     1.277626     1.269493     1.261359
      1.253225     1.245092     1.236958     1.228824     1.220691     1.212557     1.204423     1.196290     1.188156     1.180022
      1.171889     1.163755     1.155622     1.147488     1.139354     1.131221     1.123087     1.114953     1.106820     1.098686
      1.090552     1.082419     1.074285     1.066151     1.058018     1.049884     1.041750     1.033617     1.025483     1.017349
      1.009216     1.001082     0.992949     0.984815     0.976681     0.968548     0.960414     0.952280     0.944147     0.936013
      0.927879     0.919746     0.911612     0.903478     0.895345     0.887211     0.879077     0.870944     0.862810     0.854676
      0.846543     0.838409     0.830276     0.822142     0.814008     0.805875     0.797741     0.789607     0.781474     0.773340
      0.765206     0.757073     0.748939     0.740805     0.732672     0.724538     0.716404     0.708271     0.700137     0.692003
      0.683870     0.675736     0.667603     0.659469     0.651335     0.643202     0.635068     0.626934     0.618801     0.610667
      0.602533     0.594400     0.586266     0.578132     0.569999     0.561865     0.553731     0.545598     0.537464     0.529330
      0.521197     0.513063     0.504930     0.496796     0.488662     0.480529     0.472395     0.464261     0.456128     0.447994
      0.439861     0.431727     0.423593     0.415460     0.407326     0.399192     0.391059     0.382925     0.374792     0.366658
      0.358524     0.350391     0.342257     0.334124     0.325990     0.317856     0.309723     0.301589     0.293455     0.285322
      0.277188     0.269055     0.260921     0.252787     0.244654     0.236520     0.228386     0.220253     0.212119     0.203986
 NY phased data points follow
   1.16597E+01  2.09504E+01  9.74384E+00  6.27516E+00  2.04709E+00  1.08541E+00  5.85696E-01 -1.19229E+00 -1.58295E+00  5.00843E+00
  -5.91543E+00 -2.23651E+01 -6.62775E+00 -1.86104E+01 -2.24768E+01 -2.77182E+01 -4.38414E+01 -3.44130E+01 -4.64248E+01 -4.58367E+01
  -6.31828E+01 -6.71392E+01 -2.58950E+01 -2.09733E+01 -1.24126E+01  1.31810E+01  2.39271E+01  2.79604E+01  2.29601E+01  1.46037E+01
   2.90694E+01  3.07340E+01  2.62943E+01  2.31579E+01  2.86377E+01  4.65911E+01  2.33311E+01  1.33752E+01 -1.22604E+00 -2.51770E+01
  -2.42913E+01 -2.60249E+01 -1.88121E+01 -1.23962E+01 -1.10388E+01  2.34327E+00  2.13489E+01  2.86818E+01  5.81232E+01  6.14484E+01
   5.91207E+01  6.52187E+01  4.56021E+01  6.35994E+01  4.71033E+01  1.49879E+01  1.08270E+01  1.24793E+01  2.62825E+01  5.20743E+00
   6.14707E+00  2.84480E+01  8.67925E+00  2.10850E+01  6.37078E+01  6.12707E+01  4.90332E+01  5.27398E+01  4.10141E+01  1.15727E+01
   3.38841E-01  2.17914E+00  1.50952E+01  2.45725E+01  3.12037E+01  4.69681E+01  5.64642E+01  6.85822E+01  6.93535E+01  7.49192E+01
   6.71488E+01  7.26918E+01  6.03709E+01  3.70900E+01  5.01863E+01  2.43830E+01  2.38469E+01  2.98619E+01  4.35379E+01  6.84836E+01
   7.09237E+01  7.11665E+01  8.07333E+01  9.40964E+01  8.62038E+01  1.01235E+02  8.44063E+01  9.45668E+01  1.08072E+02  8.89731E+01
   8.94347E+01  8.32631E+01  7.22460E+01  3.48900E+01  5.05027E+01  3.33769E+01  9.84930E+00  1.10342E+01 -1.62149E+01 -3.71481E+01
  -7.46387E+01 -8.54454E+01 -1.02657E+02 -7.34595E+01 -4.94321E+01 -3.68470E+01 -1.53373E+01 -1.51008E+01  1.91908E+01  1.15295E+01
   1.21661E+01  1.88661E+01  2.55932E+01  3.72067E+01  4.22716E+01  5.45229E+01  6.30508E+01  8.35775E+01  9.46195E+01  1.19265E+02
   1.10560E+02  1.22059E+02  1.08090E+02  3.35559E+00 -4.22590E+01 -4.92099E+01 -5.99715E+01 -6.04415E+01 -6.18311E+01 -6.48404E+01
  -4.80773E+01 -4.21304E+01 -4.72406E+01 -3.63902E+01 -4.76034E+01 -4.82295E+01 -3.98390E+01 -4.66065E+01 -4.04507E+01 -3.53708E+01
  -3.49814E+01 -1.49911E+01 -1.20420E+01 -1.24168E+01 -7.80997E+00 -2.21625E+01 -3.66095E+00 -6.58132E+00 -8.37986E+00  8.31646E+00
  -4.13060E+00  1.12926E+01 -4.20038E+00 -1.45668E+01 -5.54425E+00 -6.88344E+00  7.76807E+00 -1.07175E+01  8.79652E+00  1.84907E+01
   9.12340E+00  3.26182E+01  3.71611E+01  4.69377E+01  4.74683E+01  3.67612E+01  2.20282E+01  2.95641E+01  3.93845E+01  2.67958E+01
   1.42840E+00 -1.67463E+01 -7.46209E+00 -2.73214E+01 -2.99442E+01 -1.04729E+01 -1.59166E+01 -2.47291E+01 -1.53859E+01 -8.30679E+00
  -1.19495E+01 -1.19427E+01 -4.70864E+00  5.84360E+00 -5.14337E+00  1.36965E+01  1.98970E+01  8.99245E+00  2.31363E+01  1.30647E+01
  -3.45782E+00 -1.99098E-02  1.24460E+01  8.08537E+00  1.51024E+01  1.48840E+01  1.00966E+01  3.88605E-01 -1.04306E+01  3.17057E+00
  -1.17457E+01 -1.62542E+01  1.94445E+00  1.24850E+01  3.04942E+01  4.60562E+01  5.42870E+01  6.70230E+01  5.35962E+01  4.90637E+01
   4.26865E+01  2.45687E+01  3.31474E+01  2.00150E+01  3.27138E+01  3.14616E+01  3.14138E+01  3.70939E+01  3.09222E+01  4.12465E+01
   3.12241E+01  3.95165E+01  4.54552E+00 -1.06055E+01 -1.14335E+01 -2.34308E+01 -2.92353E+01 -5.43879E+01 -4.08570E+01 -5.66869E+01
  -4.85306E+01 -2.71672E+01 -2.68831E+01 -1.35149E+01 -8.85309E+00 -2.32290E+00  8.83979E+00  4.26707E+00 -7.97812E+00  4.46222E+00
  -3.90605E+00 -7.96213E+00 -2.84740E+01 -1.66722E+01 -8.42107E+00 -4.62268E+01 -2.31977E+01 -4.99263E+00  8.06012E+01  1.85932E+02
   1.97123E+02  1.78416E+02  1.65269E+02  1.44409E+02  1.26570E+02  1.36537E+02  1.15893E+02  1.09423E+02  1.11079E+02  9.77608E+01
   1.00737E+02  1.08548E+02  1.11355E+02  1.01193E+02  1.02505E+02  9.88575E+01  1.01534E+02  1.06950E+02  1.06318E+02  1.09658E+02
   8.67964E+01  7.66774E+01  9.13730E+01  8.25991E+01  7.51201E+01  7.20165E+01  7.12162E+01  7.15271E+01  6.69041E+01  7.12856E+01
   6.11664E+01  6.29594E+01  6.32346E+01  6.54988E+01  6.51052E+01  4.70461E+01  4.91796E+01  5.44150E+01  5.52900E+01  5.18535E+01
   6.71443E+01  5.62654E+01  5.81548E+01  7.86062E+01  6.63043E+01  6.94709E+01  6.33599E+01  7.46593E+01  7.13939E+01  6.71191E+01
   8.65120E+01  9.55264E+01  1.00087E+02  9.97738E+01  1.14702E+02  1.09300E+02  1.22343E+02  1.28323E+02  1.28714E+02  1.52353E+02
   1.54843E+02  1.68624E+02  1.61363E+02  1.41213E+02  1.31100E+02  1.22517E+02  1.02875E+02  7.27102E+01  6.57703E+01  4.16247E+01
   1.70800E+01  7.24648E+00 -2.11525E+01 -2.73690E+01 -2.18584E+01 -1.72148E+01 -3.61941E+00  3.75746E+00  1.37720E+01  1.01866E+01
   2.95929E+01  4.34375E+01  1.91497E+01  1.62533E+01  1.67262E+01  1.47557E+01  2.12055E+01  2.64038E+01  2.24914E+01  3.22213E+01
   4.42549E+01  3.77467E+01  2.52772E+01  2.37837E+01  4.06792E+01  3.00484E+01  2.30567E+01  2.06024E+01  1.02113E+00  4.66841E+00
   2.32322E+01  2.47100E+01  2.22067E+01  2.53592E+01  2.35621E+01  3.50632E+01  3.13419E+01  3.83315E+01  4.90555E+01  4.39325E+01
   4.95710E+01  3.65708E+01  5.09087E+01  6.61685E+01  4.79244E+01  5.52481E+01  7.32257E+01  7.06965E+01  6.70483E+01  7.12613E+01
   9.43263E+01  1.07495E+02  1.00165E+02  1.15703E+02  1.23645E+02  1.40962E+02  1.46088E+02  1.43085E+02  1.53811E+02  1.45542E+02
   1.46383E+02  1.31865E+02  1.24387E+02  9.84404E+01  8.15780E+01  8.62362E+01  6.64034E+01  8.48809E+01  7.14043E+01  5.10750E+01
   5.43618E+01  3.96403E+01  2.56040E+01  2.08327E+00  1.35831E+00  5.01577E+00  1.28861E+00 -1.87294E+00  3.03417E+00  9.86140E+00
   7.10897E+00  6.89349E+00 -2.11401E-02  2.99975E+00  3.98074E+00  7.34370E+00  1.02831E+01 -1.98992E+00 -3.16467E+00  2.39875E+00
   3.40507E+00  3.64889E+00  8.62764E+00  1.19430E+01  1.63155E+01  5.79505E+00  1.93097E+00  1.51931E+01  6.39296E+00  5.93597E+00
   2.98132E+00 -3.86402E+00 -1.18299E+00 -8.09791E+00  8.16391E-01  1.43518E+00 -4.58209E+00  1.01260E+01  1.23064E+01  3.27169E+00
   2.03831E-01  2.37304E+00  2.92470E+00  5.08856E+00  9.52498E+00  2.81849E+00  1.06905E+01  1.34868E+01  5.75115E+00  1.18221E+01
   4.67455E+00  7.95214E+00  1.54516E+01  8.60826E+00  7.39105E+00  1.91035E+01  1.65058E+01  2.99958E-01  1.53597E+00  6.20679E+00
   1.47750E+01  1.34923E+00  8.11800E+00  1.26586E+01 -1.07942E+00  1.31319E+01  7.87115E+00  1.80984E+01 -3.24959E+00 -4.40548E+00
   2.48972E+01  1.73121E+01  2.97431E+01  3.15852E+00  3.35620E+00  2.45982E+01  1.45083E+01  1.32511E+01  9.16864E+00  1.02429E+01
 NY points of the fit to the data follow
  -2.90219E+00 -6.03633E+00 -1.04791E+01 -1.41972E+01 -1.46920E+01 -9.54159E+00 -3.14493E-02  8.18872E+00  9.31392E+00  3.60992E+00
  -4.26878E+00 -9.50448E+00 -1.09987E+01 -1.04990E+01 -9.41459E+00 -9.05145E+00 -1.51976E+01 -2.51826E+01 -3.69000E+01 -4.96271E+01
  -5.73315E+01 -5.32762E+01 -3.65314E+01 -1.43903E+01  5.73484E+00  2.10095E+01  3.10069E+01  3.82558E+01  4.33500E+01  4.73324E+01
   5.01731E+01  5.10213E+01  5.05351E+01  4.95672E+01  4.82139E+01  4.67441E+01  4.22342E+01  3.34501E+01  1.95809E+01  6.49513E-01
  -1.94127E+01 -3.29182E+01 -3.34191E+01 -2.21478E+01 -5.45257E+00  1.15077E+01  2.64179E+01  3.92454E+01  4.92080E+01  5.55838E+01
   5.81197E+01  5.67391E+01  5.10716E+01  4.37980E+01  3.72686E+01  3.04510E+01  2.60478E+01  2.40083E+01  1.97772E+01  1.39644E+01
   1.13612E+01  1.50341E+01  2.29756E+01  3.35800E+01  4.67363E+01  5.74840E+01  6.17809E+01  5.78861E+01  4.49951E+01  2.70251E+01
   1.22296E+01  7.73228E+00  1.28749E+01  2.22770E+01  3.32119E+01  4.47666E+01  5.60317E+01  6.38722E+01  6.88441E+01  7.04150E+01
   6.90314E+01  6.28675E+01  5.17783E+01  3.85419E+01  2.72385E+01  2.18894E+01  2.38614E+01  3.14890E+01  4.17298E+01  5.06690E+01
   5.76296E+01  6.24944E+01  6.64515E+01  7.01323E+01  7.41762E+01  7.71586E+01  7.89560E+01  8.09090E+01  8.21027E+01  8.12459E+01
   8.15174E+01  7.97853E+01  7.37514E+01  6.13559E+01  5.06277E+01  4.11499E+01  3.06584E+01  1.93563E+01  1.63868E+00 -2.75630E+01
  -6.21058E+01 -8.42377E+01 -8.18795E+01 -6.32565E+01 -4.24383E+01 -2.84570E+01 -1.90384E+01 -1.11029E+01 -3.98016E+00  2.49072E+00
   8.44001E+00  1.42724E+01  2.03530E+01  2.74687E+01  3.63629E+01  4.61278E+01  5.59053E+01  7.55444E+01  9.88620E+01  1.18630E+02
   1.29794E+02  1.21680E+02  8.44441E+01  2.51339E+01 -2.79009E+01 -5.34365E+01 -5.45365E+01 -4.64660E+01 -4.23997E+01 -4.11337E+01
  -4.10010E+01 -4.15255E+01 -4.22671E+01 -4.30959E+01 -4.36030E+01 -4.34789E+01 -4.22351E+01 -3.97285E+01 -3.64395E+01 -3.29456E+01
  -2.98175E+01 -2.70311E+01 -2.43951E+01 -2.17718E+01 -1.88524E+01 -1.58932E+01 -1.34672E+01 -1.18072E+01 -1.05169E+01 -8.96021E+00
  -6.83740E+00 -4.75983E+00 -3.79271E+00 -4.32923E+00 -5.54707E+00 -6.27039E+00 -6.65046E+00 -7.08839E+00 -6.91819E+00 -4.94433E+00
   1.74676E-01  8.26401E+00  1.64977E+01  2.06433E+01  1.99192E+01  1.82145E+01  2.00010E+01  2.38036E+01  2.35672E+01  1.65702E+01
   6.24791E+00 -2.40802E+00 -7.81395E+00 -1.12990E+01 -1.37017E+01 -1.51668E+01 -1.56248E+01 -1.47247E+01 -1.32694E+01 -1.24499E+01
  -1.05671E+01 -7.81955E+00 -5.42996E+00 -2.17595E+00  1.84286E+00  6.09265E+00  8.34772E+00  8.78765E+00  9.91033E+00  1.17758E+01
   1.35657E+01  1.47269E+01  1.69778E+01  2.05558E+01  2.20801E+01  2.02426E+01  1.56238E+01  8.97566E+00  1.45670E+00 -6.83494E+00
  -1.54476E+01 -1.87269E+01 -1.64515E+01 -6.98297E+00  9.46119E+00  2.95724E+01  4.77777E+01  5.81683E+01  5.92387E+01  5.29614E+01
   4.38198E+01  3.71544E+01  3.46567E+01  3.67570E+01  4.03518E+01  4.30845E+01  4.34980E+01  4.08095E+01  3.45827E+01  2.58115E+01
   1.49701E+01  2.57485E+00 -9.75947E+00 -2.18585E+01 -3.29989E+01 -4.19891E+01 -4.82063E+01 -5.14383E+01 -5.16416E+01 -4.93150E+01
  -4.50449E+01 -3.89744E+01 -3.10253E+01 -2.12007E+01 -1.15396E+01 -3.07965E+00  1.73188E+00  3.41413E+00  9.14309E-01 -5.26808E+00
  -9.37807E+00 -8.49841E+00 -1.80018E+01 -2.95301E+01 -3.74483E+01 -4.18107E+01 -3.42561E+01  2.31560E+00  6.77392E+01  1.30247E+02
   1.60437E+02  1.58575E+02  1.43498E+02  1.33384E+02  1.26945E+02  1.22072E+02  1.17912E+02  1.13899E+02  1.10060E+02  1.06848E+02
   1.04614E+02  1.03557E+02  1.03393E+02  1.03662E+02  1.03976E+02  1.04005E+02  1.03726E+02  1.03137E+02  1.02358E+02  1.01391E+02
   1.00120E+02  9.83758E+01  9.63520E+01  9.42785E+01  9.22338E+01  9.01887E+01  8.79714E+01  8.55939E+01  8.30219E+01  7.99961E+01
   7.62390E+01  7.17440E+01  6.67714E+01  6.16777E+01  5.70598E+01  5.37327E+01  5.22391E+01  5.27426E+01  5.47325E+01  5.74968E+01
   6.05930E+01  6.39301E+01  6.74742E+01  7.09899E+01  7.42900E+01  7.73549E+01  8.02250E+01  8.31876E+01  8.63726E+01  8.97487E+01
   9.30874E+01  9.61224E+01  9.87367E+01  1.01236E+02  1.03710E+02  1.05869E+02  1.07384E+02  1.08275E+02  1.08475E+02  1.09294E+02
   1.10524E+02  1.10803E+02  1.10215E+02  1.04303E+02  9.11717E+01  7.20707E+01  5.08956E+01  3.19703E+01  1.79945E+01  1.02163E+01
   6.36250E+00  3.37069E+00  3.22129E-01 -2.20631E+00 -1.79169E+00  1.88090E+00  9.45880E+00  1.93395E+01  2.94015E+01  3.85666E+01
   4.29163E+01  4.05036E+01  3.20705E+01  2.13365E+01  1.31105E+01  1.07133E+01  1.47425E+01  2.20165E+01  2.90323E+01  3.37832E+01
   3.57810E+01  3.57561E+01  3.37157E+01  2.98546E+01  2.47711E+01  1.95762E+01  1.53275E+01  1.28335E+01  1.22365E+01  1.33437E+01
   1.58308E+01  1.93646E+01  2.36547E+01  2.82995E+01  3.29427E+01  3.73698E+01  4.15366E+01  4.54477E+01  4.91887E+01  5.29266E+01
   5.65750E+01  6.01624E+01  6.38103E+01  6.75831E+01  7.15406E+01  7.60397E+01  8.12208E+01  8.70159E+01  9.34337E+01  1.00655E+02
   1.08602E+02  1.17323E+02  1.26968E+02  1.37667E+02  1.48787E+02  1.58956E+02  1.66260E+02  1.68970E+02  1.66052E+02  1.57463E+02
   1.44927E+02  1.31212E+02  1.18748E+02  1.08379E+02  9.98725E+01  9.23484E+01  8.43347E+01  7.48910E+01  6.40002E+01  5.23682E+01
   4.10565E+01  3.09427E+01  2.27593E+01  1.65103E+01  1.19320E+01  8.68730E+00  6.46581E+00  4.96878E+00  3.72755E+00  2.58545E+00
   1.49695E+00  6.29296E-01  1.34524E-01  2.66304E-02  1.07054E-01  1.38321E-01  2.82336E-01  4.40227E-01  4.60649E-01  4.23596E-01
   6.02907E-01  1.05971E+00  1.46401E+00  1.65745E+00  1.70830E+00  1.86841E+00  2.08070E+00  2.26348E+00  2.57215E+00  3.11594E+00
   3.69193E+00  4.01819E+00  4.07868E+00  3.94832E+00  3.90896E+00  4.08706E+00  4.46829E+00  4.92884E+00  5.40996E+00  5.90965E+00
   6.40454E+00  6.82971E+00  7.13210E+00  7.30641E+00  7.28985E+00  7.11947E+00  7.14109E+00  7.44546E+00  7.88918E+00  8.27960E+00
   8.55710E+00  8.64478E+00  8.73077E+00  8.94058E+00  9.36514E+00  9.84799E+00  1.03256E+01  1.06905E+01  1.10401E+01  1.13925E+01
   1.16996E+01  1.19101E+01  1.19243E+01  1.18040E+01  1.17297E+01  1.18717E+01  1.23214E+01  1.30421E+01  1.38957E+01  1.45367E+01
   1.48110E+01  1.47101E+01  1.44262E+01  1.43587E+01  1.46094E+01  1.49441E+01  1.52064E+01  1.54042E+01  1.54510E+01  1.54325E+01
 NY background values follow
     2.936E+01    2.936E+01    2.935E+01    2.934E+01    2.934E+01    2.933E+01    2.932E+01    2.932E+01    2.931E+01    2.931E+01
     2.930E+01    2.929E+01    2.929E+01    2.928E+01    2.927E+01    2.927E+01    2.926E+01    2.925E+01    2.925E+01    2.924E+01
     2.923E+01    2.923E+01    2.922E+01    2.921E+01    2.921E+01    2.920E+01    2.919E+01    2.919E+01    2.918E+01    2.918E+01
     2.917E+01    2.916E+01    2.916E+01    2.915E+01    2.914E+01    2.914E+01    2.913E+01    2.912E+01    2.912E+01    2.911E+01
     2.910E+01    2.910E+01    2.909E+01    2.908E+01    2.908E+01    2.907E+01    2.907E+01    2.906E+01    2.905E+01    2.905E+01
     2.904E+01    2.903E+01    2.903E+01    2.902E+01    2.901E+01    2.901E+01    2.900E+01    2.899E+01    2.899E+01    2.898E+01
     2.897E+01    2.897E+01    2.896E+01    2.895E+01    2.895E+01    2.894E+01    2.893E+01    2.893E+01    2.892E+01    2.891E+01
     2.891E+01    2.890E+01    2.889E+01    2.889E+01    2.888E+01    2.887E+01    2.887E+01    2.886E+01    2.885E+01    2.885E+01
     2.884E+01    2.883E+01    2.882E+01    2.882E+01    2.881E+01    2.880E+01    2.880E+01    2.879E+01    2.878E+01    2.878E+01
     2.877E+01    2.876E+01    2.875E+01    2.875E+01    2.874E+01    2.873E+01    2.873E+01    2.872E+01    2.871E+01    2.870E+01
     2.870E+01    2.869E+01    2.868E+01    2.867E+01    2.867E+01    2.866E+01    2.865E+01    2.864E+01    2.864E+01    2.863E+01
     2.862E+01    2.861E+01    2.861E+01    2.860E+01    2.859E+01    2.858E+01    2.857E+01    2.857E+01    2.856E+01    2.855E+01
     2.854E+01    2.853E+01    2.853E+01    2.852E+01    2.851E+01    2.850E+01    2.849E+01    2.849E+01    2.848E+01    2.847E+01
     2.846E+01    2.845E+01    2.844E+01    2.844E+01    2.843E+01    2.842E+01    2.841E+01    2.840E+01    2.839E+01    2.838E+01
     2.838E+01    2.837E+01    2.836E+01    2.835E+01    2.834E+01    2.833E+01    2.832E+01    2.831E+01    2.830E+01    2.830E+01
     2.829E+01    2.828E+01    2.827E+01    2.826E+01    2.825E+01    2.824E+01    2.823E+01    2.822E+01    2.821E+01    2.820E+01
     2.819E+01    2.818E+01    2.817E+01    2.816E+01    2.815E+01    2.814E+01    2.813E+01    2.812E+01    2.811E+01    2.810E+01
     2.809E+01    2.808E+01    2.807E+01    2.806E+01    2.805E+01    2.804E+01    2.803E+01    2.802E+01    2.801E+01    2.800E+01
     2.799E+01    2.798E+01    2.797E+01    2.796E+01    2.795E+01    2.794E+01    2.793E+01    2.792E+01    2.790E+01    2.789E+01
     2.788E+01    2.787E+01    2.786E+01    2.785E+01    2.784E+01    2.783E+01    2.781E+01    2.780E+01    2.779E+01    2.778E+01
     2.777E+01    2.776E+01    2.774E+01    2.773E+01    2.772E+01    2.771E+01    2.770E+01    2.768E+01    2.767E+01    2.766E+01
     2.765E+01    2.764E+01    2.762E+01    2.761E+01    2.760E+01    2.759E+01    2.757E+01    2.756E+01    2.755E+01    2.754E+01
     2.752E+01    2.751E+01    2.750E+01    2.748E+01    2.747E+01    2.746E+01    2.745E+01    2.743E+01    2.742E+01    2.741E+01
     2.739E+01    2.738E+01    2.737E+01    2.735E+01    2.734E+01    2.732E+01    2.731E+01    2.730E+01    2.728E+01    2.727E+01
     2.726E+01    2.724E+01    2.723E+01    2.721E+01    2.720E+01    2.718E+01    2.717E+01    2.716E+01    2.714E+01    2.713E+01
     2.711E+01    2.710E+01    2.708E+01    2.707E+01    2.705E+01    2.704E+01    2.702E+01    2.701E+01    2.699E+01    2.698E+01
     2.696E+01    2.695E+01    2.693E+01    2.692E+01    2.690E+01    2.689E+01    2.687E+01    2.686E+01    2.684E+01    2.683E+01
     2.681E+01    2.679E+01    2.678E+01    2.676E+01    2.675E+01    2.673E+01    2.672E+01    2.670E+01    2.668E+01    2.667E+01
     2.665E+01    2.664E+01    2.662E+01    2.660E+01    2.659E+01    2.657E+01    2.655E+01    2.654E+01    2.652E+01    2.650E+01
     2.649E+01    2.647E+01    2.645E+01    2.644E+01    2.642E+01    2.640E+01    2.639E+01    2.637E+01    2.635E+01    2.634E+01
     2.632E+01    2.630E+01    2.628E+01    2.627E+01    2.625E+01    2.623E+01    2.621E+01    2.620E+01    2.618E+01    2.616E+01
     2.614E+01    2.613E+01    2.611E+01    2.609E+01    2.607E+01    2.606E+01    2.604E+01    2.602E+01    2.600E+01    2.599E+01
     2.597E+01    2.595E+01    2.593E+01    2.591E+01    2.589E+01    2.588E+01    2.586E+01    2.584E+01    2.582E+01    2.580E+01
     2.579E+01    2.577E+01    2.575E+01    2.573E+01    2.571E+01    2.569E+01    2.567E+01    2.566E+01    2.564E+01    2.562E+01
     2.560E+01    2.558E+01    2.556E+01    2.554E+01    2.552E+01    2.551E+01    2.549E+01    2.547E+01    2.545E+01    2.543E+01
     2.541E+01    2.539E+01    2.537E+01    2.535E+01    2.533E+01    2.532E+01    2.530E+01    2.528E+01    2.526E+01    2.524E+01
     2.522E+01    2.520E+01    2.518E+01    2.516E+01    2.514E+01    2.512E+01    2.510E+01    2.508E+01    2.507E+01    2.505E+01
     2.503E+01    2.501E+01    2.499E+01    2.497E+01    2.495E+01    2.493E+01    2.491E+01    2.489E+01    2.487E+01    2.485E+01
     2.483E+01    2.481E+01    2.479E+01    2.477E+01    2.475E+01    2.473E+01    2.472E+01    2.470E+01    2.468E+01    2.466E+01
     2.464E+01    2.462E+01    2.460E+01    2.458E+01    2.456E+01    2.454E+01    2.452E+01    2.450E+01    2.448E+01    2.446E+01
     2.444E+01    2.442E+01    2.440E+01    2.438E+01    2.436E+01    2.434E+01    2.432E+01    2.430E+01    2.428E+01    2.426E+01
     2.425E+01    2.423E+01    2.421E+01    2.419E+01    2.417E+01    2.415E+01    2.413E+01    2.411E+01    2.409E+01    2.407E+01
     2.405E+01    2.403E+01    2.401E+01    2.399E+01    2.397E+01    2.395E+01    2.393E+01    2.391E+01    2.389E+01    2.387E+01
     2.385E+01    2.383E+01    2.381E+01    2.379E+01    2.377E+01    2.375E+01    2.373E+01    2.371E+01    2.369E+01    2.367E+01
     2.365E+01    2.363E+01    2.361E+01    2.359E+01    2.357E+01    2.355E+01    2.353E+01    2.352E+01    2.350E+01    2.348E+01
     2.346E+01    2.344E+01    2.342E+01    2.340E+01    2.338E+01    2.336E+01    2.334E+01    2.332E+01    2.330E+01    2.328E+01
     2.326E+01    2.324E+01    2.322E+01    2.320E+01    2.318E+01    2.316E+01    2.314E+01    2.312E+01    2.310E+01    2.308E+01
     2.306E+01    2.304E+01    2.302E+01    2.300E+01    2.298E+01    2.296E+01    2.294E+01    2.292E+01    2.290E+01    2.288E+01
 Mac      Conc. = 3.42E-04
   5.63797E+00  4.95717E+00  4.57534E+00  4.46951E+00  4.26622E+00  3.58500E+00  2.12139E+00  5.75340E-02 -2.31839E+00 -4.42397E+00
  -5.78860E+00 -6.31622E+00 -6.40039E+00 -7.03072E+00 -8.46477E+00 -1.05999E+01 -1.29536E+01 -1.39377E+01 -1.20169E+01 -7.28192E+00
  -1.45845E+00  3.88667E+00  8.27327E+00  1.14783E+01  1.35672E+01  1.48886E+01  1.61634E+01  1.79863E+01  2.03155E+01  2.28827E+01
   2.53252E+01  2.73174E+01  2.86531E+01  2.91702E+01  2.89749E+01  2.84987E+01  2.84958E+01  2.96273E+01  3.19791E+01  3.46439E+01
   3.64207E+01  3.69507E+01  3.68955E+01  3.73478E+01  3.86870E+01  4.05252E+01  4.19591E+01  4.23822E+01  4.18145E+01  4.04902E+01
   3.88033E+01  3.70463E+01  3.54291E+01  3.40798E+01  3.31434E+01  3.25391E+01  3.22656E+01  3.27511E+01  3.41110E+01  3.59538E+01
   3.79754E+01  3.98136E+01  4.12274E+01  4.17818E+01  4.14575E+01  4.03714E+01  3.89003E+01  3.75341E+01  3.64872E+01  3.59234E+01
   3.63073E+01  3.80709E+01  4.10691E+01  4.42474E+01  4.66051E+01  4.77714E+01  4.79896E+01  4.75724E+01  4.66969E+01  4.55846E+01
   4.46331E+01  4.38075E+01  4.32516E+01  4.30561E+01  4.34571E+01  4.43126E+01  4.53784E+01  4.64554E+01  4.74481E+01  4.82421E+01
   4.90093E+01  4.97202E+01  5.03745E+01  5.07938E+01  5.07053E+01  4.96787E+01  4.76564E+01  4.49364E+01  4.19272E+01  3.90779E+01
   3.68010E+01  3.49894E+01  3.31375E+01  3.03692E+01  2.60407E+01  1.99099E+01  1.19942E+01  3.22475E+00 -4.61406E+00 -9.62361E+00
