 
 $NMID
 ID=''
 FMTDAT='(2E13.5)'
 TRAMP=   1.00000E+0
 VOLUME=   1.00000E+0
 $END
  -1.60374E+4  -5.01116E+3
  -2.60755E+4   5.90093E+3
   6.02522E+2   2.40361E+4
   2.75457E+4   1.20681E+4
   1.62104E+4  -1.75817E+4
  -1.02208E+4  -2.60438E+4
  -1.95284E+4  -3.61531E+3
  -7.72954E+3   1.99671E+4
   1.26671E+4   1.63149E+4
   1.86231E+4  -4.80254E+3
   1.82237E+3  -1.37982E+4
  -1.37232E+4  -6.05257E+3
  -1.03002E+4   6.49126E+3
   1.33427E+3   1.08886E+4
   8.46840E+3   2.82418E+3
   6.15855E+3  -7.75741E+3
  -2.27092E+3  -7.60697E+3
  -6.12766E+3   8.14790E+2
  -1.84448E+3   5.54231E+3
   3.39122E+3   4.11945E+3
   3.27659E+3  -1.04803E+3
   1.30981E+3  -4.52005E+3
  -1.06245E+3  -1.06021E+3
  -3.30612E+3   3.48181E+3
  -1.44130E+3   1.77037E+3
   3.47066E+3  -5.43549E+2
   3.75133E+3   7.06785E+2
  -1.94788E+3   1.22725E+2
  -4.13008E+3  -2.17665E+3
   1.01025E+2  -2.27802E+2
   2.22570E+3   3.09930E+3
  -1.60750E-1   1.80981E+3
  -1.68486E+3  -1.65806E+3
  -1.01184E+3  -2.75311E+3
  -1.55493E+2  -6.84493E+2
   4.87389E+2   1.06929E+3
   6.06467E+2   1.35565E+3
   6.45510E+2   5.91966E+2
   1.98894E+1  -6.28049E+2
  -1.14564E+3  -5.74150E+2
  -1.41704E+3  -1.57130E+2
   3.02254E+2  -5.07462E+2
   1.47451E+3  -3.13810E+2
   4.85833E+2  -5.41658E+2
   4.04103E+2  -5.91689E+2
   5.40673E+2   4.67301E+2
  -5.94343E+2   2.09916E+3
  -2.23211E+3   7.18563E+2
  -1.25027E+3  -1.67508E+3
   3.83906E+2  -1.29335E+3
   3.89347E+2  -1.44718E+1
  -2.07723E+2  -2.95810E+2
   5.10515E+2  -7.20031E+2
   7.70384E+2   3.01956E+2
   2.70692E+1   7.21772E+2
  -9.60850E+2   3.51167E+2
  -7.93968E+2  -7.69371E+2
  -2.11526E+1  -8.50420E+2
   3.84580E+2  -7.92225E+2
   3.46911E+2  -2.34252E+2
   3.29425E+2   1.17216E+2
   6.10077E+2   8.33032E+2
  -1.70089E+2   1.37571E+3
  -1.43452E+3   3.77977E+2
  -1.54621E+3  -1.20079E+3
  -7.62280E+2  -1.17294E+3
   2.82773E+1  -6.67085E+2
   5.57435E+2  -4.15242E+2
   1.16549E+3  -2.41973E+2
   5.55906E+2   3.61006E+2
  -4.89365E+2  -1.87570E+2
   2.08888E+1  -4.50826E+2
   7.86516E+2   4.58531E+2
   3.85245E+2   1.02251E+3
  -4.72703E+2   1.04489E+2
  -1.28073E+2  -7.54469E+2
   6.02999E+1  -2.67043E+2
  -3.70687E+2   6.22316E+2
  -2.95661E+2   5.60753E+2
   4.13025E+1  -3.06221E+2
   1.58909E+2  -8.07297E+2
  -1.73011E+2  -4.13923E+2
  -1.07988E+2   1.00348E+2
  -6.34227E+1  -1.99034E+2
   4.03414E+2  -4.10762E+2
   6.35340E+2  -4.39777E+2
   6.66218E+2   2.88639E+1
   5.97329E+1   3.09362E+2
  -1.00654E+2  -8.83196E+1
   4.48707E+2   2.04536E+2
   6.25429E+2   3.42520E+2
   1.99461E+2   4.10901E+2
  -7.69286E+2  -1.29918E+1
  -6.61178E+2  -2.70473E+2
  -9.20251E+1  -2.76492E+2
   4.76983E+2  -4.13867E+2
   6.53877E+2   6.24173E+1
   2.10018E+2   2.53497E+2
  -6.49452E+0  -1.78110E+2
   5.04268E+2  -1.48828E+2
   3.91778E+2   6.36895E+2
  -1.42360E+2   8.79580E+2
  -4.01638E+2  -3.18142E+2
   5.44094E+1  -9.65637E+2
   6.82340E+2  -3.39953E+2
   1.42852E+1   9.50092E+2
  -6.48861E+2   8.16133E+2
  -5.60188E+2  -1.16556E+2
   2.29365E+2  -1.03172E+3
   9.00483E+2  -6.61905E+2
   8.30785E+2   1.70655E+2
   2.26018E+1   4.27032E+2
  -2.74541E+2   4.28232E+2
   2.80358E+2   3.03867E+2
   6.34847E+1   8.17020E+1
  -3.03766E+2  -1.30108E+2
  -5.19524E+2   4.34138E+1
  -2.51716E+2  -5.19597E+2
   5.83664E+2  -5.72858E+2
   8.87455E+2  -1.02927E+2
   5.51682E+2   3.02728E+2
   4.01292E+1   4.08297E+2
  -1.66608E+2   5.79043E+2
  -1.16340E+2   5.03226E+2
  -3.16548E+2   2.28500E+2
  -8.33526E+1  -3.22357E+2
   3.22325E+2  -3.91065E+2
   2.06986E+2  -4.03629E+1
   1.32205E+2   3.22531E+2
  -1.20846E+2   3.98519E+2
  -2.88948E+2   1.40983E+2
  -2.84774E+2  -4.73633E+2
   8.21153E+1  -2.51283E+2
   2.53800E+2   1.05618E+2
   7.70281E+1   1.11843E+2
   2.16258E+2  -2.17788E+2
   6.55957E+2  -1.85905E+2
   5.79842E+2   3.00117E+2
  -7.85727E+1   5.17698E+2
  -3.42032E+2  -1.90284E+1
  -2.41263E+2  -2.21241E+2
   3.86580E+2  -1.02918E+2
   3.94601E+2   5.27665E+2
   2.25753E+2   6.30503E+2
  -3.28082E+2   4.20872E+2
  -3.48387E+2  -2.38270E+2
  -1.11425E+2  -3.72756E+2
  -1.64370E+2  -2.18347E+2
   2.99141E+2  -3.21715E+2
   1.25982E+2  -4.17129E+2
   4.60682E+2  -1.60368E+2
   2.75094E+2   1.59702E+2
   2.97914E+2   5.20115E+2
  -3.57951E+1   3.22998E+2
  -4.53016E+1   1.93907E+2
  -2.52443E+1  -2.28414E+2
  -1.82226E+2   6.43319E+1
  -2.64368E+2  -2.66347E+0
  -2.28049E+2  -4.46353E+1
  -1.68619E+2  -2.39080E+2
  -1.83481E+2   9.56663E+1
  -9.08205E+1   4.59502E+1
  -1.00317E+2  -1.20985E+2
  -8.12544E+1  -2.55356E+2
   4.59344E+2  -2.37930E+2
   4.20766E+2   1.15989E+2
   5.69064E+1   3.20664E+2
  -1.91788E+2   3.19873E+2
  -2.06840E+1  -3.36468E+1
   1.08848E+2  -8.75468E+1
   6.61349E+1   3.28548E+2
  -1.12684E+2   9.62365E+1
  -2.74139E+2   2.53897E+1
  -1.71648E+2  -1.16028E+2
  -5.49127E+1   4.32303E+1
  -1.22274E+2   1.25367E+2
  -3.83248E+2  -3.46511E+1
  -2.31163E+2  -3.23265E+2
   4.20125E+2  -2.50992E+2
   1.81578E+2   2.40104E+2
  -3.84784E+2   4.15677E+2
  -4.06549E+2   2.01412E+2
  -2.47397E+2  -1.62683E+2
  -7.66097E+1  -6.30913E+1
   6.83126E+1  -2.26409E+2
  -2.98930E+2  -1.93689E+2
   2.39462E+2  -1.08503E+2
   3.58332E+2   1.37213E+1
   4.24776E+2   4.64924E+2
   1.17070E+1   5.66311E+2
  -3.78309E+2   3.36034E+2
  -4.88252E+2  -4.93631E+2
  -9.43232E+1  -5.58205E+2
   1.46345E+2  -2.37791E+2
   1.75428E+2   3.64693E+1
   1.27064E+2  -6.56274E+1
  -1.55599E+1   6.32709E+1
  -6.47989E+1   1.70399E+2
  -1.72232E+2   9.09592E+1
  -2.06214E+2   4.70654E+1
  -2.07041E+2  -4.04023E+2
   2.62670E+2  -2.03300E+2
   4.46935E+2   6.32612E+1
   9.92096E+1   2.57606E+2
  -3.01835E+2   9.23808E+1
  -2.82033E+2  -2.06468E+2
  -9.28550E+1  -2.38655E+2
   1.74400E+2  -8.54017E+1
  -1.50555E+2   3.18580E+1
  -1.16449E+2  -1.86490E+2
   9.63399E+1  -1.56546E+2
   3.55649E+2   3.91006E+1
   1.68044E+2   3.80874E+2
  -4.37009E+2   8.31151E+1
  -4.39215E+2  -3.86924E+2
   1.50901E+2  -4.67131E+2
   3.34608E+2  -3.97665E+2
  -1.15714E+1   7.53926E+1
   1.76596E+2  -7.95981E+1
  -2.02570E+1   8.35070E+1
   1.13565E+2   5.52686E+1
   7.28601E+1   2.96678E+2
  -3.94637E+2   2.82953E+2
  -4.86368E+2  -7.46655E+1
   7.50120E+1  -3.46881E+2
   3.68821E+2  -8.07917E+1
   3.07742E+1   1.09452E+2
  -2.73341E+2   1.24515E+2
  -2.46342E+2  -1.91641E+2
  -1.22882E+2  -1.13164E+2
   1.40200E+2  -4.11857E+1
   4.31444E+1   3.15340E+1
  -2.87848E+2  -3.37960E+1
  -1.84157E+2  -1.09893E+2
  -2.61136E+1   1.10562E+2
  -7.14931E+1  -2.00723E+2
  -3.93091E+2  -1.67843E+2
  -7.28218E+1   1.37642E+2
  -4.51221E+0  -5.00125E+1
   3.50822E+2  -3.44062E+2
  -4.13142E+0   1.52716E+2
  -1.48353E+2  -2.16371E+1
  -2.16746E+2   1.79088E+1
  -7.38318E+1  -2.67778E+2
   1.79666E+2  -5.11724E+1
  -1.95875E+2   3.40913E+2
  -5.77565E+1  -1.04627E+2
   1.52872E+2  -1.93733E+2
   1.99697E+2  -1.90639E+2
   3.14260E+0   3.04550E+2
   5.04514E-1   1.24530E+2
  -3.15315E+2  -1.67580E+2
   3.17704E+1  -1.40917E+2
  -6.02667E+1  -2.99263E+2
   3.07811E+2   1.90116E+1
  -4.31317E+1   2.90764E+2
  -1.21149E+2   3.29063E+1
  -2.05070E+2  -6.14781E+1
  -1.87928E+2   6.86059E+1
  -1.64227E+2   3.27448E+1
  -1.60297E+2  -1.37832E+1
   1.01643E+2  -1.77117E+2
   4.34265E+2  -3.39482E+2
   1.91540E+2   5.44721E+1
  -6.34237E+1   3.06565E+2
  -2.28747E+2   1.30959E+2
  -2.23676E+2  -1.64991E+2
  -1.12807E+1  -3.72140E+2
   1.07758E+1   9.52024E+1
   5.54240E+1  -1.73052E+1
   1.12765E+2  -4.83471E+1
   2.37690E+2   8.41113E+1
   1.75170E+2  -9.82203E+1
  -1.37794E+2  -5.56908E+0
  -2.09151E+2  -9.23373E+1
  -2.23371E+1  -2.66149E+2
  -9.70173E+0  -3.45621E+2
   2.46924E+2  -2.32265E+2
   2.40019E+2  -8.93645E+0
   1.45047E+2  -1.83396E+2
  -2.26138E+1  -1.00591E+1
  -6.68510E+1   6.22818E+1
  -6.30352E+1  -1.24601E+2
  -3.60273E+2   2.36538E+1
  -1.85518E+2  -3.84605E+2
   1.41191E+2  -1.77196E+2
   2.01496E+2  -1.84597E+2
   7.66972E+1   1.82670E+2
  -2.26723E+2   1.76615E+2
  -2.10521E+2  -2.35260E+1
  -3.07081E+1  -1.10356E+2
  -7.70069E+1  -2.17918E+2
  -2.24960E+1   5.76149E+1
   1.16165E+2  -1.94895E+2
   7.88421E+1  -2.63578E+2
   1.33841E+2   7.42266E+1
  -2.10561E+2  -1.78531E+0
  -2.26265E+2  -2.82035E+1
   1.82194E+1  -3.28922E+2
   5.59774E+1  -3.89707E+2
   1.54693E+2  -3.93858E+1
   5.92195E+1   2.29356E+2
  -2.53184E+2   4.76787E+1
  -1.18471E+2  -3.00949E+2
   1.35444E+2  -4.09867E+1
   1.30166E+2  -9.12143E+1
   9.92135E+1   9.07859E+1
  -2.40406E+2  -2.49624E+1
   1.37206E+2  -9.17273E+1
  -5.80251E+1   8.39501E+1
  -2.44475E+2  -1.63401E+2
  -2.40878E+1  -9.73235E+0
  -3.74826E+1  -1.11306E+2
  -1.04621E+2   8.24460E+1
   1.45918E+2  -5.63992E+1
   1.30319E+2   7.24778E+1
   7.26805E+1   1.10263E+2
   5.64382E+1   5.00893E+1
  -6.86785E+0   1.56623E+1
  -5.18792E+1   9.62562E+1
  -1.49243E+2   1.66624E+2
  -4.24849E+1   1.14505E+2
   1.45008E+2  -1.36853E+2
  -1.47930E+1   1.92257E+1
   2.11829E+2   2.64219E+2
  -1.97518E+2   2.15551E+1
  -2.56336E+2  -2.58540E+1
  -4.85739E+1  -2.98439E+2
   1.89775E+2  -7.14409E+1
  -6.47295E+1   3.20916E+1
   1.10282E+2   1.35896E+2
   4.11157E+1  -1.29786E+2
  -1.02438E+2   1.85490E+2
  -2.92451E+1   9.93943E+1
  -1.49047E+2   1.58737E+2
  -1.67135E+2  -3.74453E+1
  -9.83336E+1  -3.80842E+2
   3.90457E+2  -4.57395E+1
   3.65502E+2   1.40021E+2
   6.72483E-1   2.12027E+2
  -2.20606E+2   1.74340E+2
   1.54892E+1   1.00249E+2
   2.15829E+2   1.63742E+2
   4.38532E+1  -2.09600E+1
  -2.30293E+2   4.88267E+1
  -1.98157E+2  -1.12400E+2
   2.01867E+2  -5.31034E+1
   1.85469E+2   7.77590E+1
  -2.94195E+1   3.12409E+2
   5.83386E+1   9.95084E+0
  -6.85436E+1  -2.27145E+2
   1.42090E+2   9.73382E+1
   8.49087E+0  -1.56739E+2
  -2.01241E+2  -6.72353E+1
   1.53228E+2  -8.42757E+1
   2.00637E+2  -5.19208E+1
   1.42845E+2   2.72438E+2
   1.24130E+2   1.67895E+2
  -8.57635E+1   6.87009E+0
  -1.05654E+2  -2.12767E+1
  -3.41941E+1  -7.99422E+1
   1.13931E+2   9.70641E+1
   5.98562E+1   2.42019E+2
  -2.99334E+2  -1.95086E+1
  -2.17093E+2  -1.74380E+2
  -4.26024E+1  -9.94022E+1
   1.79909E+2  -1.24144E+2
