 LCModel (Version 6.3-1N) Copyright: S.W. Provencher.          Ref.: Magn. Reson. Med. 30:672-679 (1993).                
 Slice_N1@19_8  28-Feb-2025 11:42:59
 27 lines in following concentration table = NCONC+1
    Conc.  %SD /Cr+PCr  Metabolite                                         
 3.01E-04   4% 3.9E-04 Mac                                                 
    6.113  15%   8.000 Cr                                                  
    0.000 999%   0.000 PCr                                                 
    4.139  28%   5.417 Ins                                                 
    9.173  13%  12.005 NAA                                                 
    5.405  22%   7.074 Tau                                                 
    0.000 999%   0.000 PCho                                                
    1.196  34%   1.565 GPC                                                 
   11.777  11%  15.413 Glu                                                 
    3.890  27%   5.091 Gln                                                 
    0.686 134%   0.898 Ala                                                 
    3.492  49%   4.570 Asc                                                 
    2.894  33%   3.788 Asp                                                 
    0.154 362%   0.202 GABA                                                
    0.670  94%   0.877 Glc                                                 
    1.200  54%   1.570 GSH                                                 
    2.636  35%   3.449 Lac                                                 
    2.624  36%   3.434 NAAG                                                
    1.303 113%   1.705 PE                                                  
    1.196  34%   1.565 GPC+PCho                                            
   11.797   9%  15.439 NAA+NAAG                                            
   15.667  11%  20.504 Glu+Gln                                             
    6.113  15%   8.000 Cr+PCr                                              
   11.797   9%  15.439 NAA+NAAG                                            
    6.113  15%   8.000 Cr+PCr                                              
   15.667  11%  20.504 Glu+Gln                                             
   6 lines in following misc. output table
  FWHM = 0.065 ppm    S/N =   3                                            
  Data shift = 0.000 ppm                                                   
  Ph: 172 deg       0.0 deg/ppm                                            
  alphaB,S = 3.9E+00,   2.9E+01                                            
   19 spline knots.   Ns = 8(1)                                            
  ( 5) 3 infls.   ( 4) 2 extrs.                                            
  480 points on ppm-axis = NY
      4.100000     4.091866     4.083733     4.075600     4.067466     4.059333     4.051199     4.043066     4.034933     4.026799
      4.018666     4.010532     4.002399     3.994265     3.986132     3.977998     3.969864     3.961731     3.953597     3.945463
      3.937330     3.929196     3.921062     3.912929     3.904795     3.896662     3.888528     3.880394     3.872261     3.864127
      3.855993     3.847860     3.839726     3.831592     3.823459     3.815325     3.807191     3.799058     3.790924     3.782790
      3.774657     3.766523     3.758389     3.750256     3.742122     3.733989     3.725855     3.717721     3.709588     3.701454
      3.693320     3.685187     3.677053     3.668919     3.660786     3.652652     3.644518     3.636385     3.628251     3.620117
      3.611984     3.603850     3.595716     3.587583     3.579449     3.571316     3.563182     3.555048     3.546915     3.538781
      3.530647     3.522514     3.514380     3.506246     3.498113     3.489979     3.481845     3.473712     3.465578     3.457444
      3.449311     3.441177     3.433043     3.424910     3.416776     3.408643     3.400509     3.392375     3.384242     3.376108
      3.367974     3.359841     3.351707     3.343573     3.335440     3.327306     3.319172     3.311039     3.302905     3.294771
      3.286638     3.278504     3.270370     3.262237     3.254103     3.245970     3.237836     3.229702     3.221569     3.213435
      3.205301     3.197168     3.189034     3.180900     3.172767     3.164633     3.156499     3.148366     3.140232     3.132098
      3.123965     3.115831     3.107697     3.099564     3.091430     3.083297     3.075163     3.067029     3.058896     3.050762
      3.042628     3.034495     3.026361     3.018227     3.010094     3.001960     2.993826     2.985693     2.977559     2.969425
      2.961292     2.953158     2.945024     2.936891     2.928757     2.920624     2.912490     2.904356     2.896223     2.888089
      2.879955     2.871822     2.863688     2.855554     2.847421     2.839287     2.831153     2.823020     2.814886     2.806752
      2.798619     2.790485     2.782351     2.774218     2.766084     2.757951     2.749817     2.741683     2.733550     2.725416
      2.717282     2.709149     2.701015     2.692881     2.684748     2.676614     2.668480     2.660347     2.652213     2.644079
      2.635946     2.627812     2.619678     2.611545     2.603411     2.595278     2.587144     2.579010     2.570877     2.562743
      2.554609     2.546476     2.538342     2.530208     2.522075     2.513941     2.505807     2.497674     2.489540     2.481406
      2.473273     2.465139     2.457006     2.448872     2.440738     2.432605     2.424471     2.416337     2.408204     2.400070
      2.391936     2.383803     2.375669     2.367535     2.359402     2.351268     2.343134     2.335001     2.326867     2.318733
      2.310600     2.302466     2.294333     2.286199     2.278065     2.269932     2.261798     2.253664     2.245531     2.237397
      2.229263     2.221130     2.212996     2.204862     2.196729     2.188595     2.180461     2.172328     2.164194     2.156060
      2.147927     2.139793     2.131660     2.123526     2.115392     2.107259     2.099125     2.090991     2.082858     2.074724
      2.066590     2.058457     2.050323     2.042189     2.034056     2.025922     2.017788     2.009655     2.001521     1.993387
      1.985254     1.977120     1.968987     1.960853     1.952719     1.944586     1.936452     1.928318     1.920185     1.912051
      1.903917     1.895784     1.887650     1.879516     1.871383     1.863249     1.855115     1.846982     1.838848     1.830714
      1.822581     1.814447     1.806314     1.798180     1.790046     1.781913     1.773779     1.765645     1.757512     1.749378
      1.741244     1.733111     1.724977     1.716843     1.708710     1.700576     1.692442     1.684309     1.676175     1.668041
      1.659908     1.651774     1.643641     1.635507     1.627373     1.619240     1.611106     1.602972     1.594839     1.586705
      1.578571     1.570438     1.562304     1.554170     1.546037     1.537903     1.529769     1.521636     1.513502     1.505368
      1.497235     1.489101     1.480968     1.472834     1.464700     1.456567     1.448433     1.440299     1.432166     1.424032
      1.415898     1.407765     1.399631     1.391497     1.383364     1.375230     1.367096     1.358963     1.350829     1.342695
      1.334562     1.326428     1.318295     1.310161     1.302027     1.293894     1.285760     1.277626     1.269493     1.261359
      1.253225     1.245092     1.236958     1.228824     1.220691     1.212557     1.204423     1.196290     1.188156     1.180022
      1.171889     1.163755     1.155622     1.147488     1.139354     1.131221     1.123087     1.114953     1.106820     1.098686
      1.090552     1.082419     1.074285     1.066151     1.058018     1.049884     1.041750     1.033617     1.025483     1.017349
      1.009216     1.001082     0.992949     0.984815     0.976681     0.968548     0.960414     0.952280     0.944147     0.936013
      0.927879     0.919746     0.911612     0.903478     0.895345     0.887211     0.879077     0.870944     0.862810     0.854676
      0.846543     0.838409     0.830276     0.822142     0.814008     0.805875     0.797741     0.789607     0.781474     0.773340
      0.765206     0.757073     0.748939     0.740805     0.732672     0.724538     0.716404     0.708271     0.700137     0.692003
      0.683870     0.675736     0.667603     0.659469     0.651335     0.643202     0.635068     0.626934     0.618801     0.610667
      0.602533     0.594400     0.586266     0.578132     0.569999     0.561865     0.553731     0.545598     0.537464     0.529330
      0.521197     0.513063     0.504930     0.496796     0.488662     0.480529     0.472395     0.464261     0.456128     0.447994
      0.439861     0.431727     0.423593     0.415460     0.407326     0.399192     0.391059     0.382925     0.374792     0.366658
      0.358524     0.350391     0.342257     0.334124     0.325990     0.317856     0.309723     0.301589     0.293455     0.285322
      0.277188     0.269055     0.260921     0.252787     0.244654     0.236520     0.228386     0.220253     0.212119     0.203986
 NY phased data points follow
   6.35027E+00 -5.91811E+00  3.20875E+00  1.44435E+01  1.83678E+01  5.11367E+00 -3.98320E+00 -1.42154E+00  5.24368E+00  4.72837E+00
  -1.38950E+00  1.20528E+01 -1.55053E+01 -2.80402E+01 -1.14137E+01 -3.70902E+01 -4.00464E+01 -3.27520E+01 -3.14304E+01 -3.51250E+00
  -2.67665E+01 -2.63617E+01 -9.32173E+00 -2.03062E+01  1.23857E+01  8.22812E+00  3.00967E+01  4.88763E+01  5.28509E+01  5.91727E+01
   1.81534E+01  3.53770E+01  1.86743E+01  2.15673E+01  3.24244E+01 -9.27331E+00  1.31544E+01  1.64455E+01 -1.63051E+01 -1.77592E+01
  -2.36356E+01 -2.06817E+01 -4.24132E-01 -4.97487E+00  1.72927E+01  3.84654E+01  3.33201E+01  4.51064E+01  8.27584E+01  7.09259E+01
   3.97168E+01  7.46212E+01  5.68238E+01  5.62387E+01  4.79702E+01  3.71934E+01  6.49840E+01  4.95732E+01  4.53248E+01  4.80227E+01
   5.54821E+01  3.33719E+01  4.93404E+01  6.16081E+01  3.42921E+01  5.84778E+01  5.44789E+01  3.13206E+01  5.11836E+01  5.86983E+01
   2.52985E+01  3.20050E+01  3.24955E+01  5.95002E+01  6.23596E+01  3.48285E+01  6.95163E+01  6.77882E+01  7.72995E+01  6.36052E+01
   5.31083E+01  6.82723E+01  4.29181E+01  3.47379E+01  4.21782E+01  4.04067E+01  3.50033E+01  5.49553E+01  6.14795E+01  6.60829E+01
   7.07442E+01  8.20445E+01  1.04933E+02  9.43796E+01  8.83346E+01  1.11774E+02  1.19155E+02  1.18759E+02  1.05300E+02  7.91091E+01
   8.19672E+01  6.61645E+01  4.39821E+01  5.93506E+00  1.19882E+01  9.62418E+00 -1.77898E+01 -4.90319E+00 -4.55819E+01 -2.71836E+01
  -3.84820E+01 -2.49100E+01 -1.31720E+01 -4.56536E+01  1.31626E+01 -2.90657E+01 -2.23509E+01  2.50618E+01  2.56272E+00  6.43005E+00
   3.27832E+01  3.88181E+01  3.63292E+01  6.44131E+01  5.53605E+01  7.40461E+01  5.40956E+01  6.00932E+01  8.54546E+01  5.75132E+01
   4.25059E+01 -2.67935E+00  1.67466E+01  3.06856E+00 -2.01838E+01 -3.98667E+01 -7.60927E+01 -4.32027E+01 -6.41162E+01 -5.07494E+01
  -3.71466E+01 -4.96608E+01 -2.54930E+01 -4.53152E+01 -4.17145E+01 -2.63721E+01 -2.32251E+01 -1.08425E+01 -2.02976E+01 -2.54263E+01
  -2.74349E+01 -8.41823E+00  8.10696E+00  1.53914E-01  1.07756E+01  8.56953E+00  4.62662E+00 -1.35707E+01 -6.91120E+00  3.57011E+01
   7.93342E+00  4.22845E+00  1.25829E+01 -7.83383E+00 -2.98426E+00  5.12439E+00  1.94889E+01  8.09801E+00  2.25749E+01  3.79517E+01
   3.23365E+01  4.69968E+01  1.40456E+01  1.39116E+01  4.83899E+01  4.37537E+01  1.80122E+01  8.67067E+00  2.25710E+01  4.76996E+00
  -8.89702E-01 -6.46576E+00 -1.82168E+01 -1.08366E+01 -1.93880E+01 -1.81987E+01 -3.20789E+01 -2.82906E+01 -1.97092E+01 -2.62519E+01
   1.01209E+01  7.64689E+00 -1.45408E+00 -9.18637E+00 -1.98649E+01  1.23460E+01  6.06553E+00  1.29621E+01  2.64765E+00 -4.18975E-02
   1.19123E+01 -7.47476E+00  2.36407E+01 -2.05142E-01 -8.46186E+00  1.70920E+00 -1.17601E+01  3.68013E+00 -2.09910E+01 -1.51601E+01
  -1.54193E+01 -9.32274E+00  1.75156E+01  3.98998E+01  6.04188E+01  4.52333E+01  6.43044E+01  7.89196E+01  7.11080E+01  6.12492E+01
   4.66574E+01  3.23279E+01  8.97330E+00  2.36050E+01  2.98299E+01 -1.10228E+01  5.07752E+00  2.75247E+01  6.74730E+00  1.87055E+01
  -8.76377E+00 -3.59445E+01 -3.22202E+01 -3.31890E+01 -2.95505E+01 -4.98952E+01 -6.14614E+01 -5.95975E+01 -4.84360E+01 -4.31168E+01
  -2.78113E+01 -1.22795E+01 -2.47230E+01 -3.13902E+01 -1.87287E+01 -1.14134E+01 -1.90908E+00  1.01465E+00 -4.37506E+01 -2.15298E+01
  -6.21435E+00 -5.58110E+01 -4.45831E+01 -2.10235E+01  2.29674E+00  3.85617E+01  5.22286E+01  7.05550E+01  1.03538E+02  1.14762E+02
   1.66763E+02  1.88573E+02  1.42110E+02  1.47523E+02  1.38255E+02  1.05352E+02  8.54674E+01  8.61569E+01  9.78239E+01  9.79760E+01
   1.03943E+02  1.00576E+02  7.22085E+01  5.08917E+01  6.70570E+01  7.60404E+01  8.02617E+01  8.61201E+01  5.58795E+01  5.48426E+01
   9.79692E+01  7.74081E+01  5.72526E+01  5.16183E+01  4.82165E+01  6.61810E+01  3.08800E+01  4.70212E+01  5.99364E+01  6.52429E+01
   6.03144E+01  1.63684E+01  2.90419E+01  1.83808E+01  3.45751E+01  2.64287E+01  1.52747E+01  1.19134E+01  8.00619E-01  4.02914E+01
   3.64680E+01  6.54956E+01  6.51611E+01  5.87617E+01  6.87352E+01  7.93355E+01  1.09760E+02  1.04331E+02  1.33258E+02  1.19378E+02
   1.31906E+02  1.47016E+02  1.35790E+02  1.63167E+02  1.40608E+02  1.26955E+02  1.34034E+02  1.38456E+02  1.16520E+02  1.07580E+02
   8.04170E+01  6.70768E+01  8.38080E+01  3.95160E+01  4.07775E+01  5.34888E+01  7.30062E+01  9.10398E+01  7.39242E+01  6.01396E+01
   3.73799E+01  2.57449E+01  3.04212E+01  2.50439E+01 -4.15428E+00  1.80754E+01  7.97126E+00 -7.74321E+00  1.04790E+01  1.31255E+01
   3.64249E+01  2.07818E+01  2.66584E+01  1.56341E+01  1.46161E+01  3.90229E+01  3.16639E+01  4.04812E+01  3.22352E+01  4.80061E+01
   4.68349E+01  3.65014E+01  4.01696E+01  3.27186E+01  1.76252E+01  1.75511E+01  3.01556E+01  4.52718E-01  4.21889E-02  1.48867E+01
   2.44012E+01  2.17072E+01  1.92460E+01  3.19785E+01  2.51644E+01  3.72088E+01  3.67824E+01  3.34759E+01  4.47224E+01  5.24040E+01
   5.14477E+01  4.58457E+01  5.72449E+01  6.68740E+01  5.76983E+01  6.96204E+01  8.44024E+01  6.01096E+01  8.13375E+01  1.05576E+02
   8.23627E+01  9.33806E+01  1.02720E+02  1.03540E+02  1.28142E+02  1.24299E+02  1.12609E+02  9.49091E+01  1.04213E+02  1.23694E+02
   9.13480E+01  1.25786E+02  1.09687E+02  7.66085E+01  9.76449E+01  5.32975E+01  6.23580E+01  5.09959E+01  1.93338E+01  3.09272E+01
   1.40944E+01  2.62831E+00  1.48094E+01  1.14727E+01 -3.62381E+00  2.12953E+01 -5.24147E+00 -4.20981E+01 -2.83265E+01 -4.24276E+01
  -2.38362E+01  1.07515E+01 -1.96548E+01 -3.57213E+01 -1.29498E+01 -8.10444E+00 -1.00417E+01 -1.69741E+00  3.86447E+00 -3.73994E+00
   6.02950E+00 -1.11242E+00 -1.53233E+01 -1.76909E+01 -1.01463E+01  3.65860E+00 -1.02207E+01  2.12258E+00 -3.57600E+00 -5.92782E+00
  -3.27787E+00 -4.73256E+00  3.14927E+00 -2.29555E+01 -1.32604E+01 -9.96696E+00 -1.74979E+01 -1.26054E+01 -7.72494E+00 -1.17203E+01
  -8.15824E+00 -3.72343E+00 -2.12962E+01 -1.57299E+01 -2.47800E+01 -7.45565E+00 -1.10571E+01 -9.04771E+00 -6.91705E-02 -3.31340E+01
  -1.96551E+00 -1.48239E+01 -1.86196E+01  1.22514E+01  5.21975E+00  1.27888E+01 -3.05997E+00 -3.38552E+00  3.53889E+00 -4.46723E+00
  -7.79551E+00  7.37397E+00  1.74359E+01 -8.47982E+00  1.42307E+00  6.12768E+00 -1.13924E+01 -5.28706E+00  7.59718E+00  1.13558E+01
  -1.40789E+01 -4.17019E-01  1.15096E+01 -8.48614E-01  2.48486E+01  1.40865E+01 -1.14036E+01 -4.36583E+00  4.94494E+00  1.30567E+01
 NY points of the fit to the data follow
   1.01368E+01  9.42552E+00  8.57817E+00  7.48277E+00  6.08963E+00  4.40553E+00  2.73618E+00  1.59343E+00  9.80781E-01  2.04919E-01
  -1.22180E+00 -3.19311E+00 -5.04351E+00 -6.28273E+00 -7.12684E+00 -8.08323E+00 -9.98561E+00 -1.30972E+01 -1.59759E+01 -1.67778E+01
  -1.47405E+01 -1.01336E+01 -3.75057E+00  4.29010E+00  1.49393E+01  2.84878E+01  4.29242E+01  5.42489E+01  5.99635E+01  6.07418E+01
   5.79512E+01  5.32097E+01  4.83307E+01  4.29800E+01  3.56053E+01  2.61815E+01  1.56069E+01  5.35749E+00 -3.21913E+00 -9.26420E+00
  -1.23225E+01 -1.19229E+01 -7.25166E+00  2.13458E+00  1.52979E+01  2.96525E+01  4.25747E+01  5.21049E+01  5.72062E+01  5.82617E+01
   5.67585E+01  5.37409E+01  5.00784E+01  4.63791E+01  4.29378E+01  3.98925E+01  3.77760E+01  3.70330E+01  3.76432E+01  3.92640E+01
   4.14244E+01  4.39371E+01  4.67617E+01  4.96482E+01  5.16887E+01  5.23595E+01  5.21088E+01  5.09029E+01  4.88704E+01  4.69016E+01
   4.53490E+01  4.47812E+01  4.64869E+01  5.05714E+01  5.59146E+01  6.07853E+01  6.41351E+01  6.49683E+01  6.26461E+01  5.78729E+01
   5.18544E+01  4.53172E+01  3.93802E+01  3.50845E+01  3.29875E+01  3.35953E+01  3.70675E+01  4.33281E+01  5.12108E+01  5.91818E+01
   6.59968E+01  7.08892E+01  7.39313E+01  7.60686E+01  7.76088E+01  7.89101E+01  7.99634E+01  7.99992E+01  7.84771E+01  7.48523E+01
   6.89283E+01  6.08266E+01  5.08143E+01  3.90493E+01  2.51619E+01  9.05918E+00 -7.63082E+00 -2.21408E+01 -3.26103E+01 -3.82105E+01
  -4.04991E+01 -4.11465E+01 -3.91665E+01 -3.27193E+01 -2.20816E+01 -9.43931E+00  2.59385E+00  1.26683E+01  1.98627E+01  2.56013E+01
   3.19560E+01  3.89579E+01  4.64566E+01  5.45446E+01  6.26927E+01  7.05604E+01  7.71928E+01  7.99682E+01  7.64474E+01  6.63761E+01
   5.15888E+01  3.49575E+01  1.77933E+01 -8.82775E-01 -2.07940E+01 -3.83173E+01 -4.83692E+01 -4.98647E+01 -4.57189E+01 -3.90263E+01
  -3.34534E+01 -3.16045E+01 -3.14403E+01 -3.10255E+01 -3.02059E+01 -2.89359E+01 -2.72307E+01 -2.51549E+01 -2.27871E+01 -2.02548E+01
  -1.77560E+01 -1.54224E+01 -1.33209E+01 -1.14824E+01 -9.81781E+00 -8.17128E+00 -6.47302E+00 -4.92013E+00 -3.81830E+00 -3.33771E+00
  -3.27346E+00 -3.22770E+00 -3.02835E+00 -2.81527E+00 -2.66931E+00 -2.30975E+00 -1.02314E+00  1.67445E+00  5.35321E+00  9.21993E+00
   1.28125E+01  1.61852E+01  1.96669E+01  2.27463E+01  2.39368E+01  2.21684E+01  1.78726E+01  1.26951E+01  7.83414E+00  3.19800E+00
  -1.68663E+00 -7.01783E+00 -1.22377E+01 -1.60974E+01 -1.80434E+01 -1.81888E+01 -1.70063E+01 -1.54822E+01 -1.38523E+01 -1.17290E+01
  -9.23706E+00 -6.44454E+00 -3.49267E+00 -5.37637E-01  2.49052E+00  5.55500E+00  8.33917E+00  1.03716E+01  1.15158E+01  1.22192E+01
   1.23313E+01  1.12317E+01  9.12344E+00  6.12502E+00  2.12099E+00 -2.66603E+00 -8.01207E+00 -1.27790E+01 -1.59876E+01 -1.63319E+01
  -1.25133E+01 -4.43981E+00  6.94899E+00  2.04023E+01  3.43156E+01  4.73710E+01  5.80543E+01  6.49375E+01  6.72900E+01  6.46290E+01
   5.84183E+01  5.04437E+01  4.20792E+01  3.50181E+01  2.92393E+01  2.30750E+01  1.62290E+01  7.76317E+00 -2.32764E+00 -1.32775E+01
  -2.42504E+01 -3.43543E+01 -4.30419E+01 -4.98011E+01 -5.43114E+01 -5.66499E+01 -5.67690E+01 -5.47897E+01 -5.09707E+01 -4.56554E+01
  -3.96766E+01 -3.36124E+01 -2.81322E+01 -2.37527E+01 -2.03832E+01 -1.83352E+01 -1.78636E+01 -1.90360E+01 -2.21512E+01 -2.57977E+01
  -2.88027E+01 -3.06117E+01 -2.83864E+01 -1.93108E+01 -2.47842E+00  2.04306E+01  4.47716E+01  6.75052E+01  8.94973E+01  1.12016E+02
   1.31949E+02  1.42298E+02  1.41513E+02  1.33094E+02  1.20138E+02  1.08345E+02  1.02281E+02  9.97488E+01  9.78853E+01  9.63269E+01
   9.50913E+01  9.42312E+01  9.36981E+01  9.33469E+01  9.30185E+01  9.25648E+01  9.18771E+01  9.09244E+01  8.97553E+01  8.83579E+01
   8.66998E+01  8.47853E+01  8.26166E+01  8.02137E+01  7.75859E+01  7.47188E+01  7.16138E+01  6.82762E+01  6.47831E+01  6.12602E+01
   5.79075E+01  5.49726E+01  5.26690E+01  5.11699E+01  5.05907E+01  5.09801E+01  5.23393E+01  5.45147E+01  5.72489E+01  6.02667E+01
   6.33071E+01  6.62305E+01  6.90423E+01  7.17713E+01  7.44234E+01  7.69936E+01  7.94602E+01  8.18208E+01  8.41124E+01  8.63148E+01
   8.83237E+01  9.00172E+01  9.12976E+01  9.21108E+01  9.24181E+01  9.21522E+01  9.12218E+01  8.94101E+01  8.65937E+01  8.27249E+01
   7.78249E+01  7.20159E+01  6.53735E+01  5.79305E+01  4.99179E+01  4.17276E+01  3.37860E+01  2.65894E+01  2.05390E+01  1.60138E+01
   1.31852E+01  1.21511E+01  1.30440E+01  1.56582E+01  1.96272E+01  2.43556E+01  2.87949E+01  3.20661E+01  3.35903E+01  3.32917E+01
   3.16777E+01  2.92502E+01  2.63706E+01  2.35259E+01  2.12641E+01  2.02564E+01  2.06604E+01  2.21312E+01  2.38720E+01  2.46138E+01
   2.37639E+01  2.17056E+01  1.87955E+01  1.58387E+01  1.35460E+01  1.21872E+01  1.20049E+01  1.30680E+01  1.52480E+01  1.82870E+01
   2.18771E+01  2.57180E+01  2.95826E+01  3.33643E+01  3.70035E+01  4.04624E+01  4.37884E+01  4.70409E+01  5.03019E+01  5.36997E+01
   5.73406E+01  6.13024E+01  6.56582E+01  7.04852E+01  7.58511E+01  8.17990E+01  8.83677E+01  9.55255E+01  1.03132E+02  1.10952E+02
   1.18606E+02  1.25526E+02  1.31113E+02  1.34822E+02  1.36157E+02  1.34855E+02  1.30964E+02  1.24728E+02  1.16532E+02  1.06992E+02
   9.68193E+01  8.66821E+01  7.70739E+01  6.81880E+01  5.99068E+01  5.19841E+01  4.41831E+01  3.64068E+01  2.88172E+01  2.17618E+01
   1.55889E+01  1.05451E+01  6.74531E+00  4.06696E+00  2.21513E+00  9.21831E-01  1.63255E-02 -6.83539E-01 -1.27683E+00 -1.79601E+00
  -2.25650E+00 -2.63682E+00 -2.92149E+00 -3.09840E+00 -3.19153E+00 -3.23602E+00 -3.25639E+00 -3.28113E+00 -3.33778E+00 -3.40220E+00
  -3.42623E+00 -3.40870E+00 -3.38626E+00 -3.36772E+00 -3.33280E+00 -3.28929E+00 -3.26904E+00 -3.25451E+00 -3.23180E+00 -3.20365E+00
  -3.16744E+00 -3.13599E+00 -3.11943E+00 -3.10359E+00 -3.06939E+00 -2.98613E+00 -2.83803E+00 -2.66302E+00 -2.52533E+00 -2.45162E+00
  -2.44300E+00 -2.48248E+00 -2.54071E+00 -2.59910E+00 -2.66622E+00 -2.74189E+00 -2.78802E+00 -2.77958E+00 -2.71861E+00 -2.62860E+00
  -2.53622E+00 -2.47068E+00 -2.43305E+00 -2.38703E+00 -2.30657E+00 -2.21853E+00 -2.17183E+00 -2.18066E+00 -2.24668E+00 -2.36484E+00
  -2.47972E+00 -2.56640E+00 -2.62600E+00 -2.66129E+00 -2.67644E+00 -2.69552E+00 -2.72421E+00 -2.77260E+00 -2.84850E+00 -2.98866E+00
  -3.23191E+00 -3.57560E+00 -3.97382E+00 -4.37921E+00 -4.73854E+00 -5.03750E+00 -5.28852E+00 -5.49161E+00 -5.64149E+00 -5.72866E+00
 NY background values follow
     3.808E+01    3.803E+01    3.799E+01    3.794E+01    3.789E+01    3.784E+01    3.779E+01    3.774E+01    3.769E+01    3.765E+01
     3.760E+01    3.755E+01    3.750E+01    3.745E+01    3.740E+01    3.735E+01    3.730E+01    3.726E+01    3.721E+01    3.716E+01
     3.711E+01    3.706E+01    3.701E+01    3.696E+01    3.691E+01    3.687E+01    3.682E+01    3.677E+01    3.672E+01    3.667E+01
     3.662E+01    3.657E+01    3.652E+01    3.648E+01    3.643E+01    3.638E+01    3.633E+01    3.628E+01    3.623E+01    3.618E+01
     3.613E+01    3.608E+01    3.604E+01    3.599E+01    3.594E+01    3.589E+01    3.584E+01    3.579E+01    3.574E+01    3.569E+01
     3.564E+01    3.560E+01    3.555E+01    3.550E+01    3.545E+01    3.540E+01    3.535E+01    3.530E+01    3.525E+01    3.520E+01
     3.515E+01    3.510E+01    3.505E+01    3.501E+01    3.496E+01    3.491E+01    3.486E+01    3.481E+01    3.476E+01    3.471E+01
     3.466E+01    3.461E+01    3.456E+01    3.451E+01    3.446E+01    3.441E+01    3.436E+01    3.431E+01    3.426E+01    3.421E+01
     3.416E+01    3.411E+01    3.406E+01    3.401E+01    3.396E+01    3.391E+01    3.386E+01    3.381E+01    3.376E+01    3.371E+01
     3.366E+01    3.361E+01    3.356E+01    3.351E+01    3.346E+01    3.341E+01    3.336E+01    3.331E+01    3.326E+01    3.321E+01
     3.316E+01    3.311E+01    3.305E+01    3.300E+01    3.295E+01    3.290E+01    3.285E+01    3.280E+01    3.275E+01    3.270E+01
     3.265E+01    3.259E+01    3.254E+01    3.249E+01    3.244E+01    3.239E+01    3.234E+01    3.229E+01    3.223E+01    3.218E+01
     3.213E+01    3.208E+01    3.203E+01    3.198E+01    3.192E+01    3.187E+01    3.182E+01    3.177E+01    3.172E+01    3.166E+01
     3.161E+01    3.156E+01    3.151E+01    3.145E+01    3.140E+01    3.135E+01    3.130E+01    3.124E+01    3.119E+01    3.114E+01
     3.109E+01    3.103E+01    3.098E+01    3.093E+01    3.088E+01    3.082E+01    3.077E+01    3.072E+01    3.066E+01    3.061E+01
     3.056E+01    3.050E+01    3.045E+01    3.040E+01    3.034E+01    3.029E+01    3.024E+01    3.018E+01    3.013E+01    3.007E+01
     3.002E+01    2.997E+01    2.991E+01    2.986E+01    2.980E+01    2.975E+01    2.970E+01    2.964E+01    2.959E+01    2.953E+01
     2.948E+01    2.942E+01    2.937E+01    2.931E+01    2.926E+01    2.921E+01    2.915E+01    2.910E+01    2.904E+01    2.899E+01
     2.893E+01    2.888E+01    2.882E+01    2.877E+01    2.871E+01    2.865E+01    2.860E+01    2.854E+01    2.849E+01    2.843E+01
     2.838E+01    2.832E+01    2.826E+01    2.821E+01    2.815E+01    2.810E+01    2.804E+01    2.798E+01    2.793E+01    2.787E+01
     2.782E+01    2.776E+01    2.770E+01    2.765E+01    2.759E+01    2.753E+01    2.748E+01    2.742E+01    2.736E+01    2.731E+01
     2.725E+01    2.719E+01    2.714E+01    2.708E+01    2.702E+01    2.696E+01    2.691E+01    2.685E+01    2.679E+01    2.674E+01
     2.668E+01    2.662E+01    2.656E+01    2.651E+01    2.645E+01    2.639E+01    2.633E+01    2.627E+01    2.622E+01    2.616E+01
     2.610E+01    2.604E+01    2.598E+01    2.593E+01    2.587E+01    2.581E+01    2.575E+01    2.569E+01    2.563E+01    2.558E+01
     2.552E+01    2.546E+01    2.540E+01    2.534E+01    2.528E+01    2.522E+01    2.516E+01    2.511E+01    2.505E+01    2.499E+01
     2.493E+01    2.487E+01    2.481E+01    2.475E+01    2.469E+01    2.463E+01    2.457E+01    2.451E+01    2.445E+01    2.439E+01
     2.433E+01    2.428E+01    2.422E+01    2.416E+01    2.410E+01    2.404E+01    2.398E+01    2.392E+01    2.386E+01    2.380E+01
     2.374E+01    2.368E+01    2.362E+01    2.356E+01    2.350E+01    2.344E+01    2.338E+01    2.331E+01    2.325E+01    2.319E+01
     2.313E+01    2.307E+01    2.301E+01    2.295E+01    2.289E+01    2.283E+01    2.277E+01    2.271E+01    2.265E+01    2.259E+01
     2.253E+01    2.247E+01    2.240E+01    2.234E+01    2.228E+01    2.222E+01    2.216E+01    2.210E+01    2.204E+01    2.198E+01
     2.192E+01    2.185E+01    2.179E+01    2.173E+01    2.167E+01    2.161E+01    2.155E+01    2.148E+01    2.142E+01    2.136E+01
     2.130E+01    2.124E+01    2.118E+01    2.111E+01    2.105E+01    2.099E+01    2.093E+01    2.087E+01    2.080E+01    2.074E+01
     2.068E+01    2.062E+01    2.056E+01    2.049E+01    2.043E+01    2.037E+01    2.031E+01    2.024E+01    2.018E+01    2.012E+01
     2.005E+01    1.999E+01    1.993E+01    1.987E+01    1.980E+01    1.974E+01    1.968E+01    1.961E+01    1.955E+01    1.949E+01
     1.943E+01    1.936E+01    1.930E+01    1.924E+01    1.917E+01    1.911E+01    1.905E+01    1.898E+01    1.892E+01    1.886E+01
     1.879E+01    1.873E+01    1.867E+01    1.860E+01    1.854E+01    1.847E+01    1.841E+01    1.835E+01    1.828E+01    1.822E+01
     1.816E+01    1.809E+01    1.803E+01    1.796E+01    1.790E+01    1.784E+01    1.777E+01    1.771E+01    1.765E+01    1.758E+01
     1.752E+01    1.745E+01    1.739E+01    1.733E+01    1.726E+01    1.720E+01    1.713E+01    1.707E+01    1.701E+01    1.694E+01
     1.688E+01    1.681E+01    1.675E+01    1.669E+01    1.662E+01    1.656E+01    1.649E+01    1.643E+01    1.637E+01    1.630E+01
     1.624E+01    1.617E+01    1.611E+01    1.605E+01    1.598E+01    1.592E+01    1.585E+01    1.579E+01    1.573E+01    1.566E+01
     1.560E+01    1.553E+01    1.547E+01    1.541E+01    1.534E+01    1.528E+01    1.521E+01    1.515E+01    1.509E+01    1.502E+01
     1.496E+01    1.489E+01    1.483E+01    1.477E+01    1.470E+01    1.464E+01    1.457E+01    1.451E+01    1.445E+01    1.438E+01
     1.432E+01    1.425E+01    1.419E+01    1.413E+01    1.406E+01    1.400E+01    1.393E+01    1.387E+01    1.381E+01    1.374E+01
     1.368E+01    1.361E+01    1.355E+01    1.349E+01    1.342E+01    1.336E+01    1.330E+01    1.323E+01    1.317E+01    1.310E+01
     1.304E+01    1.298E+01    1.291E+01    1.285E+01    1.279E+01    1.272E+01    1.266E+01    1.259E+01    1.253E+01    1.247E+01
     1.240E+01    1.234E+01    1.228E+01    1.221E+01    1.215E+01    1.208E+01    1.202E+01    1.196E+01    1.189E+01    1.183E+01
     1.177E+01    1.170E+01    1.164E+01    1.158E+01    1.151E+01    1.145E+01    1.138E+01    1.132E+01    1.126E+01    1.119E+01
     1.113E+01    1.107E+01    1.100E+01    1.094E+01    1.088E+01    1.081E+01    1.075E+01    1.068E+01    1.062E+01    1.056E+01
 Mac      Conc. = 3.01E-04
   1.65487E+01  1.56714E+01  1.46655E+01  1.35261E+01  1.22838E+01  1.09732E+01  9.60237E+00  8.20506E+00  6.83635E+00  5.56900E+00
   4.46423E+00  3.62952E+00  3.23034E+00  3.39368E+00  4.12189E+00  5.37941E+00  7.12716E+00  9.41788E+00  1.23030E+01  1.56257E+01
   1.90045E+01  2.20580E+01  2.45820E+01  2.65625E+01  2.80709E+01  2.93441E+01  3.06193E+01  3.18856E+01  3.31053E+01  3.42408E+01
   3.52014E+01  3.59598E+01  3.66190E+01  3.72952E+01  3.80100E+01  3.87420E+01  3.95382E+01  4.04862E+01  4.16435E+01  4.29103E+01
   4.40493E+01  4.48327E+01  4.52101E+01  4.53108E+01  4.52651E+01  4.51006E+01  4.47378E+01  4.40628E+01  4.30684E+01  4.19123E+01
   4.07941E+01  3.99194E+01  3.94548E+01  3.94423E+01  3.98290E+01  4.05373E+01  4.14627E+01  4.25013E+01  4.35112E+01  4.43566E+01
   4.49032E+01  4.51035E+01  4.49904E+01  4.46046E+01  4.40719E+01  4.36466E+01  4.35485E+01  4.38770E+01  4.46652E+01  4.57832E+01
   4.70609E+01  4.83896E+01  4.96282E+01  5.05619E+01  5.10378E+01  5.10176E+01  5.05840E+01  4.99167E+01  4.92664E+01  4.88332E+01
   4.86873E+01  4.88312E+01  4.92346E+01  4.98499E+01  5.06131E+01  5.14598E+01  5.22845E+01  5.29944E+01  5.35110E+01  5.37244E+01
   5.35768E+01  5.30524E+01  5.21310E+01  5.08130E+01  4.91501E+01  4.71633E+01  4.48742E+01  4.22753E+01  3.93846E+01  3.61738E+01
   3.25919E+01  2.85905E+01  2.41861E+01  1.95114E+01  1.48846E+01  1.06494E+01  7.11532E+00  4.58838E+00  3.36630E+00  3.58422E+00
