 
 $NMID
 ID=''
 FMTDAT='(2E13.5)'
 TRAMP=   1.00000E+0
 VOLUME=   1.00000E+0
 $END
   1.16796E+4   1.48713E+4
   3.08989E+4   1.09250E+4
   1.89988E+4  -3.04411E+4
  -2.31104E+4  -1.83027E+4
  -1.93590E+4   2.68425E+4
   2.05186E+4   1.87257E+4
   2.17600E+4  -1.99738E+4
  -1.01641E+4  -1.85781E+4
  -1.66196E+4   1.01962E+4
   4.27271E+3   1.86587E+4
   1.43136E+4   1.51962E+3
   2.10355E+3  -1.28287E+4
  -1.02206E+4  -4.20255E+3
  -6.34885E+3   8.80936E+3
   3.60861E+3   3.97353E+3
   5.54817E+3  -6.00077E+3
  -8.92237E+1  -3.65664E+3
  -3.21944E+3   1.79196E+3
  -1.24921E+3   2.58203E+3
   2.75977E+3   6.04483E+2
   1.41270E+3  -1.44207E+3
  -1.45985E+3  -2.00587E+3
  -4.23804E+2   5.51485E+2
   8.63066E+1   1.85274E+3
  -1.07701E+2  -3.29672E+2
   1.62687E+3  -1.52797E+3
   1.24374E+3   4.22513E+2
  -1.65088E+3   1.62523E+3
  -1.23656E+3   3.40614E+2
   1.73146E+3  -6.14081E+2
   9.56597E+2   4.61781E+2
  -1.67268E+3   3.84525E+2
  -1.60774E+3  -2.93799E+2
  -4.19371E+2  -4.37160E+2
   3.97043E+2  -1.05451E+3
   8.43307E+2  -1.40725E+3
   7.40570E+2   6.65595E+2
  -5.22920E+1   1.47612E+3
  -5.28462E+2   2.51771E+1
   6.75821E+1  -3.86856E+2
  -5.86008E+2   4.77429E+2
  -6.98293E+2  -2.72370E+1
   1.12874E+2  -8.96049E+2
   1.08411E+3  -8.41525E+2
   5.39382E+2   3.93490E+2
   2.64424E+2   1.53744E+3
  -5.01472E+2   1.49442E+3
  -1.22230E+3  -2.47284E+2
  -1.03376E+3  -9.53460E+2
  -5.37912E+2  -7.53078E+2
   4.41512E+1  -3.98807E+2
   6.32401E+2  -6.11048E+2
   6.33435E+2  -3.71805E+2
  -9.61956E+0   5.83279E+2
  -1.63645E+2   9.13512E+2
   2.69186E+1   5.54964E+2
  -6.03803E+2   3.55406E+2
  -8.97957E+2  -9.91735E+2
   1.47854E+2  -1.31969E+3
   8.99466E+2  -6.14326E+1
   6.28817E+2   8.03147E+2
   3.40409E+2   6.82027E+2
   8.84976E+1   6.62994E+2
  -8.27052E+2   8.31104E+2
  -1.59275E+3   2.40319E+2
  -9.82317E+2  -9.60020E+2
  -9.57062E+1  -1.42574E+3
   7.84372E+2  -4.08155E+2
   7.94555E+2   3.30901E+2
   1.18243E+2   2.99235E+2
  -1.75321E+2  -5.21495E+2
   3.46691E+2  -3.08003E+2
   4.32822E+2   4.77121E+2
  -1.02380E+2   6.81784E+2
  -2.50458E+2   6.99352E+1
  -6.25609E+1   2.13937E+1
   1.11956E+2   1.63257E+1
  -1.30431E+2   3.79831E+2
  -1.75871E+2   3.92099E+2
  -4.79582E+2   1.52135E+2
  -2.10494E+2  -2.65524E+2
   8.12967E+0  -5.53447E+2
   2.57022E+2  -1.59869E+2
   5.92829E+1   1.18014E+2
  -5.05417E+1  -1.54275E+2
   7.98804E+2  -3.58166E+2
   4.55657E+2  -1.40440E+2
   1.95324E+1   5.69900E+2
   7.17194E+1   8.88957E+1
   3.52196E+2   8.82944E+1
   3.70291E+2  -1.38798E+2
  -6.06408E+1   6.46887E+2
  -4.46912E+2   4.94530E+2
  -6.78725E+2   5.01147E+1
  -9.88614E+1  -7.44271E+2
   1.33077E+2  -5.42850E+2
   3.62150E+2   6.92693E+0
   1.68444E+2  -8.59101E+1
  -7.42755E+0  -3.29792E+2
   3.64217E+2  -1.85594E+2
   2.15495E+2   3.13777E+2
   5.73474E+1   5.93421E+2
  -4.99339E+2  -1.35461E+0
   3.38301E-1  -4.29964E+2
   4.15519E+2  -2.77413E+2
   4.90400E+2   1.77823E+2
  -2.28715E+2   4.11558E+2
  -5.23258E+2  -1.43691E+2
  -3.96755E+2  -6.94337E+2
   4.78324E+2  -6.35818E+2
   8.56226E+2  -9.42447E+1
   5.06201E+2   3.18383E+2
  -7.19170E+0   4.64718E+2
  -7.35834E+1   1.32203E+2
  -4.29714E+1   3.99996E+2
  -3.57469E+2   2.08770E+2
  -5.25335E+2  -8.21557E+1
  -6.57274E+2  -3.28001E+2
  -2.50911E+1  -9.89239E+2
   6.16283E+2  -4.21073E+2
   6.34901E+2   1.08262E+2
   3.06121E+2   3.17996E+2
   1.79367E+2   4.77969E+2
  -4.30786E+2   3.45251E+2
  -6.43354E+2  -9.57884E+1
  -4.47400E+2  -2.28279E+2
   2.07029E+2  -2.24461E+2
   1.00865E+2  -2.14257E+2
   1.91583E+2   3.03435E+1
  -6.41836E+1   3.13556E+2
  -2.33476E+2   3.38998E+2
  -6.96100E+2  -9.97631E+1
  -3.21651E+2  -2.06203E+2
   2.11719E+2  -2.33802E+2
  -1.48918E+2   4.48025E+1
   1.70273E+1  -1.55171E+2
   3.17258E+1   4.42588E+1
   4.91066E+2   3.64508E+0
  -2.20533E+2   6.19540E+2
  -3.18736E+2   1.26438E+2
  -5.07610E+2  -1.08150E+2
   2.31708E+1  -4.49264E+2
   4.21588E+2   3.53237E+1
   9.08948E+1   2.92088E+2
  -1.50724E+2   3.56605E+2
  -3.42396E+2   1.81353E+2
  -2.70095E+1   1.24710E+2
  -9.32936E+1  -9.36411E+1
  -3.89678E+2  -1.12234E+1
  -4.46992E+1  -3.10632E+2
   4.15149E+1  -1.63854E+2
   4.27068E+2   2.22698E+1
   5.62754E+2   5.73759E+1
   1.99149E+2   3.78412E+2
   7.94108E+1   3.88296E+1
  -8.55505E+1  -2.63484E+0
   1.84215E+2   2.35213E+2
  -1.17371E+2   3.96713E+2
  -7.11329E+1   1.68043E+2
  -1.15286E+2  -9.05674E+1
  -3.26663E+1   9.14722E+1
  -2.61571E+1   7.34934E+1
   1.19381E+2   1.13009E+2
  -2.82054E+1  -2.37517E+2
   7.70148E+1  -1.89397E+2
   2.27678E+2   9.18431E+1
   4.32434E+2   3.35018E+2
  -8.62101E+1  -1.45800E+2
   1.33480E+2  -5.65567E+1
   6.20408E+1  -5.69941E+1
   8.02392E+1   1.28344E+2
  -1.42385E+2   1.91189E+2
   1.69951E+1   6.29578E+1
  -1.94203E+2   9.59463E+1
  -7.37434E+1  -8.45919E+1
  -9.31961E+1   5.28120E+1
  -4.00981E+2   4.94190E+1
  -2.34114E+2  -2.70959E+2
   2.65773E+2  -1.52397E+2
   1.45114E+2  -1.07211E+1
   1.03474E+2   2.96348E+2
  -4.19796E+2   1.62590E+2
  -2.32989E+2   7.25776E+1
  -2.56489E+2  -1.08082E+2
  -2.85612E+2  -1.99343E+2
  -1.34232E+2  -1.29150E+2
   6.61791E+1  -2.78366E+2
   8.86262E+1   2.31907E+1
   1.84573E+2   2.69471E+2
   1.84542E+2   2.16753E+2
  -1.05682E+2   5.39784E+2
  -3.27421E+2   1.31891E+2
  -1.20956E+2  -1.79934E+2
  -4.19180E+1  -3.49563E+1
   1.52529E+2   1.06686E+2
   1.56932E+2   4.72439E+1
   1.60282E+2  -9.63713E+1
  -9.19967E+1   7.41002E+1
   3.45231E+1   1.11433E+2
  -1.64453E+2   5.47871E+1
  -2.83647E+2  -8.55101E+1
  -2.84494E+2  -1.61780E+2
   2.92690E+2  -4.60816E+2
   9.04239E+1   1.00397E+0
   1.26198E+2   1.68980E+2
  -1.75480E+2   3.31146E+2
  -3.16007E+2   1.52451E+1
  -1.00550E+2   1.08448E+1
  -1.05824E+2   1.70594E+2
   2.67039E+1   3.21478E+2
  -3.33109E+1  -2.17526E+2
   2.37459E+2  -4.47454E+1
   3.27265E+2   2.18281E+2
  -2.10036E+2   2.71144E+2
  -4.38702E+2  -1.84188E+1
  -4.23276E+2  -1.07497E+2
   5.14526E+1  -2.88842E+2
   1.06880E+2  -1.56774E+2
   9.45595E+1  -5.78590E+1
   1.12242E+2   1.18583E+2
  -8.01182E+1  -1.06449E+2
   3.86586E+0   7.65517E+1
   1.43850E+2   3.38543E+2
  -1.23411E+2  -1.09015E+2
  -1.86643E+2  -1.79942E+2
  -2.36622E+2  -2.21650E+2
   1.67687E+2   1.09780E+2
   1.38159E+2   3.18169E+2
   6.05758E+1   1.81632E+2
   3.40276E+1   4.18140E+1
   5.49642E+1  -4.62164E+1
   1.64396E+2  -1.49873E+2
   1.26914E+2   1.34963E+1
   1.86509E+1   9.08606E+1
   5.76478E+1  -7.82479E+1
   8.46486E+1   6.89252E+1
  -3.64470E+1   1.31209E+2
  -3.17815E+1   6.62260E+1
   4.24565E+1   1.94481E+1
   6.79394E+1   1.10344E+2
   2.39794E+2  -5.23757E+1
   3.26391E+2   1.39914E+2
   5.37390E+1   1.78142E+2
  -1.43830E+2   4.13912E+1
  -6.45398E+0  -5.49654E+1
   3.66244E+2   8.64623E+1
   1.49495E+2   2.21053E+2
  -6.24431E+1   2.41080E+0
   5.41411E+1  -1.09313E+2
  -1.18144E+2  -2.04317E+2
   2.79946E+2   2.49879E+2
   2.87656E+2  -6.29218E+1
  -1.70443E+2   7.41071E+1
  -2.37200E+1  -2.03946E+2
   2.30917E+2  -9.82881E+1
   3.74806E+2   7.02096E+1
   1.92534E+2   1.25634E+2
  -5.38072E+1  -1.10532E+2
  -6.35796E+1   2.50506E+1
  -1.49019E+2   8.86804E+1
  -1.24890E+1  -2.99635E+1
  -5.19989E+2  -1.54957E+2
  -1.55263E+2  -2.40923E+2
  -8.03220E+1  -1.72195E+2
   2.01442E+2   1.56554E+1
  -1.83958E+1   2.40418E+2
  -1.03684E+2   1.09281E+2
  -3.07580E+2  -2.06767E+2
  -7.50338E+1  -2.57480E+2
  -2.29431E+2  -1.47167E+2
   4.58459E+1   1.97360E+2
   9.99959E+1   1.01074E+2
   6.82663E+1   1.66430E+2
  -4.08972E+1   6.96991E+1
   1.96348E+2   2.14761E+1
  -1.76375E+2   8.56851E+1
  -2.02776E+2  -4.72246E+1
   6.30776E+1  -8.39702E+1
   7.01444E+0  -5.24794E+1
   7.79355E+1   2.02577E+2
   1.38556E+2   2.45116E+2
  -6.77618E+1  -5.85086E+1
   3.13022E+2   4.61610E+1
   1.97056E+2   1.74538E+2
  -1.19199E+2   1.67068E+2
  -8.60229E+1   1.00531E+2
   8.32234E+0  -1.65701E+2
   2.38396E+2  -1.76772E+2
   1.41954E+2   7.64113E+1
   1.04981E+2   2.04417E+2
  -1.21072E+2   1.53199E+2
  -1.41668E+2  -9.48887E+1
   8.63861E+1   1.42221E+2
  -8.50183E+1  -9.00515E+1
  -1.21614E+1  -5.47473E+1
   1.94005E+2  -2.17588E+2
  -2.51483E+2  -8.75554E+1
   3.31002E+2   1.23913E+2
  -6.52261E+0   1.99765E+2
  -1.43948E+2   1.44732E+2
   3.02821E+1  -2.56626E+2
   1.20232E+2  -1.59893E+2
   7.74383E+1   2.97202E+2
   3.07737E+1  -7.90819E+1
   1.20704E+1   1.90863E+2
   1.33285E+1  -9.72663E+1
   2.40613E+1  -1.26342E+2
   4.38876E+1  -1.79434E+2
  -9.60838E+1  -3.83391E+1
   4.42771E+1   1.14818E+2
   2.05808E+2  -8.65608E+1
   2.72719E+2   5.81007E+1
   1.67809E+2  -1.44619E+1
   7.99503E+1   8.33836E+1
   3.63007E+1  -9.92667E+1
  -1.14740E+2  -8.71617E+1
  -7.45182E+1   3.23404E+1
  -3.11512E+2   3.30275E+1
  -5.50628E+0   9.12097E+1
  -1.51470E+2  -1.59144E+1
  -8.51687E+0  -1.14538E+2
   8.44400E+1   2.39204E+2
  -1.19067E+2   2.92975E+2
   8.76462E+1   3.25076E+1
   2.24299E+2   1.12898E+2
   1.80724E+2   2.90620E+2
   1.20857E+2   2.82016E+2
  -3.62852E+1   2.12833E+2
  -5.87942E+1  -4.10979E+1
  -4.97940E+1  -5.59848E+1
  -1.08816E+2   6.29894E+1
  -1.98399E+1  -8.43648E+1
   1.02960E+2   2.97309E+1
  -1.68527E+2  -2.57325E+1
   7.28171E+1   1.26087E+2
   2.60288E+2   2.01508E+2
  -9.22153E+1  -1.23633E+1
  -2.64107E+2  -3.60132E+1
   8.51281E+1  -1.20800E+1
   4.33494E+1   9.66611E-1
   2.25030E+2   2.10795E+2
   1.51452E+1   3.15304E+2
  -8.34849E+1   3.33457E+2
  -1.00065E+2   1.05344E+2
   1.72065E+2  -2.51557E+1
  -9.22383E+1   4.67845E+1
  -1.39988E+2   1.32718E+2
   1.95150E+2  -2.14462E+2
   1.05012E+2   1.25245E+1
  -1.90463E+2  -3.31413E+1
  -5.80754E+1  -1.44068E+2
  -2.19626E+2   2.10244E+2
   2.24364E+1   1.44061E+1
  -8.07860E+1   1.16225E+2
   6.08923E+1  -1.19183E+2
  -1.05600E+2   3.76805E+1
   8.73549E+1  -2.65450E+0
   3.37645E+2   4.86616E+1
  -1.90630E+2   7.83258E+1
  -4.58406E+1   1.16433E+2
  -2.41856E+2   1.25631E+2
  -6.71169E+1  -2.05426E+2
   1.64028E+2  -5.12249E+1
   1.17836E+2   1.69168E+2
  -4.66543E+0   1.14963E+2
  -1.43157E+2   2.53199E+2
  -1.25932E+1  -1.61853E+2
