 LCModel (Version 6.3-1N) Copyright: S.W. Provencher.          Ref.: Magn. Reson. Med. 30:672-679 (1993).                
 Slice_N1@23_16  28-Feb-2025 11:43:41
 27 lines in following concentration table = NCONC+1
    Conc.  %SD /Cr+PCr  Metabolite                                         
 4.38E-04   5% 6.4E-04 Mac                                                 
    5.487  25%   8.000 Cr                                                  
    0.000 999%   0.000 PCr                                                 
    1.653 108%   2.410 Ins                                                 
    0.000 999%   0.000 NAA                                                 
   11.735  22%  17.108 Tau                                                 
    0.000 999%   0.000 PCho                                                
    0.909  53%   1.325 GPC                                                 
    9.073  23%  13.227 Glu                                                 
    1.697  84%   2.474 Gln                                                 
    0.000 999%   0.000 Ala                                                 
    0.000 999%   0.000 Asc                                                 
    0.774  68%   1.129 Asp                                                 
    0.312 102%   0.455 GABA                                                
    0.376  86%   0.548 Glc                                                 
    1.767  43%   2.576 GSH                                                 
   50.661   4%  73.862 Lac                                                 
    3.036  44%   4.427 NAAG                                                
    0.000 999%   0.000 PE                                                  
    0.909  53%   1.325 GPC+PCho                                            
    3.036  44%   4.427 NAA+NAAG                                            
   10.769  23%  15.701 Glu+Gln                                             
    5.487  25%   8.000 Cr+PCr                                              
    3.036  44%   4.427 NAA+NAAG                                            
    5.487  25%   8.000 Cr+PCr                                              
   10.769  23%  15.701 Glu+Gln                                             
   6 lines in following misc. output table
  FWHM = 0.130 ppm    S/N =   5                                            
  Data shift =-0.065 ppm                                                   
  Ph:-100 deg       0.0 deg/ppm                                            
  alphaB,S = 8.1E-02,   5.0E+01                                            
   17 spline knots.   Ns = 6(2)                                            
  (11) 2 infls.   (10) 2 extrs.                                            
  480 points on ppm-axis = NY
      4.100000     4.091866     4.083733     4.075600     4.067466     4.059333     4.051199     4.043066     4.034933     4.026799
      4.018666     4.010532     4.002399     3.994265     3.986132     3.977998     3.969864     3.961731     3.953597     3.945463
      3.937330     3.929196     3.921062     3.912929     3.904795     3.896662     3.888528     3.880394     3.872261     3.864127
      3.855993     3.847860     3.839726     3.831592     3.823459     3.815325     3.807191     3.799058     3.790924     3.782790
      3.774657     3.766523     3.758389     3.750256     3.742122     3.733989     3.725855     3.717721     3.709588     3.701454
      3.693320     3.685187     3.677053     3.668919     3.660786     3.652652     3.644518     3.636385     3.628251     3.620117
      3.611984     3.603850     3.595716     3.587583     3.579449     3.571316     3.563182     3.555048     3.546915     3.538781
      3.530647     3.522514     3.514380     3.506246     3.498113     3.489979     3.481845     3.473712     3.465578     3.457444
      3.449311     3.441177     3.433043     3.424910     3.416776     3.408643     3.400509     3.392375     3.384242     3.376108
      3.367974     3.359841     3.351707     3.343573     3.335440     3.327306     3.319172     3.311039     3.302905     3.294771
      3.286638     3.278504     3.270370     3.262237     3.254103     3.245970     3.237836     3.229702     3.221569     3.213435
      3.205301     3.197168     3.189034     3.180900     3.172767     3.164633     3.156499     3.148366     3.140232     3.132098
      3.123965     3.115831     3.107697     3.099564     3.091430     3.083297     3.075163     3.067029     3.058896     3.050762
      3.042628     3.034495     3.026361     3.018227     3.010094     3.001960     2.993826     2.985693     2.977559     2.969425
      2.961292     2.953158     2.945024     2.936891     2.928757     2.920624     2.912490     2.904356     2.896223     2.888089
      2.879955     2.871822     2.863688     2.855554     2.847421     2.839287     2.831153     2.823020     2.814886     2.806752
      2.798619     2.790485     2.782351     2.774218     2.766084     2.757951     2.749817     2.741683     2.733550     2.725416
      2.717282     2.709149     2.701015     2.692881     2.684748     2.676614     2.668480     2.660347     2.652213     2.644079
      2.635946     2.627812     2.619678     2.611545     2.603411     2.595278     2.587144     2.579010     2.570877     2.562743
      2.554609     2.546476     2.538342     2.530208     2.522075     2.513941     2.505807     2.497674     2.489540     2.481406
      2.473273     2.465139     2.457006     2.448872     2.440738     2.432605     2.424471     2.416337     2.408204     2.400070
      2.391936     2.383803     2.375669     2.367535     2.359402     2.351268     2.343134     2.335001     2.326867     2.318733
      2.310600     2.302466     2.294333     2.286199     2.278065     2.269932     2.261798     2.253664     2.245531     2.237397
      2.229263     2.221130     2.212996     2.204862     2.196729     2.188595     2.180461     2.172328     2.164194     2.156060
      2.147927     2.139793     2.131660     2.123526     2.115392     2.107259     2.099125     2.090991     2.082858     2.074724
      2.066590     2.058457     2.050323     2.042189     2.034056     2.025922     2.017788     2.009655     2.001521     1.993387
      1.985254     1.977120     1.968987     1.960853     1.952719     1.944586     1.936452     1.928318     1.920185     1.912051
      1.903917     1.895784     1.887650     1.879516     1.871383     1.863249     1.855115     1.846982     1.838848     1.830714
      1.822581     1.814447     1.806314     1.798180     1.790046     1.781913     1.773779     1.765645     1.757512     1.749378
      1.741244     1.733111     1.724977     1.716843     1.708710     1.700576     1.692442     1.684309     1.676175     1.668041
      1.659908     1.651774     1.643641     1.635507     1.627373     1.619240     1.611106     1.602972     1.594839     1.586705
      1.578571     1.570438     1.562304     1.554170     1.546037     1.537903     1.529769     1.521636     1.513502     1.505368
      1.497235     1.489101     1.480968     1.472834     1.464700     1.456567     1.448433     1.440299     1.432166     1.424032
      1.415898     1.407765     1.399631     1.391497     1.383364     1.375230     1.367096     1.358963     1.350829     1.342695
      1.334562     1.326428     1.318295     1.310161     1.302027     1.293894     1.285760     1.277626     1.269493     1.261359
      1.253225     1.245092     1.236958     1.228824     1.220691     1.212557     1.204423     1.196290     1.188156     1.180022
      1.171889     1.163755     1.155622     1.147488     1.139354     1.131221     1.123087     1.114953     1.106820     1.098686
      1.090552     1.082419     1.074285     1.066151     1.058018     1.049884     1.041750     1.033617     1.025483     1.017349
      1.009216     1.001082     0.992949     0.984815     0.976681     0.968548     0.960414     0.952280     0.944147     0.936013
      0.927879     0.919746     0.911612     0.903478     0.895345     0.887211     0.879077     0.870944     0.862810     0.854676
      0.846543     0.838409     0.830276     0.822142     0.814008     0.805875     0.797741     0.789607     0.781474     0.773340
      0.765206     0.757073     0.748939     0.740805     0.732672     0.724538     0.716404     0.708271     0.700137     0.692003
      0.683870     0.675736     0.667603     0.659469     0.651335     0.643202     0.635068     0.626934     0.618801     0.610667
      0.602533     0.594400     0.586266     0.578132     0.569999     0.561865     0.553731     0.545598     0.537464     0.529330
      0.521197     0.513063     0.504930     0.496796     0.488662     0.480529     0.472395     0.464261     0.456128     0.447994
      0.439861     0.431727     0.423593     0.415460     0.407326     0.399192     0.391059     0.382925     0.374792     0.366658
      0.358524     0.350391     0.342257     0.334124     0.325990     0.317856     0.309723     0.301589     0.293455     0.285322
      0.277188     0.269055     0.260921     0.252787     0.244654     0.236520     0.228386     0.220253     0.212119     0.203986
 NY phased data points follow
  -1.61070E+01 -1.51105E+01 -1.84669E+01 -8.30393E+00 -3.30677E+01 -2.48274E+01 -1.48694E+00 -1.11239E+01 -1.16536E+01 -2.13065E+01
  -9.85693E+00 -1.37781E+01 -3.39331E+01 -3.37929E+01 -2.88618E+01 -2.92173E+01 -3.50614E+01 -3.17207E+01 -4.15793E+01 -6.23796E+01
  -4.67774E+01 -4.45502E+01 -5.34390E+01 -4.38821E+01 -6.01122E+01 -5.88933E+01 -6.93791E+01 -7.93264E+01 -7.45680E+01 -7.60342E+01
  -6.46878E+01 -7.08226E+01 -5.51694E+01 -6.61104E+01 -7.36706E+01 -4.89854E+01 -6.18176E+01 -5.69775E+01 -5.64658E+01 -6.08274E+01
  -5.51215E+01 -6.84460E+01 -5.12076E+01 -4.13716E+01 -5.26830E+01 -5.64032E+01 -6.42802E+01 -4.18284E+01 -3.89180E+01 -2.51062E+01
  -1.80635E+01 -3.21771E+01 -8.12241E+00 -1.98214E+01 -1.71379E+01 -1.91898E+01 -2.05695E+01 -1.32782E+01 -2.18950E+01 -7.96188E+00
  -1.03183E+01 -1.01688E+01 -2.76876E+01 -2.17910E+01 -1.60832E+01 -1.63909E+01 -5.59580E+00 -1.39282E+01 -8.94558E+00 -3.13742E+01
  -3.19843E+01 -2.36405E+01 -3.06905E+01 -3.28359E+01 -2.25094E+01 -8.20005E+00  3.01901E+00  8.71669E+00 -3.80889E+00  8.97993E+00
  -4.01307E+00  1.99857E+00  8.91159E+00 -7.16062E+00 -5.10946E+00 -4.43397E+00  3.35699E+00 -2.09453E+01 -2.63256E+01 -3.23050E+01
  -2.74291E+01 -1.32963E+01 -2.76820E+00  1.12054E+01 -1.32560E+01  4.34483E+00  1.71376E+01  1.36716E+01  2.35052E+01  3.84943E+01
   3.54743E+01  1.83428E+01  3.30088E+01  1.84754E+01  1.00837E+01  1.01798E+01  3.37327E+00  1.38681E+00 -2.00473E+01 -4.56710E+01
  -7.25723E+01 -8.65888E+01 -9.42994E+01 -1.02380E+02 -1.12597E+02 -1.18481E+02 -1.06888E+02 -8.99718E+01 -7.50303E+01 -4.26119E+01
  -3.22814E+01 -5.18970E+01 -3.24367E+01 -6.29262E+00  2.62875E+00 -5.43143E-03 -5.88306E+00  4.68216E+00  1.65282E+01  1.38677E+01
   1.29836E+01  2.31440E+01  1.47102E+01  9.90399E+00  9.90173E-01 -9.70134E+00 -1.85988E+01 -4.23732E+01 -3.76939E+01 -4.74713E+01
  -5.81617E+01 -3.19586E+01 -2.33368E+01 -4.98683E+01 -7.98660E+01 -6.57289E+01 -4.46676E+01 -4.21645E+01 -5.26170E+01 -6.18624E+01
  -5.61183E+01 -5.39525E+01 -3.97186E+01 -3.91652E+01 -3.59383E+01 -2.73797E+01 -4.11280E+01 -3.80856E+01 -2.53032E+01 -2.24209E+01
  -1.99914E+01 -8.51035E+00 -1.17043E+01 -1.03925E+01 -3.28431E+00 -2.46233E+01 -3.27819E+01 -1.69164E+01 -1.75923E+01 -2.99343E+01
  -2.45270E+01 -2.14805E+01 -2.16755E+01 -3.12820E+01 -3.74523E+01 -3.57853E+01 -3.92493E+01 -3.64093E+01 -4.38329E+01 -3.55986E+01
  -4.50528E+01 -5.30623E+01 -5.04458E+01 -5.28798E+01 -3.93881E+01 -5.90082E+01 -6.81286E+01 -6.85249E+01 -5.85967E+01 -5.82129E+01
  -7.13304E+01 -6.17476E+01 -6.31544E+01 -4.84985E+01 -4.99678E+01 -4.37033E+01 -2.97217E+01 -3.59378E+01 -4.40176E+01 -5.15779E+01
  -3.82133E+01 -3.10269E+01 -2.67215E+01 -3.23739E+01 -2.58150E+01 -3.02426E+01 -3.92274E+01 -3.24002E+01 -3.16723E+01 -1.48204E+01
  -3.79740E+01 -4.67291E+01 -4.35250E+01 -5.44438E+01 -4.63018E+01 -4.73556E+01 -3.60517E+01 -3.27616E+01 -2.46292E+01 -2.18485E+01
  -1.23516E+01 -8.93749E+00 -3.56819E+01 -1.41656E+01 -7.38899E+00 -2.49286E+01 -9.94358E+00 -9.89772E+00 -1.23982E+01 -7.07306E+00
  -2.18647E+01 -1.96218E+01 -1.26308E+01 -1.33204E+01 -5.92254E+00 -1.34884E+01 -1.61965E+01 -1.97087E+01 -1.03613E+01 -5.37513E+00
  -1.25340E+01 -1.36762E+01 -2.04550E+01 -9.12830E+00 -2.32114E+01 -2.60041E+01 -1.16555E+01 -1.23902E+01 -1.10668E+01 -1.50528E+01
  -7.52467E+00 -2.27714E+01 -1.62487E+01 -5.32838E+00 -1.34748E+01 -1.23194E+01 -7.49526E+00  2.89768E+01  4.42333E+01  5.53387E+01
   6.86580E+01  8.81477E+01  9.73400E+01  9.92718E+01  1.37304E+02  1.22914E+02  9.87569E+01  7.76115E+01  8.21132E+01  1.23768E+02
   1.14152E+02  1.05618E+02  9.63683E+01  8.20686E+01  8.10602E+01  7.97211E+01  7.35734E+01  8.20040E+01  8.74092E+01  8.06710E+01
   1.01207E+02  9.02911E+01  7.60150E+01  6.80279E+01  5.95032E+01  6.39768E+01  4.71478E+01  5.71373E+01  5.74865E+01  4.84909E+01
   4.40816E+01  3.82425E+01  5.18834E+01  3.77522E+01  2.87590E+01  1.64742E+01  5.44531E+00  2.55058E+01  1.41654E+01 -4.38640E+00
   4.88358E+00  1.45772E+01  9.95007E+00  7.46445E+00  1.20202E+01  6.84328E+00  6.86673E+00  1.85174E+01  2.59463E+01  1.06847E+01
   4.96719E-01  1.84264E+01  1.59000E+01  1.19095E+00 -1.97143E+00 -8.73772E+00 -9.07459E+00 -2.24777E+00 -2.72904E+00 -1.65721E+01
  -1.76315E+01 -1.45503E+01 -2.79137E+01 -1.84851E+01 -5.10013E+00  4.52541E+00  2.76593E+01  2.92717E+01  3.51285E+01  4.93521E+01
   5.06122E+01  6.21973E+01  8.10563E+01  8.22798E+01  7.40209E+01  8.56474E+01  7.88183E+01  6.90830E+01  7.14985E+01  5.71571E+01
   5.86474E+01  4.90286E+01  3.11069E+01  2.42788E+01  3.52420E+00 -2.05467E+01 -3.84942E+01 -5.96201E+01 -7.63807E+01 -1.05055E+02
  -1.50599E+02 -1.79739E+02 -2.17491E+02 -2.43679E+02 -2.78939E+02 -3.11833E+02 -3.06916E+02 -3.03801E+02 -2.81504E+02 -2.76833E+02
  -2.56712E+02 -2.28222E+02 -2.15280E+02 -1.89810E+02 -1.68898E+02 -1.36282E+02 -1.35427E+02 -1.20555E+02 -1.04844E+02 -1.02277E+02
  -6.95278E+01 -5.67576E+01 -5.01579E+01 -4.49496E+01 -3.77302E+01 -2.97453E+01 -1.81653E+01 -1.19983E+01 -1.18333E+01  7.83737E+00
   1.82119E+01  9.71403E+00  1.23933E+01  3.42597E+01  3.88940E+01  3.19113E+01  4.32021E+01  5.57228E+01  4.04957E+01  3.87187E+01
   5.65570E+01  6.04888E+01  6.21577E+01  5.61212E+01  4.00599E+01  2.90968E+01  4.38706E+01  3.66784E+01  2.18078E+01  2.08453E+01
   1.36650E+01  9.92091E+00 -1.02362E+01 -2.07337E+01 -3.73848E+01 -4.91089E+01 -5.95826E+01 -7.15324E+01 -6.23909E+01 -7.68002E+01
  -8.22512E+01 -7.60906E+01 -7.48148E+01 -7.72611E+01 -8.42269E+01 -7.36562E+01 -7.55691E+01 -8.14961E+01 -7.43559E+01 -8.18932E+01
  -6.95681E+01 -6.65846E+01 -8.00488E+01 -5.66569E+01 -5.38944E+01 -6.55922E+01 -6.74180E+01 -6.37028E+01 -6.63682E+01 -6.20255E+01
  -4.62673E+01 -6.28960E+01 -7.07364E+01 -5.90122E+01 -5.51185E+01 -6.88306E+01 -7.11825E+01 -5.95041E+01 -5.07711E+01 -5.91878E+01
  -5.86344E+01 -5.23909E+01 -7.29956E+01 -5.44691E+01 -5.47449E+01 -5.22936E+01 -5.02041E+01 -6.59756E+01 -4.56219E+01 -4.80812E+01
  -4.30360E+01 -4.86366E+01 -5.05375E+01 -4.77832E+01 -4.61866E+01 -4.39757E+01 -5.19174E+01 -4.01104E+01 -4.86943E+01 -3.84009E+01
  -3.74184E+01 -4.08011E+01 -4.53582E+01 -5.77056E+01 -3.58287E+01 -3.91991E+01 -4.15784E+01 -4.38951E+01 -5.40887E+01 -5.00938E+01
  -4.67388E+01 -3.53926E+01 -3.73896E+01 -6.39596E+01 -5.70702E+01 -3.45215E+01 -4.37559E+01 -3.89355E+01 -3.78421E+01 -4.09041E+01
 NY points of the fit to the data follow
  -7.99710E+01 -6.96075E+01 -7.46524E+01 -6.26693E+01 -6.64014E+01 -5.25581E+01 -5.41174E+01 -3.85679E+01 -3.63678E+01 -2.22646E+01
  -1.52998E+01 -9.78701E+00 -3.76545E+00 -9.77806E+00 -9.69633E+00 -1.95569E+01 -2.50694E+01 -3.26031E+01 -3.78582E+01 -4.30569E+01
  -4.58717E+01 -4.96814E+01 -5.02980E+01 -5.27000E+01 -5.12820E+01 -5.24106E+01 -4.90646E+01 -4.94426E+01 -4.47737E+01 -4.58048E+01
  -4.13135E+01 -4.20179E+01 -3.74212E+01 -3.73302E+01 -3.20548E+01 -3.13102E+01 -2.77146E+01 -2.78458E+01 -3.05774E+01 -3.16925E+01
  -3.42274E+01 -3.52392E+01 -3.73487E+01 -3.81721E+01 -3.97668E+01 -4.03143E+01 -4.15990E+01 -4.17040E+01 -4.25765E+01 -4.23550E+01
  -4.17185E+01 -4.04208E+01 -3.72945E+01 -3.52907E+01 -3.05908E+01 -2.90070E+01 -2.62471E+01 -2.45755E+01 -2.34794E+01 -2.25707E+01
  -2.27048E+01 -2.18853E+01 -2.19358E+01 -2.05267E+01 -2.01561E+01 -1.81549E+01 -1.72053E+01 -1.47009E+01 -1.34445E+01 -1.05153E+01
  -9.10480E+00 -4.94744E+00 -3.09407E+00  5.02111E-01  2.82422E+00  3.04705E+00  5.09046E+00  2.96835E+00  4.35661E+00  5.89143E-01
   2.09403E+00 -2.68495E+00 -9.22512E-01 -6.26952E+00 -3.76944E+00 -9.79923E+00 -7.29650E+00 -1.33775E+01 -1.09162E+01 -1.75057E+01
  -1.51980E+01 -1.99885E+01 -1.73871E+01 -1.79545E+01 -1.42101E+01 -1.02509E+01 -5.14250E+00  8.29793E-01  7.56840E+00  8.01527E+00
   1.35869E+01  6.63490E+00  1.01448E+01 -1.34348E+00  1.59585E+00 -1.28545E+01 -9.74462E+00 -2.59436E+01 -2.25743E+01 -4.00429E+01
  -3.65628E+01 -5.50277E+01 -5.14793E+01 -6.91153E+01 -6.47090E+01 -7.71103E+01 -7.20360E+01 -7.36282E+01 -6.81102E+01 -6.22080E+01
  -5.50113E+01 -4.46846E+01 -3.69571E+01 -2.55133E+01 -1.70724E+01 -9.34228E+00 -4.11176E+00  6.50734E-01  3.56777E+00  5.83874E+00
   6.84249E+00  6.45649E+00  5.39689E+00  2.21126E+00 -1.05931E+00 -6.58267E+00 -1.17569E+01 -1.85069E+01 -2.42492E+01 -3.11267E+01
  -3.62200E+01 -4.38069E+01 -4.94329E+01 -5.88739E+01 -6.28552E+01 -6.99666E+01 -6.88462E+01 -6.68645E+01 -6.53587E+01 -6.32874E+01
  -6.18124E+01 -5.96874E+01 -5.83568E+01 -5.60541E+01 -5.44277E+01 -5.20358E+01 -5.00350E+01 -4.79470E+01 -4.60021E+01 -4.43069E+01
  -4.27544E+01 -4.10920E+01 -3.96310E+01 -3.79648E+01 -3.66021E+01 -3.53646E+01 -3.43172E+01 -3.34630E+01 -3.27099E+01 -3.22258E+01
  -3.15954E+01 -3.13531E+01 -3.09748E+01 -3.12517E+01 -3.13680E+01 -3.19256E+01 -3.22597E+01 -3.27560E+01 -3.31349E+01 -3.38506E+01
  -3.41772E+01 -3.50582E+01 -3.53431E+01 -3.61274E+01 -3.65792E+01 -3.72731E+01 -3.73163E+01 -3.73333E+01 -3.63175E+01 -3.61851E+01
  -3.48412E+01 -3.46413E+01 -3.34246E+01 -3.30411E+01 -3.19328E+01 -3.17720E+01 -3.08412E+01 -3.10113E+01 -3.03177E+01 -3.07338E+01
  -3.03335E+01 -3.08171E+01 -3.11068E+01 -3.20500E+01 -3.29157E+01 -3.55970E+01 -3.58093E+01 -3.92472E+01 -3.89225E+01 -4.09713E+01
  -3.99457E+01 -4.00846E+01 -3.77601E+01 -3.60729E+01 -3.23921E+01 -2.89250E+01 -2.47212E+01 -2.02505E+01 -1.63559E+01 -1.12377E+01
  -7.81481E+00 -2.92961E+00  1.13055E-01  4.70155E+00  6.59796E+00  1.09032E+01  1.04124E+01  1.39408E+01  9.57958E+00  1.03731E+01
   3.13407E+00 -1.15591E+00 -7.73497E+00 -1.50280E+01 -2.08219E+01 -2.76384E+01 -3.28177E+01 -3.83997E+01 -4.24217E+01 -4.58849E+01
  -4.77291E+01 -4.92035E+01 -5.01101E+01 -4.88185E+01 -4.76105E+01 -4.32665E+01 -3.96561E+01 -3.32250E+01 -2.89267E+01 -2.06690E+01
  -1.73738E+01 -7.54978E+00 -4.06581E+00  6.19151E+00  1.08033E+01  2.13781E+01  2.64892E+01  3.69685E+01  4.22660E+01  5.20178E+01
   5.73659E+01  6.59226E+01  7.10975E+01  7.79235E+01  8.29612E+01  8.59538E+01  8.91904E+01  8.79615E+01  8.60872E+01  8.38891E+01
   8.19024E+01  7.98853E+01  7.79510E+01  7.61660E+01  7.42174E+01  7.24595E+01  7.04918E+01  6.87791E+01  6.67042E+01  6.49082E+01
   6.25218E+01  6.05301E+01  5.74487E+01  5.51641E+01  5.14690E+01  4.86933E+01  4.46882E+01  4.12997E+01  3.72095E+01  3.33383E+01
   2.93542E+01  2.55045E+01  2.18676E+01  1.82802E+01  1.51847E+01  1.21143E+01  9.96089E+00  7.65019E+00  6.58099E+00  5.41784E+00
   5.61198E+00  5.95908E+00  7.51255E+00  9.29510E+00  1.21414E+01  1.49358E+01  1.83914E+01  2.15702E+01  2.50758E+01  2.82501E+01
   3.15759E+01  3.45574E+01  3.76108E+01  4.02209E+01  4.28938E+01  4.48247E+01  4.67719E+01  4.75802E+01  4.83783E+01  4.76188E+01
   4.69357E+01  4.46920E+01  4.26958E+01  3.93383E+01  3.64132E+01  3.24358E+01  2.89234E+01  2.44507E+01  2.02829E+01  2.48293E+01
   2.96393E+01  3.91156E+01  5.66401E+01  6.00642E+01  7.36216E+01  7.05893E+01  7.47736E+01  6.90217E+01  6.63588E+01  5.95186E+01
   5.05005E+01  4.24880E+01  2.63639E+01  1.73623E+01 -5.58516E+00 -1.62501E+01 -4.55038E+01 -5.96673E+01 -9.65794E+01 -1.15852E+02
  -1.63579E+02 -1.84805E+02 -2.42155E+02 -2.49643E+02 -2.97774E+02 -2.72075E+02 -2.77840E+02 -2.48056E+02 -2.25013E+02 -2.08298E+02
  -1.94889E+02 -1.83676E+02 -1.73364E+02 -1.63944E+02 -1.54346E+02 -1.45259E+02 -1.35711E+02 -1.26823E+02 -1.17329E+02 -1.08553E+02
  -9.90911E+01 -9.01901E+01 -8.04804E+01 -7.10393E+01 -6.06811E+01 -5.05552E+01 -3.95945E+01 -2.93236E+01 -1.82131E+01 -8.43703E+00
   2.20755E+00  1.11221E+01  2.09051E+01  2.85993E+01  3.68407E+01  4.28803E+01  4.88119E+01  5.24245E+01  5.54932E+01  5.61460E+01
   5.57722E+01  5.31527E+01  4.92079E+01  4.32250E+01  3.58588E+01  2.73766E+01  1.77663E+01  8.39005E+00 -1.62983E+00 -1.00933E+01
  -1.91054E+01 -2.62321E+01 -3.41552E+01 -4.03978E+01 -4.72369E+01 -5.27008E+01 -5.82047E+01 -6.23291E+01 -6.59654E+01 -6.84938E+01
  -7.05235E+01 -7.16205E+01 -7.25448E+01 -7.29297E+01 -7.31316E+01 -7.31099E+01 -7.28943E+01 -7.26710E+01 -7.21513E+01 -7.16830E+01
  -7.10145E+01 -7.03751E+01 -6.96748E+01 -6.89726E+01 -6.82932E+01 -6.74820E+01 -6.68426E+01 -6.60275E+01 -6.53413E+01 -6.44943E+01
  -6.36974E+01 -6.30551E+01 -6.21808E+01 -6.15221E+01 -6.06625E+01 -6.00444E+01 -5.91764E+01 -5.85264E+01 -5.77611E+01 -5.70964E+01
  -5.65092E+01 -5.57569E+01 -5.52102E+01 -5.43348E+01 -5.38944E+01 -5.29279E+01 -5.26166E+01 -5.16586E+01 -5.13864E+01 -5.04470E+01
  -5.02517E+01 -4.92906E+01 -4.91844E+01 -4.82365E+01 -4.81401E+01 -4.71196E+01 -4.70364E+01 -4.59617E+01 -4.60319E+01 -4.49352E+01
  -4.50363E+01 -4.40006E+01 -4.41003E+01 -4.30968E+01 -4.32585E+01 -4.24327E+01 -4.25493E+01 -4.19524E+01 -4.20519E+01 -4.16627E+01
  -4.17280E+01 -4.15121E+01 -4.14868E+01 -4.13414E+01 -4.13153E+01 -4.11908E+01 -4.13038E+01 -4.12848E+01 -4.15407E+01 -4.16036E+01
 NY background values follow
    -6.985E+00   -8.609E+00   -1.023E+01   -1.185E+01   -1.347E+01   -1.508E+01   -1.668E+01   -1.828E+01   -1.986E+01   -2.144E+01
    -2.300E+01   -2.455E+01   -2.608E+01   -2.760E+01   -2.910E+01   -3.058E+01   -3.204E+01   -3.348E+01   -3.489E+01   -3.628E+01
    -3.764E+01   -3.897E+01   -4.027E+01   -4.155E+01   -4.279E+01   -4.400E+01   -4.517E+01   -4.631E+01   -4.740E+01   -4.846E+01
    -4.948E+01   -5.046E+01   -5.139E+01   -5.228E+01   -5.312E+01   -5.392E+01   -5.466E+01   -5.536E+01   -5.602E+01   -5.663E+01
    -5.719E+01   -5.771E+01   -5.819E+01   -5.862E+01   -5.902E+01   -5.937E+01   -5.968E+01   -5.996E+01   -6.019E+01   -6.039E+01
    -6.055E+01   -6.067E+01   -6.076E+01   -6.081E+01   -6.083E+01   -6.082E+01   -6.077E+01   -6.069E+01   -6.058E+01   -6.043E+01
    -6.026E+01   -6.006E+01   -5.983E+01   -5.957E+01   -5.929E+01   -5.898E+01   -5.865E+01   -5.828E+01   -5.790E+01   -5.749E+01
    -5.706E+01   -5.661E+01   -5.614E+01   -5.564E+01   -5.513E+01   -5.459E+01   -5.404E+01   -5.347E+01   -5.288E+01   -5.228E+01
    -5.165E+01   -5.102E+01   -5.037E+01   -4.970E+01   -4.902E+01   -4.832E+01   -4.762E+01   -4.690E+01   -4.617E+01   -4.543E+01
    -4.468E+01   -4.392E+01   -4.315E+01   -4.237E+01   -4.159E+01   -4.080E+01   -4.000E+01   -3.920E+01   -3.839E+01   -3.758E+01
    -3.676E+01   -3.594E+01   -3.512E+01   -3.430E+01   -3.347E+01   -3.265E+01   -3.182E+01   -3.100E+01   -3.018E+01   -2.935E+01
    -2.854E+01   -2.772E+01   -2.691E+01   -2.610E+01   -2.530E+01   -2.451E+01   -2.372E+01   -2.294E+01   -2.216E+01   -2.140E+01
    -2.064E+01   -1.990E+01   -1.916E+01   -1.844E+01   -1.773E+01   -1.703E+01   -1.634E+01   -1.567E+01   -1.501E+01   -1.436E+01
    -1.374E+01   -1.312E+01   -1.253E+01   -1.195E+01   -1.139E+01   -1.085E+01   -1.033E+01   -9.833E+00   -9.354E+00   -8.895E+00
    -8.456E+00   -8.037E+00   -7.638E+00   -7.258E+00   -6.897E+00   -6.555E+00   -6.232E+00   -5.927E+00   -5.639E+00   -5.369E+00
    -5.117E+00   -4.882E+00   -4.663E+00   -4.461E+00   -4.276E+00   -4.106E+00   -3.952E+00   -3.813E+00   -3.689E+00   -3.580E+00
    -3.486E+00   -3.406E+00   -3.340E+00   -3.288E+00   -3.249E+00   -3.223E+00   -3.210E+00   -3.209E+00   -3.221E+00   -3.245E+00
    -3.280E+00   -3.327E+00   -3.385E+00   -3.454E+00   -3.531E+00   -3.617E+00   -3.711E+00   -3.812E+00   -3.919E+00   -4.030E+00
    -4.146E+00   -4.265E+00   -4.386E+00   -4.509E+00   -4.633E+00   -4.756E+00   -4.878E+00   -4.998E+00   -5.115E+00   -5.228E+00
    -5.337E+00   -5.440E+00   -5.536E+00   -5.626E+00   -5.707E+00   -5.779E+00   -5.841E+00   -5.892E+00   -5.932E+00   -5.958E+00
    -5.972E+00   -5.971E+00   -5.955E+00   -5.922E+00   -5.873E+00   -5.806E+00   -5.720E+00   -5.616E+00   -5.495E+00   -5.359E+00
    -5.208E+00   -5.045E+00   -4.870E+00   -4.685E+00   -4.491E+00   -4.290E+00   -4.082E+00   -3.869E+00   -3.652E+00   -3.433E+00
    -3.213E+00   -2.994E+00   -2.775E+00   -2.560E+00   -2.349E+00   -2.143E+00   -1.944E+00   -1.754E+00   -1.572E+00   -1.402E+00
    -1.243E+00   -1.098E+00   -9.670E-01   -8.523E-01   -7.549E-01   -6.761E-01   -6.172E-01   -5.794E-01   -5.642E-01   -5.728E-01
    -6.064E-01   -6.661E-01   -7.524E-01   -8.656E-01   -1.006E+00   -1.175E+00   -1.373E+00   -1.599E+00   -1.855E+00   -2.141E+00
    -2.458E+00   -2.805E+00   -3.185E+00   -3.596E+00   -4.040E+00   -4.517E+00   -5.027E+00   -5.572E+00   -6.151E+00   -6.765E+00
    -7.415E+00   -8.100E+00   -8.823E+00   -9.582E+00   -1.038E+01   -1.121E+01   -1.209E+01   -1.300E+01   -1.395E+01   -1.495E+01
    -1.598E+01   -1.705E+01   -1.817E+01   -1.933E+01   -2.053E+01   -2.177E+01   -2.305E+01   -2.437E+01   -2.573E+01   -2.712E+01
    -2.853E+01   -2.998E+01   -3.145E+01   -3.295E+01   -3.446E+01   -3.599E+01   -3.754E+01   -3.911E+01   -4.068E+01   -4.226E+01
    -4.385E+01   -4.544E+01   -4.703E+01   -4.863E+01   -5.021E+01   -5.180E+01   -5.337E+01   -5.494E+01   -5.649E+01   -5.802E+01
    -5.954E+01   -6.104E+01   -6.251E+01   -6.396E+01   -6.538E+01   -6.677E+01   -6.813E+01   -6.946E+01   -7.074E+01   -7.199E+01
    -7.320E+01   -7.437E+01   -7.550E+01   -7.659E+01   -7.764E+01   -7.865E+01   -7.961E+01   -8.054E+01   -8.142E+01   -8.227E+01
    -8.307E+01   -8.383E+01   -8.455E+01   -8.523E+01   -8.587E+01   -8.646E+01   -8.701E+01   -8.752E+01   -8.798E+01   -8.840E+01
    -8.878E+01   -8.912E+01   -8.941E+01   -8.965E+01   -8.986E+01   -9.002E+01   -9.013E+01   -9.020E+01   -9.023E+01   -9.021E+01
    -9.015E+01   -9.004E+01   -8.988E+01   -8.968E+01   -8.943E+01   -8.915E+01   -8.882E+01   -8.844E+01   -8.803E+01   -8.758E+01
    -8.710E+01   -8.658E+01   -8.602E+01   -8.543E+01   -8.481E+01   -8.415E+01   -8.347E+01   -8.276E+01   -8.202E+01   -8.126E+01
    -8.047E+01   -7.966E+01   -7.883E+01   -7.798E+01   -7.711E+01   -7.621E+01   -7.531E+01   -7.438E+01   -7.345E+01   -7.249E+01
    -7.153E+01   -7.056E+01   -6.958E+01   -6.859E+01   -6.759E+01   -6.658E+01   -6.558E+01   -6.457E+01   -6.355E+01   -6.254E+01
    -6.152E+01   -6.051E+01   -5.949E+01   -5.847E+01   -5.746E+01   -5.644E+01   -5.543E+01   -5.442E+01   -5.341E+01   -5.241E+01
    -5.141E+01   -5.042E+01   -4.942E+01   -4.844E+01   -4.746E+01   -4.649E+01   -4.552E+01   -4.456E+01   -4.361E+01   -4.267E+01
    -4.174E+01   -4.081E+01   -3.990E+01   -3.900E+01   -3.810E+01   -3.722E+01   -3.635E+01   -3.550E+01   -3.466E+01   -3.383E+01
    -3.301E+01   -3.221E+01   -3.142E+01   -3.065E+01   -2.989E+01   -2.915E+01   -2.842E+01   -2.770E+01   -2.700E+01   -2.631E+01
    -2.563E+01   -2.496E+01   -2.430E+01   -2.366E+01   -2.302E+01   -2.239E+01   -2.178E+01   -2.117E+01   -2.058E+01   -1.999E+01
    -1.941E+01   -1.884E+01   -1.828E+01   -1.773E+01   -1.718E+01   -1.664E+01   -1.611E+01   -1.558E+01   -1.506E+01   -1.454E+01
    -1.403E+01   -1.353E+01   -1.303E+01   -1.253E+01   -1.204E+01   -1.155E+01   -1.107E+01   -1.058E+01   -1.010E+01   -9.628E+00
    -9.155E+00   -8.684E+00   -8.217E+00   -7.752E+00   -7.289E+00   -6.829E+00   -6.371E+00   -5.915E+00   -5.461E+00   -5.010E+00
    -4.560E+00   -4.112E+00   -3.665E+00   -3.220E+00   -2.777E+00   -2.335E+00   -1.894E+00   -1.454E+00   -1.016E+00   -5.778E-01
    -1.409E-01    2.954E-01    7.310E-01    1.166E+00    1.601E+00    2.035E+00    2.470E+00    2.904E+00    3.338E+00    3.772E+00
 Mac      Conc. = 4.38E-04
  -3.36257E+01 -3.64651E+01 -3.90654E+01 -4.21420E+01 -4.50868E+01 -4.83295E+01 -5.14693E+01 -5.46615E+01 -5.77067E+01 -6.06637E+01
  -6.33364E+01 -6.59562E+01 -6.83015E+01 -7.05560E+01 -7.24509E+01 -7.40780E+01 -7.52821E+01 -7.60226E+01 -7.64606E+01 -7.63223E+01
  -7.61399E+01 -7.52952E+01 -7.47184E+01 -7.32910E+01 -7.22079E+01 -7.01426E+01 -6.83592E+01 -6.61647E+01 -6.43790E+01 -6.30562E+01
  -6.18227E+01 -6.07203E+01 -5.98524E+01 -5.88768E+01 -5.79227E+01 -5.68115E+01 -5.58653E+01 -5.49277E+01 -5.41514E+01 -5.35107E+01
  -5.29538E+01 -5.24376E+01 -5.20353E+01 -5.16417E+01 -5.12563E+01 -5.08847E+01 -5.06197E+01 -5.04404E+01 -5.05192E+01 -5.05979E+01
  -5.07167E+01 -5.06869E+01 -5.06605E+01 -5.07478E+01 -5.08199E+01 -5.10761E+01 -5.13527E+01 -5.14607E+01 -5.16409E+01 -5.13204E+01
  -5.11851E+01 -5.03090E+01 -4.97996E+01 -4.84872E+01 -4.77146E+01 -4.61579E+01 -4.52788E+01 -4.36952E+01 -4.29665E+01 -4.16580E+01
  -4.10701E+01 -3.98578E+01 -3.94840E+01 -3.81338E+01 -3.74872E+01 -3.59139E+01 -3.48971E+01 -3.31448E+01 -3.19419E+01 -3.01112E+01
  -2.89142E+01 -2.71909E+01 -2.64746E+01 -2.49524E+01 -2.43677E+01 -2.29153E+01 -2.23407E+01 -2.07815E+01 -2.02125E+01 -1.84927E+01
  -1.80333E+01 -1.62731E+01 -1.60046E+01 -1.46267E+01 -1.50246E+01 -1.46571E+01 -1.59421E+01 -1.67237E+01 -1.89425E+01 -2.07028E+01
  -2.36198E+01 -2.61518E+01 -2.95232E+01 -3.25852E+01 -3.59314E+01 -3.91263E+01 -4.19834E+01 -4.48333E+01 -4.70641E+01 -4.94377E+01
