 
 $NMID
 ID=''
 FMTDAT='(2E13.5)'
 TRAMP=   1.00000E+0
 VOLUME=   1.00000E+0
 $END
  -4.62485E+5   5.29173E+5
  -1.70239E+6   9.20941E+5
  -1.54104E+6   1.11848E+6
  -1.46478E+6   9.69473E+5
  -1.56488E+6   9.54654E+5
  -1.51776E+6   1.03008E+6
  -1.46048E+6   1.00141E+6
  -1.49522E+6   9.85786E+5
  -1.47649E+6   9.94961E+5
  -1.46369E+6   9.65973E+5
  -1.47392E+6   9.61347E+5
  -1.44945E+6   9.53197E+5
  -1.44463E+6   9.23327E+5
  -1.45473E+6   9.20723E+5
  -1.43263E+6   9.08712E+5
  -1.42506E+6   8.80843E+5
  -1.43254E+6   8.81675E+5
  -1.41707E+6   8.75033E+5
  -1.41077E+6   8.55262E+5
  -1.40780E+6   8.60275E+5
  -1.39072E+6   8.54723E+5
  -1.38486E+6   8.38604E+5
  -1.38349E+6   8.36127E+5
  -1.37233E+6   8.27094E+5
  -1.36702E+6   8.10107E+5
  -1.35785E+6   8.10043E+5
  -1.34993E+6   7.99104E+5
  -1.34902E+6   7.80404E+5
  -1.34166E+6   7.69635E+5
  -1.32927E+6   7.61909E+5
  -1.32844E+6   7.51532E+5
  -1.31944E+6   7.46374E+5
  -1.30717E+6   7.36639E+5
  -1.30195E+6   7.29593E+5
  -1.29103E+6   7.28772E+5
  -1.27753E+6   7.27331E+5
  -1.27335E+6   7.23880E+5
  -1.26673E+6   7.20389E+5
  -1.25265E+6   7.11760E+5
  -1.24625E+6   7.05499E+5
  -1.23875E+6   6.99767E+5
  -1.22768E+6   6.90129E+5
  -1.21787E+6   6.82786E+5
  -1.21056E+6   6.77015E+5
  -1.20219E+6   6.66900E+5
  -1.19582E+6   6.58267E+5
  -1.18859E+6   6.51334E+5
  -1.18020E+6   6.41742E+5
  -1.16985E+6   6.33026E+5
  -1.16008E+6   6.28120E+5
  -1.15155E+6   6.22939E+5
  -1.14431E+6   6.16400E+5
  -1.13576E+6   6.11226E+5
  -1.12711E+6   6.04999E+5
  -1.11919E+6   5.97594E+5
  -1.11182E+6   5.90174E+5
  -1.10306E+6   5.80616E+5
  -1.09356E+6   5.72081E+5
  -1.08464E+6   5.65160E+5
  -1.07716E+6   5.58742E+5
  -1.06950E+6   5.49615E+5
  -1.06189E+6   5.41528E+5
  -1.05452E+6   5.34230E+5
  -1.04672E+6   5.26005E+5
  -1.03762E+6   5.17198E+5
  -1.02772E+6   5.09966E+5
  -1.01836E+6   5.04152E+5
  -1.01031E+6   4.97164E+5
  -1.00370E+6   4.90261E+5
  -9.97055E+5   4.82482E+5
  -9.88946E+5   4.73679E+5
  -9.81173E+5   4.65834E+5
  -9.73367E+5   4.59017E+5
  -9.66827E+5   4.51346E+5
  -9.59116E+5   4.42935E+5
  -9.51253E+5   4.34844E+5
  -9.43221E+5   4.28275E+5
  -9.36115E+5   4.20883E+5
  -9.28763E+5   4.12585E+5
  -9.20662E+5   4.04659E+5
  -9.12635E+5   3.97187E+5
  -9.04652E+5   3.90082E+5
  -8.97664E+5   3.82416E+5
  -8.90594E+5   3.73532E+5
  -8.83045E+5   3.64670E+5
  -8.75495E+5   3.56905E+5
  -8.68002E+5   3.48887E+5
  -8.61055E+5   3.40486E+5
  -8.53646E+5   3.32069E+5
  -8.45548E+5   3.24488E+5
  -8.37903E+5   3.17870E+5
  -8.30859E+5   3.11151E+5
  -8.23479E+5   3.03778E+5
  -8.15562E+5   2.96390E+5
  -8.06878E+5   2.89985E+5
  -7.98736E+5   2.84236E+5
  -7.91988E+5   2.78399E+5
  -7.85096E+5   2.71855E+5
  -7.77170E+5   2.65321E+5
  -7.69322E+5   2.59428E+5
  -7.62953E+5   2.53096E+5
  -7.56426E+5   2.46050E+5
  -7.48601E+5   2.38591E+5
  -7.40086E+5   2.32222E+5
  -7.32455E+5   2.26783E+5
  -7.25796E+5   2.21155E+5
  -7.19174E+5   2.15112E+5
  -7.11535E+5   2.08368E+5
  -7.03646E+5   2.02275E+5
  -6.95293E+5   1.97600E+5
  -6.88816E+5   1.92771E+5
  -6.82724E+5   1.86903E+5
  -6.75799E+5   1.79950E+5
  -6.68891E+5   1.73567E+5
  -6.61643E+5   1.67839E+5
  -6.55357E+5   1.61725E+5
  -6.48662E+5   1.55064E+5
  -6.40701E+5   1.48836E+5
  -6.32779E+5   1.43807E+5
  -6.26109E+5   1.39408E+5
  -6.20109E+5   1.34212E+5
  -6.13769E+5   1.28661E+5
  -6.07070E+5   1.23434E+5
  -6.00558E+5   1.18073E+5
  -5.94173E+5   1.12438E+5
  -5.87238E+5   1.07074E+5
  -5.80255E+5   1.02260E+5
  -5.73804E+5   9.67526E+4
  -5.67661E+5   9.15411E+4
  -5.61551E+5   8.56634E+4
  -5.55512E+5   7.91992E+4
  -5.48978E+5   7.29852E+4
  -5.42195E+5   6.74766E+4
  -5.35888E+5   6.26210E+4
  -5.29799E+5   5.72339E+4
  -5.23222E+5   5.14793E+4
  -5.16933E+5   4.66059E+4
  -5.10899E+5   4.18393E+4
  -5.05210E+5   3.70621E+4
  -4.98738E+5   3.11117E+4
  -4.91952E+5   2.62495E+4
  -4.85187E+5   2.21857E+4
  -4.79022E+5   1.81665E+4
  -4.73502E+5   1.34262E+4
  -4.67694E+5   8.32189E+3
  -4.61367E+5   3.40083E+3
  -4.54422E+5  -6.37725E+2
  -4.48144E+5  -4.83495E+3
  -4.42038E+5  -9.23989E+3
  -4.35870E+5  -1.31838E+4
  -4.29935E+5  -1.73170E+4
  -4.23650E+5  -2.06786E+4
  -4.18109E+5  -2.42489E+4
  -4.12627E+5  -2.76931E+4
  -4.06249E+5  -3.16888E+4
  -4.00051E+5  -3.46261E+4
  -3.94449E+5  -3.74347E+4
  -3.88610E+5  -4.07057E+4
  -3.82658E+5  -4.39055E+4
  -3.76777E+5  -4.67540E+4
  -3.70878E+5  -4.93980E+4
  -3.65542E+5  -5.21178E+4
  -3.59520E+5  -5.49120E+4
  -3.53581E+5  -5.72830E+4
  -3.47506E+5  -5.95835E+4
  -3.41938E+5  -6.15794E+4
  -3.36909E+5  -6.39322E+4
  -3.31549E+5  -6.66711E+4
  -3.25842E+5  -6.87246E+4
  -3.20213E+5  -7.06385E+4
  -3.14797E+5  -7.21677E+4
  -3.09774E+5  -7.39780E+4
  -3.04359E+5  -7.59421E+4
  -2.99042E+5  -7.78819E+4
  -2.93796E+5  -7.94488E+4
  -2.88801E+5  -8.09147E+4
  -2.83628E+5  -8.32175E+4
  -2.78386E+5  -8.49208E+4
  -2.72818E+5  -8.66217E+4
  -2.68067E+5  -8.75992E+4
  -2.63445E+5  -8.92137E+4
  -2.58483E+5  -9.07431E+4
  -2.53153E+5  -9.25441E+4
  -2.48235E+5  -9.35930E+4
  -2.43527E+5  -9.48418E+4
  -2.38772E+5  -9.58429E+4
  -2.33998E+5  -9.67850E+4
  -2.29183E+5  -9.76231E+4
  -2.24607E+5  -9.85000E+4
  -2.20679E+5  -9.94851E+4
  -2.16373E+5  -1.00645E+5
  -2.11501E+5  -1.01874E+5
  -2.06376E+5  -1.02815E+5
  -2.01833E+5  -1.03474E+5
  -1.97527E+5  -1.03994E+5
  -1.93165E+5  -1.04822E+5
  -1.89069E+5  -1.05769E+5
  -1.84548E+5  -1.06457E+5
  -1.80448E+5  -1.07090E+5
  -1.75731E+5  -1.07896E+5
  -1.71572E+5  -1.08399E+5
  -1.66887E+5  -1.08735E+5
  -1.62899E+5  -1.08848E+5
  -1.59102E+5  -1.09046E+5
  -1.54993E+5  -1.09313E+5
  -1.51258E+5  -1.09871E+5
  -1.46851E+5  -1.09941E+5
  -1.42442E+5  -1.10025E+5
  -1.38992E+5  -1.10000E+5
  -1.35196E+5  -1.10231E+5
  -1.31315E+5  -1.09941E+5
  -1.27340E+5  -1.09535E+5
  -1.23817E+5  -1.09472E+5
  -1.20471E+5  -1.09654E+5
  -1.16342E+5  -1.09410E+5
  -1.12696E+5  -1.09110E+5
  -1.09343E+5  -1.08231E+5
  -1.05813E+5  -1.07622E+5
  -1.02782E+5  -1.07065E+5
  -9.93778E+4  -1.06405E+5
  -9.60920E+4  -1.06037E+5
  -9.29852E+4  -1.05121E+5
  -8.98469E+4  -1.04149E+5
  -8.66587E+4  -1.03700E+5
  -8.34424E+4  -1.02712E+5
  -8.04534E+4  -1.01968E+5
  -7.76908E+4  -1.00885E+5
  -7.50700E+4  -1.00164E+5
  -7.21319E+4  -9.91666E+4
  -6.92878E+4  -9.83467E+4
  -6.65081E+4  -9.72330E+4
  -6.36787E+4  -9.61162E+4
  -6.13120E+4  -9.48559E+4
  -5.88465E+4  -9.40266E+4
  -5.61270E+4  -9.26813E+4
  -5.40074E+4  -9.15141E+4
  -5.16678E+4  -9.02204E+4
  -4.94444E+4  -8.93741E+4
  -4.69546E+4  -8.80319E+4
  -4.48781E+4  -8.65796E+4
  -4.27230E+4  -8.54037E+4
  -4.07243E+4  -8.41559E+4
  -3.86589E+4  -8.28986E+4
  -3.65057E+4  -8.17712E+4
  -3.45888E+4  -8.01967E+4
  -3.27241E+4  -7.90629E+4
  -3.11375E+4  -7.76260E+4
  -2.89169E+4  -7.64089E+4
  -2.71437E+4  -7.48883E+4
  -2.55867E+4  -7.36816E+4
  -2.41254E+4  -7.23766E+4
  -2.23029E+4  -7.13592E+4
  -2.04988E+4  -6.99926E+4
  -1.87974E+4  -6.86740E+4
  -1.76534E+4  -6.72831E+4
  -1.60916E+4  -6.58101E+4
  -1.45300E+4  -6.48739E+4
  -1.32397E+4  -6.35216E+4
  -1.15884E+4  -6.21131E+4
  -1.03117E+4  -6.06185E+4
  -8.80487E+3  -5.95869E+4
  -7.73316E+3  -5.81954E+4
  -6.23946E+3  -5.67394E+4
  -5.09386E+3  -5.52394E+4
  -3.82593E+3  -5.39587E+4
  -3.10578E+3  -5.29631E+4
  -1.74585E+3  -5.16815E+4
  -7.07931E+2  -5.01019E+4
   4.15111E+2  -4.86648E+4
   1.31995E+3  -4.76034E+4
   2.19289E+3  -4.62714E+4
   3.14673E+3  -4.53214E+4
   4.20807E+3  -4.35970E+4
   4.80998E+3  -4.24055E+4
   5.68848E+3  -4.10040E+4
   6.48250E+3  -3.99452E+4
   7.01377E+3  -3.87078E+4
   7.98964E+3  -3.74364E+4
   8.68117E+3  -3.62532E+4
   9.00470E+3  -3.51037E+4
   9.69985E+3  -3.36848E+4
   1.05279E+4  -3.26076E+4
   1.08357E+4  -3.13830E+4
   1.15331E+4  -3.00748E+4
   1.17156E+4  -2.91428E+4
   1.22277E+4  -2.78101E+4
   1.26433E+4  -2.66238E+4
   1.29388E+4  -2.56224E+4
   1.31974E+4  -2.42342E+4
   1.34995E+4  -2.35218E+4
   1.38651E+4  -2.24732E+4
   1.41106E+4  -2.07909E+4
   1.43140E+4  -1.98760E+4
   1.43791E+4  -1.93297E+4
   1.47357E+4  -1.79467E+4
   1.49997E+4  -1.68890E+4
   1.50407E+4  -1.59369E+4
   1.49307E+4  -1.46270E+4
   1.49932E+4  -1.37921E+4
   1.50445E+4  -1.29621E+4
   1.52129E+4  -1.17919E+4
   1.51089E+4  -1.09073E+4
   1.51874E+4  -1.00950E+4
   1.50930E+4  -9.26921E+3
   1.50576E+4  -8.14728E+3
   1.50683E+4  -7.16419E+3
   1.48199E+4  -6.52077E+3
   1.45728E+4  -5.65941E+3
   1.45980E+4  -4.97437E+3
   1.42614E+4  -3.73164E+3
   1.41883E+4  -3.21382E+3
   1.38104E+4  -2.14441E+3
   1.36383E+4  -1.49895E+3
   1.33361E+4  -8.05716E+2
   1.32442E+4   8.07077E+0
   1.28692E+4   8.56050E+2
   1.27140E+4   1.62516E+3
   1.22226E+4   1.95734E+3
   1.20195E+4   2.58104E+3
   1.17040E+4   3.55295E+3
   1.13884E+4   4.06672E+3
   1.12691E+4   4.62628E+3
   1.06847E+4   5.36220E+3
   1.02729E+4   6.03686E+3
   9.99287E+3   6.45458E+3
   9.41197E+3   7.21474E+3
   9.29840E+3   7.77739E+3
   8.87190E+3   8.14227E+3
   8.25863E+3   8.89587E+3
   8.04204E+3   9.16680E+3
   7.56928E+3   9.78843E+3
   7.13627E+3   1.03054E+4
   6.77571E+3   1.03541E+4
   6.45902E+3   1.10619E+4
   6.04384E+3   1.13774E+4
   5.58970E+3   1.18913E+4
   5.14277E+3   1.24380E+4
   4.53008E+3   1.27889E+4
   4.29669E+3   1.29578E+4
   3.81014E+3   1.35230E+4
   3.12445E+3   1.38048E+4
   2.89848E+3   1.40019E+4
   2.40851E+3   1.45798E+4
   1.93778E+3   1.49684E+4
   1.31320E+3   1.52349E+4
   8.34023E+2   1.53574E+4
   5.80728E+2   1.55039E+4
   1.17040E+2   1.58795E+4
  -4.67207E+2   1.60971E+4
  -1.15837E+3   1.64486E+4
  -1.41812E+3   1.66068E+4
  -1.99478E+3   1.66436E+4
  -2.36761E+3   1.69263E+4
  -3.01174E+3   1.72357E+4
  -3.38874E+3   1.70489E+4
  -3.67773E+3   1.73490E+4
  -4.19781E+3   1.72162E+4
  -4.54182E+3   1.76709E+4
  -5.03705E+3   1.75929E+4
  -5.51980E+3   1.77437E+4
  -6.02590E+3   1.78168E+4
  -6.60896E+3   1.77501E+4
  -6.88433E+3   1.78359E+4
  -7.38994E+3   1.77102E+4
  -7.93550E+3   1.79477E+4
  -8.24815E+3   1.79225E+4
  -8.76233E+3   1.79139E+4
