 
 $NMID
 ID=''
 FMTDAT='(2E13.5)'
 TRAMP=   1.00000E+0
 VOLUME=   1.00000E+0
 $END
  -3.35261E+5   4.95051E+5
  -1.28674E+6   8.70829E+5
  -1.16651E+6   9.35485E+5
  -1.15786E+6   8.13153E+5
  -1.20084E+6   8.39445E+5
  -1.11522E+6   8.60722E+5
  -1.09210E+6   8.15046E+5
  -1.11481E+6   8.28908E+5
  -1.06641E+6   8.22316E+5
  -1.06255E+6   7.78613E+5
  -1.07664E+6   7.85388E+5
  -1.04350E+6   7.73647E+5
  -1.04557E+6   7.36566E+5
  -1.05935E+6   7.32649E+5
  -1.03734E+6   7.09152E+5
  -1.03839E+6   6.72455E+5
  -1.04529E+6   6.67605E+5
  -1.02517E+6   6.50649E+5
  -1.01871E+6   6.22866E+5
  -1.01047E+6   6.20754E+5
  -9.88896E+5   6.04866E+5
  -9.82598E+5   5.82418E+5
  -9.75135E+5   5.77212E+5
  -9.58541E+5   5.61244E+5
  -9.53980E+5   5.38370E+5
  -9.45170E+5   5.34202E+5
  -9.39253E+5   5.17082E+5
  -9.42506E+5   4.90685E+5
  -9.35688E+5   4.73795E+5
  -9.25444E+5   4.57585E+5
  -9.26873E+5   4.38612E+5
  -9.19604E+5   4.25791E+5
  -9.06901E+5   4.08802E+5
  -9.00561E+5   3.95609E+5
  -8.89381E+5   3.89535E+5
  -8.77633E+5   3.81599E+5
  -8.73906E+5   3.73588E+5
  -8.66039E+5   3.66643E+5
  -8.55680E+5   3.55279E+5
  -8.52632E+5   3.45173E+5
  -8.46812E+5   3.35175E+5
  -8.39107E+5   3.21850E+5
  -8.35321E+5   3.11268E+5
  -8.31323E+5   3.01243E+5
  -8.24412E+5   2.86989E+5
  -8.19666E+5   2.75555E+5
  -8.14485E+5   2.66558E+5
  -8.07877E+5   2.54484E+5
  -7.99835E+5   2.45667E+5
  -7.92159E+5   2.40732E+5
  -7.85605E+5   2.35031E+5
  -7.80514E+5   2.28392E+5
  -7.74309E+5   2.22782E+5
  -7.68121E+5   2.17280E+5
  -7.62637E+5   2.10657E+5
  -7.57041E+5   2.03790E+5
  -7.50431E+5   1.95729E+5
  -7.43652E+5   1.88781E+5
  -7.37610E+5   1.83161E+5
  -7.32073E+5   1.77066E+5
  -7.26012E+5   1.69994E+5
  -7.19397E+5   1.64157E+5
  -7.12834E+5   1.59193E+5
  -7.05639E+5   1.53203E+5
  -6.98346E+5   1.48136E+5
  -6.89985E+5   1.44916E+5
  -6.82765E+5   1.41771E+5
  -6.77359E+5   1.38120E+5
  -6.71390E+5   1.34317E+5
  -6.65002E+5   1.29294E+5
  -6.58251E+5   1.24325E+5
  -6.50919E+5   1.20399E+5
  -6.44685E+5   1.16360E+5
  -6.38500E+5   1.11578E+5
  -6.31170E+5   1.07151E+5
  -6.23347E+5   1.04136E+5
  -6.16820E+5   1.00173E+5
  -6.10012E+5   9.69170E+4
  -6.02653E+5   9.35521E+4
  -5.95397E+5   9.00153E+4
  -5.88279E+5   8.69181E+4
  -5.81272E+5   8.39910E+4
  -5.74595E+5   8.04459E+4
  -5.68207E+5   7.62279E+4
  -5.60815E+5   7.19454E+4
  -5.53785E+5   6.83132E+4
  -5.47392E+5   6.45700E+4
  -5.40603E+5   6.02606E+4
  -5.33813E+5   5.58106E+4
  -5.26413E+5   5.27444E+4
  -5.19785E+5   4.99535E+4
  -5.13148E+5   4.63847E+4
  -5.06281E+5   4.28700E+4
  -4.99210E+5   4.00879E+4
  -4.92209E+5   3.77675E+4
  -4.86206E+5   3.56015E+4
  -4.80484E+5   3.30861E+4
  -4.74686E+5   2.96998E+4
  -4.68113E+5   2.66793E+4
  -4.62686E+5   2.40522E+4
  -4.57241E+5   2.09391E+4
  -4.51299E+5   1.73209E+4
  -4.44603E+5   1.31689E+4
  -4.38164E+5   1.03825E+4
  -4.33084E+5   7.72241E+3
  -4.28282E+5   4.96481E+3
  -4.23258E+5   1.52975E+3
  -4.17537E+5  -1.63594E+3
  -4.11704E+5  -3.98728E+3
  -4.06914E+5  -6.33942E+3
  -4.03290E+5  -8.70782E+3
  -3.99014E+5  -1.23933E+4
  -3.94101E+5  -1.55236E+4
  -3.89812E+5  -1.86470E+4
  -3.85291E+5  -2.18522E+4
  -3.81204E+5  -2.51232E+4
  -3.76898E+5  -2.81031E+4
  -3.72756E+5  -3.10732E+4
  -3.68230E+5  -3.31218E+4
  -3.64830E+5  -3.51835E+4
  -3.62051E+5  -3.81196E+4
  -3.58509E+5  -4.06462E+4
  -3.54986E+5  -4.30145E+4
  -3.51668E+5  -4.53888E+4
  -3.48573E+5  -4.81381E+4
  -3.44883E+5  -5.05513E+4
  -3.41856E+5  -5.27016E+4
  -3.38881E+5  -5.45856E+4
  -3.36033E+5  -5.69783E+4
  -3.33192E+5  -5.98274E+4
  -3.29930E+5  -6.29722E+4
  -3.26652E+5  -6.51640E+4
  -3.23500E+5  -6.69989E+4
  -3.21081E+5  -6.90265E+4
  -3.18166E+5  -7.12354E+4
  -3.15269E+5  -7.34625E+4
  -3.12767E+5  -7.49649E+4
  -3.10905E+5  -7.64094E+4
  -3.08070E+5  -7.87188E+4
  -3.05497E+5  -8.04171E+4
  -3.02695E+5  -8.17662E+4
  -2.99977E+5  -8.28817E+4
  -2.97488E+5  -8.42886E+4
  -2.95458E+5  -8.59665E+4
  -2.92557E+5  -8.76570E+4
  -2.89784E+5  -8.88062E+4
  -2.86509E+5  -8.96411E+4
  -2.83835E+5  -9.09295E+4
  -2.81406E+5  -9.19541E+4
  -2.78541E+5  -9.31728E+4
  -2.75905E+5  -9.37944E+4
  -2.72950E+5  -9.44392E+4
  -2.70684E+5  -9.51863E+4
  -2.68325E+5  -9.60198E+4
  -2.65476E+5  -9.67197E+4
  -2.62738E+5  -9.73309E+4
  -2.60128E+5  -9.76191E+4
  -2.57364E+5  -9.83200E+4
  -2.54604E+5  -9.86995E+4
  -2.51795E+5  -9.87863E+4
  -2.49188E+5  -9.92408E+4
  -2.46526E+5  -9.94589E+4
  -2.43782E+5  -9.98783E+4
  -2.40965E+5  -1.00075E+5
  -2.38188E+5  -1.00175E+5
  -2.35573E+5  -1.00220E+5
  -2.33239E+5  -1.00558E+5
  -2.30318E+5  -1.01129E+5
  -2.27211E+5  -1.01122E+5
  -2.24616E+5  -1.01188E+5
  -2.21891E+5  -1.01261E+5
  -2.19195E+5  -1.01407E+5
  -2.16380E+5  -1.01777E+5
  -2.13541E+5  -1.01803E+5
  -2.10808E+5  -1.02105E+5
  -2.08257E+5  -1.02617E+5
  -2.05580E+5  -1.02886E+5
  -2.02485E+5  -1.03195E+5
  -1.99707E+5  -1.03527E+5
  -1.97355E+5  -1.03710E+5
  -1.94961E+5  -1.04444E+5
  -1.92044E+5  -1.04930E+5
  -1.89083E+5  -1.05384E+5
  -1.86583E+5  -1.05924E+5
  -1.83968E+5  -1.06204E+5
  -1.81317E+5  -1.06607E+5
  -1.78974E+5  -1.07136E+5
  -1.76327E+5  -1.07432E+5
  -1.73993E+5  -1.07499E+5
  -1.72180E+5  -1.08099E+5
  -1.69561E+5  -1.08912E+5
  -1.66855E+5  -1.09494E+5
  -1.64209E+5  -1.09803E+5
  -1.61812E+5  -1.10217E+5
  -1.59794E+5  -1.10939E+5
  -1.57356E+5  -1.11581E+5
  -1.54905E+5  -1.12158E+5
  -1.52444E+5  -1.12744E+5
  -1.50051E+5  -1.13283E+5
  -1.47599E+5  -1.14158E+5
  -1.45302E+5  -1.14611E+5
  -1.43104E+5  -1.14908E+5
  -1.40917E+5  -1.15067E+5
  -1.38949E+5  -1.15869E+5
  -1.36861E+5  -1.16587E+5
  -1.34308E+5  -1.17160E+5
  -1.32028E+5  -1.17401E+5
  -1.29821E+5  -1.17901E+5
  -1.28086E+5  -1.18575E+5
  -1.25907E+5  -1.18950E+5
  -1.23651E+5  -1.19209E+5
  -1.21587E+5  -1.19571E+5
  -1.19604E+5  -1.19987E+5
  -1.17701E+5  -1.20561E+5
  -1.15486E+5  -1.20665E+5
  -1.13156E+5  -1.20819E+5
  -1.11437E+5  -1.20579E+5
  -1.09674E+5  -1.20720E+5
  -1.08141E+5  -1.20784E+5
  -1.05909E+5  -1.21096E+5
  -1.04049E+5  -1.21018E+5
  -1.02054E+5  -1.20966E+5
  -1.00789E+5  -1.21070E+5
  -9.86349E+4  -1.21284E+5
  -9.65650E+4  -1.20893E+5
  -9.50887E+4  -1.20295E+5
  -9.36350E+4  -1.20320E+5
  -9.18545E+4  -1.20126E+5
  -8.99419E+4  -1.20448E+5
  -8.82868E+4  -1.20068E+5
  -8.66559E+4  -1.19407E+5
  -8.51480E+4  -1.19120E+5
  -8.36873E+4  -1.18720E+5
  -8.19678E+4  -1.18290E+5
  -8.03602E+4  -1.17988E+5
  -7.89468E+4  -1.17480E+5
  -7.76628E+4  -1.17017E+5
  -7.58116E+4  -1.16643E+5
  -7.43345E+4  -1.16098E+5
  -7.27905E+4  -1.15361E+5
  -7.14808E+4  -1.14837E+5
  -7.02369E+4  -1.14432E+5
  -6.84545E+4  -1.13881E+5
  -6.68563E+4  -1.13221E+5
  -6.56404E+4  -1.12608E+5
  -6.42534E+4  -1.12054E+5
  -6.25225E+4  -1.11656E+5
  -6.09784E+4  -1.10786E+5
  -5.96318E+4  -1.10066E+5
  -5.83591E+4  -1.09249E+5
  -5.70261E+4  -1.09190E+5
  -5.53221E+4  -1.08735E+5
  -5.37162E+4  -1.08011E+5
  -5.23399E+4  -1.07015E+5
  -5.09656E+4  -1.06590E+5
  -4.97011E+4  -1.06067E+5
  -4.85179E+4  -1.05652E+5
  -4.68617E+4  -1.05252E+5
  -4.52790E+4  -1.04397E+5
  -4.40667E+4  -1.04155E+5
  -4.23443E+4  -1.03749E+5
  -4.07241E+4  -1.02908E+5
  -3.92603E+4  -1.02209E+5
  -3.83707E+4  -1.01561E+5
  -3.71629E+4  -1.01100E+5
  -3.54445E+4  -1.00737E+5
  -3.41087E+4  -1.00553E+5
  -3.24971E+4  -9.95041E+4
  -3.14934E+4  -9.89115E+4
  -3.01253E+4  -9.83550E+4
  -2.89818E+4  -9.78773E+4
  -2.78325E+4  -9.73568E+4
  -2.65481E+4  -9.66093E+4
  -2.53396E+4  -9.60848E+4
  -2.38561E+4  -9.58138E+4
  -2.25642E+4  -9.50925E+4
  -2.12789E+4  -9.43398E+4
  -2.03105E+4  -9.37749E+4
  -1.91931E+4  -9.32253E+4
  -1.78509E+4  -9.25657E+4
  -1.69758E+4  -9.20240E+4
  -1.59839E+4  -9.14655E+4
  -1.50463E+4  -9.06257E+4
  -1.37965E+4  -9.02781E+4
  -1.29395E+4  -8.97179E+4
  -1.19417E+4  -8.87005E+4
  -1.11615E+4  -8.79586E+4
  -1.04331E+4  -8.73265E+4
  -9.60112E+3  -8.68745E+4
  -8.75323E+3  -8.60012E+4
  -7.80865E+3  -8.54037E+4
  -6.90413E+3  -8.46736E+4
  -6.09500E+3  -8.37692E+4
  -5.42398E+3  -8.30665E+4
  -4.57945E+3  -8.23323E+4
  -3.87636E+3  -8.16625E+4
  -3.43550E+3  -8.11103E+4
  -2.78361E+3  -8.03219E+4
  -1.74977E+3  -7.95019E+4
  -1.17706E+3  -7.84031E+4
  -5.56959E+2  -7.76699E+4
  -6.03632E+0  -7.68910E+4
   7.34396E+2  -7.63104E+4
   1.43467E+3  -7.56470E+4
   2.08242E+3  -7.47206E+4
   2.77678E+3  -7.36593E+4
   2.88087E+3  -7.31167E+4
   3.50229E+3  -7.23930E+4
   4.08314E+3  -7.13311E+4
   4.66290E+3  -7.05870E+4
   5.04447E+3  -6.98849E+4
   5.64684E+3  -6.92083E+4
   6.05081E+3  -6.82830E+4
   6.58107E+3  -6.73524E+4
   7.13442E+3  -6.64776E+4
   7.65022E+3  -6.56413E+4
   7.97379E+3  -6.48476E+4
   8.43159E+3  -6.39016E+4
   8.51753E+3  -6.31963E+4
   9.10800E+3  -6.23829E+4
   9.52211E+3  -6.14782E+4
   9.98525E+3  -6.07196E+4
   1.04314E+4  -5.99475E+4
   1.08117E+4  -5.90601E+4
   1.10247E+4  -5.82703E+4
   1.15528E+4  -5.74959E+4
   1.17823E+4  -5.64560E+4
   1.24217E+4  -5.60150E+4
   1.28079E+4  -5.48868E+4
   1.31719E+4  -5.40854E+4
   1.32945E+4  -5.33938E+4
   1.40782E+4  -5.25060E+4
   1.39187E+4  -5.17871E+4
   1.44293E+4  -5.08522E+4
   1.46676E+4  -5.02857E+4
   1.51249E+4  -4.98546E+4
   1.55944E+4  -4.88009E+4
   1.57424E+4  -4.79265E+4
   1.60927E+4  -4.70039E+4
   1.62144E+4  -4.62394E+4
   1.64664E+4  -4.55127E+4
   1.71896E+4  -4.47164E+4
   1.72301E+4  -4.40279E+4
   1.74859E+4  -4.31836E+4
   1.78363E+4  -4.28255E+4
   1.79124E+4  -4.19097E+4
   1.81255E+4  -4.10577E+4
   1.83490E+4  -4.01429E+4
   1.87550E+4  -3.95730E+4
   1.90782E+4  -3.89744E+4
   1.92041E+4  -3.81214E+4
   1.94122E+4  -3.73628E+4
   1.94776E+4  -3.66092E+4
   1.96032E+4  -3.61140E+4
   1.97863E+4  -3.53224E+4
   2.00562E+4  -3.46033E+4
   2.01490E+4  -3.36806E+4
   2.04735E+4  -3.35508E+4
   2.07609E+4  -3.26904E+4
   2.10229E+4  -3.19304E+4
   2.06502E+4  -3.14522E+4
   2.09699E+4  -3.05998E+4
   2.10429E+4  -2.99769E+4
   2.12074E+4  -2.95120E+4
   2.12425E+4  -2.91034E+4
   2.16052E+4  -2.83673E+4
   2.14935E+4  -2.76131E+4
