 
 $NMID
 ID=''
 FMTDAT='(2E13.5)'
 TRAMP=   1.00000E+0
 VOLUME=   1.00000E+0
 $END
   3.68789E+5   4.13911E+5
   5.78245E+5   1.37613E+6
   7.74706E+5   1.22964E+6
   7.32978E+5   1.12439E+6
   8.07299E+5   1.12946E+6
   9.27457E+5   1.00671E+6
   9.42916E+5   9.02570E+5
   9.82643E+5   8.74986E+5
   1.02885E+6   7.85616E+5
   1.01963E+6   7.12805E+5
   1.04151E+6   6.72841E+5
   1.06474E+6   5.87127E+5
   1.05073E+6   5.16887E+5
   1.05664E+6   4.77463E+5
   1.05716E+6   4.10950E+5
   1.03694E+6   3.51837E+5
   1.04117E+6   3.03468E+5
   1.03829E+6   2.30350E+5
   1.00992E+6   1.65753E+5
   1.00046E+6   1.09122E+5
   9.85626E+5   4.32566E+4
   9.54032E+5  -9.28443E+3
   9.33850E+5  -5.60313E+4
   9.07009E+5  -1.11801E+5
   8.68428E+5  -1.51124E+5
   8.40398E+5  -1.87450E+5
   8.11120E+5  -2.27359E+5
   7.73752E+5  -2.55145E+5
   7.41015E+5  -2.79479E+5
   7.03380E+5  -3.12642E+5
   6.63950E+5  -3.37592E+5
   6.28902E+5  -3.61646E+5
   5.88277E+5  -3.87908E+5
   5.44808E+5  -4.07602E+5
   5.04509E+5  -4.26029E+5
   4.60360E+5  -4.46097E+5
   4.17147E+5  -4.58128E+5
   3.78870E+5  -4.67715E+5
   3.38065E+5  -4.74098E+5
   2.98425E+5  -4.75117E+5
   2.63227E+5  -4.73738E+5
   2.27711E+5  -4.71537E+5
   1.93170E+5  -4.65500E+5
   1.62411E+5  -4.59003E+5
   1.31444E+5  -4.50771E+5
   1.02147E+5  -4.39900E+5
   7.54174E+4  -4.28440E+5
   4.84137E+4  -4.15535E+5
   2.20895E+4  -4.00344E+5
  -2.29707E+3  -3.85842E+5
  -2.53680E+4  -3.69908E+5
  -4.62919E+4  -3.52203E+5
  -6.52698E+4  -3.34443E+5
  -8.26818E+4  -3.16733E+5
  -9.74489E+4  -2.97062E+5
  -1.10106E+5  -2.77532E+5
  -1.21138E+5  -2.58276E+5
  -1.29926E+5  -2.38625E+5
  -1.37523E+5  -2.18702E+5
  -1.44382E+5  -1.99475E+5
  -1.49257E+5  -1.80762E+5
  -1.52538E+5  -1.61771E+5
  -1.54923E+5  -1.43043E+5
  -1.56011E+5  -1.24648E+5
  -1.55998E+5  -1.07024E+5
  -1.54967E+5  -9.00903E+4
  -1.52594E+5  -7.36238E+4
  -1.49556E+5  -5.70366E+4
  -1.45473E+5  -4.18804E+4
  -1.40479E+5  -2.80586E+4
  -1.34422E+5  -1.44801E+4
  -1.28505E+5  -1.60161E+3
  -1.21619E+5   1.00396E+4
  -1.14475E+5   2.11649E+4
  -1.06616E+5   3.17299E+4
  -9.88285E+4   4.12677E+4
  -9.01430E+4   4.99862E+4
  -8.16389E+4   5.85543E+4
  -7.23395E+4   6.60838E+4
  -6.36466E+4   7.26934E+4
  -5.49258E+4   7.88605E+4
  -4.60443E+4   8.41804E+4
  -3.70189E+4   8.88087E+4
  -2.80951E+4   9.30681E+4
  -1.94486E+4   9.61161E+4
  -1.11243E+4   9.85880E+4
  -2.67520E+3   1.01326E+5
   5.31028E+3   1.03271E+5
   1.31794E+4   1.04079E+5
   2.11064E+4   1.05195E+5
   2.84442E+4   1.05574E+5
   3.53810E+4   1.05606E+5
   4.20678E+4   1.05467E+5
   4.88492E+4   1.04911E+5
   5.49636E+4   1.03779E+5
   6.09218E+4   1.02817E+5
   6.65317E+4   1.01720E+5
   7.17005E+4   1.00569E+5
   7.62916E+4   9.90085E+4
   8.10667E+4   9.70050E+4
   8.49985E+4   9.53654E+4
   8.85820E+4   9.35743E+4
   9.18387E+4   9.16231E+4
   9.46733E+4   8.97062E+4
   9.74956E+4   8.73803E+4
   1.00031E+5   8.53080E+4
   1.02193E+5   8.33792E+4
   1.04014E+5   8.12309E+4
   1.06181E+5   7.96863E+4
   1.07423E+5   7.77162E+4
   1.09146E+5   7.57620E+4
   1.10200E+5   7.41544E+4
   1.11203E+5   7.31065E+4
   1.11834E+5   7.16458E+4
   1.12666E+5   7.00802E+4
   1.13604E+5   6.89634E+4
   1.13472E+5   6.79374E+4
   1.13830E+5   6.67609E+4
   1.13797E+5   6.50944E+4
   1.13875E+5   6.37512E+4
   1.13637E+5   6.29288E+4
   1.13352E+5   6.18311E+4
   1.13017E+5   6.06287E+4
   1.12675E+5   5.95755E+4
   1.12065E+5   5.88773E+4
   1.11453E+5   5.80904E+4
   1.10620E+5   5.72710E+4
   1.10163E+5   5.63646E+4
   1.08920E+5   5.59243E+4
   1.07792E+5   5.53938E+4
   1.06599E+5   5.49783E+4
   1.05230E+5   5.45649E+4
   1.03845E+5   5.39682E+4
   1.02356E+5   5.37095E+4
   1.00647E+5   5.32647E+4
   9.92535E+4   5.28247E+4
   9.72017E+4   5.27038E+4
   9.55284E+4   5.20112E+4
   9.41076E+4   5.19346E+4
   9.17841E+4   5.18238E+4
   8.98825E+4   5.17898E+4
   8.75736E+4   5.16377E+4
   8.56337E+4   5.12773E+4
   8.34314E+4   5.10333E+4
   8.11621E+4   5.11658E+4
   7.85275E+4   5.11308E+4
   7.61829E+4   5.13743E+4
   7.36661E+4   5.15640E+4
   7.09001E+4   5.19191E+4
   6.85196E+4   5.20007E+4
   6.56387E+4   5.23726E+4
   6.33866E+4   5.25791E+4
   6.07167E+4   5.32599E+4
   5.78996E+4   5.36041E+4
   5.51340E+4   5.40416E+4
   5.25168E+4   5.49301E+4
   4.98844E+4   5.53225E+4
   4.73394E+4   5.60263E+4
   4.46156E+4   5.70048E+4
   4.20946E+4   5.76191E+4
   3.95012E+4   5.86392E+4
   3.68877E+4   5.93664E+4
   3.43760E+4   6.07218E+4
   3.20452E+4   6.16137E+4
   2.93816E+4   6.29242E+4
   2.72973E+4   6.39595E+4
   2.52497E+4   6.52945E+4
   2.30336E+4   6.66265E+4
   2.10670E+4   6.78279E+4
   1.92048E+4   6.91146E+4
   1.71642E+4   7.02566E+4
   1.52341E+4   7.14166E+4
   1.36405E+4   7.32761E+4
   1.19166E+4   7.44218E+4
   1.05243E+4   7.57447E+4
   8.92922E+3   7.69239E+4
   7.54548E+3   7.82343E+4
   6.27488E+3   7.96460E+4
   4.89393E+3   8.06824E+4
   3.87876E+3   8.17906E+4
   2.89787E+3   8.30643E+4
   2.04625E+3   8.40670E+4
   8.51445E+2   8.50356E+4
  -5.56354E+1   8.59635E+4
  -6.71450E+2   8.64988E+4
  -1.36558E+3   8.71295E+4
  -1.67669E+3   8.75565E+4
  -2.07742E+3   8.83807E+4
  -2.53412E+3   8.85411E+4
  -3.07687E+3   8.92466E+4
  -3.30637E+3   8.94915E+4
  -3.74766E+3   8.98530E+4
  -4.53210E+3   8.99780E+4
  -4.40554E+3   8.94607E+4
  -4.70237E+3   8.92594E+4
  -5.23081E+3   8.90947E+4
  -5.71220E+3   8.87737E+4
  -5.90771E+3   8.87012E+4
  -6.19704E+3   8.80347E+4
  -6.56053E+3   8.76158E+4
  -6.77703E+3   8.69566E+4
  -7.26162E+3   8.59053E+4
  -7.60496E+3   8.50599E+4
  -8.02253E+3   8.40832E+4
  -8.55112E+3   8.32797E+4
  -9.16082E+3   8.21645E+4
  -9.58461E+3   8.15499E+4
  -1.00952E+4   8.01980E+4
  -1.07305E+4   7.89131E+4
  -1.14015E+4   7.76746E+4
  -1.20697E+4   7.61511E+4
  -1.25789E+4   7.48790E+4
  -1.32663E+4   7.35785E+4
  -1.41960E+4   7.22478E+4
  -1.52305E+4   7.07485E+4
  -1.59950E+4   6.94064E+4
  -1.67911E+4   6.76153E+4
  -1.75088E+4   6.62607E+4
  -1.82375E+4   6.48339E+4
  -1.91378E+4   6.34533E+4
  -2.02899E+4   6.19420E+4
  -2.09322E+4   6.04256E+4
  -2.20125E+4   5.92469E+4
  -2.30975E+4   5.77677E+4
  -2.41514E+4   5.64648E+4
  -2.50245E+4   5.50224E+4
  -2.58263E+4   5.37469E+4
  -2.68524E+4   5.24291E+4
  -2.81564E+4   5.14868E+4
  -2.92547E+4   4.97121E+4
  -3.02791E+4   4.85676E+4
  -3.10826E+4   4.77556E+4
  -3.22511E+4   4.66111E+4
  -3.30850E+4   4.51872E+4
  -3.40997E+4   4.45399E+4
  -3.48363E+4   4.32434E+4
  -3.60198E+4   4.21644E+4
  -3.70039E+4   4.15279E+4
  -3.78328E+4   4.06633E+4
  -3.85496E+4   3.96955E+4
  -3.92584E+4   3.88735E+4
  -4.00028E+4   3.82870E+4
  -4.08436E+4   3.73751E+4
  -4.13326E+4   3.66343E+4
  -4.20562E+4   3.60355E+4
  -4.25839E+4   3.53608E+4
  -4.32021E+4   3.48746E+4
  -4.39604E+4   3.38902E+4
  -4.42157E+4   3.32654E+4
  -4.42919E+4   3.27527E+4
  -4.48063E+4   3.21458E+4
  -4.52336E+4   3.15763E+4
  -4.55922E+4   3.10166E+4
  -4.58611E+4   3.02770E+4
  -4.58523E+4   2.96908E+4
  -4.61614E+4   2.94201E+4
  -4.63698E+4   2.88279E+4
  -4.64740E+4   2.80431E+4
  -4.63536E+4   2.76677E+4
  -4.64321E+4   2.67654E+4
  -4.66515E+4   2.61832E+4
  -4.62245E+4   2.58221E+4
  -4.61910E+4   2.49740E+4
  -4.60640E+4   2.43716E+4
  -4.58479E+4   2.37356E+4
  -4.60455E+4   2.33884E+4
  -4.55727E+4   2.25853E+4
  -4.55225E+4   2.15512E+4
  -4.49739E+4   2.09485E+4
  -4.49413E+4   2.03966E+4
  -4.45141E+4   1.98769E+4
  -4.42937E+4   1.90506E+4
  -4.39155E+4   1.81169E+4
  -4.34574E+4   1.75245E+4
  -4.35171E+4   1.69195E+4
  -4.30475E+4   1.59752E+4
  -4.26700E+4   1.52110E+4
  -4.20130E+4   1.45429E+4
  -4.20202E+4   1.38766E+4
  -4.17000E+4   1.28660E+4
  -4.11081E+4   1.23119E+4
  -4.10404E+4   1.15324E+4
  -4.05881E+4   1.08329E+4
  -4.01122E+4   1.02500E+4
  -3.97531E+4   9.30470E+3
  -3.95889E+4   8.45836E+3
  -3.93974E+4   7.83536E+3
  -3.89104E+4   6.98076E+3
  -3.85234E+4   6.66785E+3
  -3.84797E+4   5.96146E+3
  -3.79866E+4   5.38721E+3
  -3.78246E+4   4.64110E+3
  -3.74215E+4   3.98615E+3
  -3.69733E+4   3.54381E+3
  -3.70783E+4   2.64710E+3
  -3.62787E+4   2.43155E+3
  -3.59744E+4   1.81914E+3
  -3.58839E+4   1.10375E+3
  -3.57378E+4   6.67871E+2
  -3.53832E+4   1.92991E+1
  -3.49841E+4  -3.71965E+2
  -3.48880E+4  -7.43402E+2
  -3.44557E+4  -1.31190E+3
  -3.42599E+4  -1.57262E+3
  -3.41003E+4  -1.86978E+3
  -3.36662E+4  -2.58452E+3
  -3.32586E+4  -2.68958E+3
  -3.31039E+4  -3.24554E+3
  -3.25838E+4  -3.58920E+3
  -3.24848E+4  -3.71464E+3
  -3.22204E+4  -3.74833E+3
  -3.17219E+4  -4.00653E+3
  -3.15122E+4  -4.45348E+3
  -3.11775E+4  -4.63018E+3
  -3.08493E+4  -4.66610E+3
  -3.05680E+4  -4.96776E+3
  -3.00661E+4  -5.14481E+3
  -2.98550E+4  -5.44552E+3
  -2.95333E+4  -5.68676E+3
  -2.88356E+4  -5.83777E+3
  -2.86331E+4  -5.75686E+3
  -2.81193E+4  -5.94681E+3
  -2.79689E+4  -6.35615E+3
  -2.73484E+4  -6.24160E+3
  -2.69343E+4  -6.42377E+3
  -2.65454E+4  -6.48972E+3
  -2.61334E+4  -6.12237E+3
  -2.59799E+4  -6.61801E+3
  -2.52129E+4  -6.91623E+3
  -2.50713E+4  -6.53633E+3
  -2.42108E+4  -6.75775E+3
  -2.38110E+4  -6.85399E+3
  -2.35602E+4  -6.86095E+3
  -2.30152E+4  -6.85797E+3
  -2.24724E+4  -7.12972E+3
  -2.20945E+4  -7.18339E+3
  -2.15054E+4  -7.36681E+3
  -2.11650E+4  -7.63342E+3
  -2.05407E+4  -7.52390E+3
  -2.02473E+4  -7.61025E+3
  -1.97073E+4  -7.59077E+3
  -1.92499E+4  -7.95019E+3
  -1.85483E+4  -8.02205E+3
  -1.83347E+4  -7.87753E+3
  -1.79790E+4  -7.96017E+3
  -1.71889E+4  -8.13714E+3
  -1.68253E+4  -8.63483E+3
  -1.63767E+4  -8.34306E+3
  -1.62377E+4  -8.52223E+3
  -1.57579E+4  -8.54395E+3
  -1.52320E+4  -8.75869E+3
  -1.48790E+4  -8.58564E+3
  -1.44811E+4  -8.99252E+3
  -1.41799E+4  -9.04205E+3
  -1.36502E+4  -8.91490E+3
  -1.34762E+4  -9.01355E+3
  -1.31269E+4  -9.04272E+3
  -1.27550E+4  -9.43974E+3
  -1.27768E+4  -9.18597E+3
  -1.20988E+4  -9.51372E+3
  -1.19715E+4  -9.40353E+3
  -1.16626E+4  -9.43903E+3
  -1.13225E+4  -9.62617E+3
  -1.11582E+4  -9.65070E+3
  -1.09604E+4  -9.60100E+3
  -1.09071E+4  -9.34022E+3
  -1.04083E+4  -9.67838E+3
