 
 $NMID
 ID=''
 FMTDAT='(2E13.5)'
 TRAMP=   1.00000E+0
 VOLUME=   1.00000E+0
 $END
   1.08964E+4   5.04832E+3
   8.38639E+2  -3.10026E+3
  -7.49121E+3   1.80915E+3
   5.68019E+3   2.38167E+3
   2.95694E+3  -1.02876E+3
  -5.30675E+3   2.04790E+3
   6.19506E+2  -1.22631E+3
   1.67614E+3  -5.96925E+3
  -8.00770E+2   9.75838E+2
   1.97241E+3   4.39094E+3
  -1.11857E+3   2.28674E+1
  -3.91859E+3   1.83331E+2
   2.49315E+3   5.48738E+2
   1.30276E+3   3.20269E+2
  -4.34224E+3   1.15685E+3
  -9.68771E+2  -1.38146E+3
   1.81794E+3  -2.49467E+3
  -2.62403E+2   1.12871E+3
   1.33040E+2  -3.48976E+2
   1.35019E+3  -1.97225E+3
  -4.58192E+2   1.79036E+3
  -8.48458E+2   2.91570E+2
   1.15918E+3  -2.86682E+3
   1.15603E+3   1.51431E+3
  -1.73541E+3   2.32426E+3
  -1.86276E+3  -2.68704E+3
   2.57571E+3  -1.43157E+3
   2.62879E+3   3.41959E+3
  -2.07668E+3   1.56956E+3
  -7.88978E+2  -1.87698E+3
   2.61491E+3  -3.64671E+2
   1.04316E+2   1.91431E+3
  -1.72759E+3   5.17522E+2
   3.37982E+2  -9.02609E+2
  -1.04378E+2  -1.57586E+2
  -1.43483E+3  -8.02382E+2
   8.69432E+2  -2.36750E+3
   2.16220E+3  -2.86119E+2
   7.10452E+2   1.55645E+3
  -5.15066E+2   3.63601E+2
   1.18839E+2  -2.02131E+2
   1.74829E+2   6.46401E+2
  -1.24276E+3   2.16681E+2
  -1.67507E+3  -1.35482E+3
   1.84150E+2  -1.58571E+3
   1.69152E+3  -4.10526E+2
   1.33964E+3   1.06236E+3
  -1.68873E+2   1.30461E+3
  -6.02753E+2   4.74349E+2
  -7.21151E+2   6.49999E+2
  -1.23270E+3   1.91563E+2
  -8.83265E+2  -7.24391E+2
   5.20863E+2  -8.61147E+2
   7.38410E+2   1.66759E+2
  -3.47714E+1  -2.99804E+2
   5.37292E+2  -4.77452E+2
   9.50186E+2   9.29884E+2
  -4.30505E+2   1.49252E+3
  -1.91022E+3  -4.31515E+2
  -3.33488E+2  -1.52669E+3
   7.22714E+2  -2.42746E+2
   3.58487E+2   2.09357E+2
   5.64513E+2  -6.79676E+2
   1.26869E+3   3.31011E+1
   6.87172E+2   1.58868E+3
  -6.99922E+2   1.77380E+3
  -9.93463E+2   1.75036E+2
  -9.07981E+2  -1.66183E+2
  -6.26048E+2  -3.16391E+2
  -2.10312E+2  -3.83645E+2
   5.40585E+2  -2.15896E+2
   1.07153E+2   2.03195E+2
  -4.55595E+2  -1.29183E+2
   2.53367E+2  -5.27452E+2
   7.51080E+2  -1.25950E+2
  -5.75859E+1   5.89015E+2
  -5.76355E+2   1.73010E+2
  -1.54019E+2  -4.00595E+2
   5.99210E+2  -4.54694E+2
   4.71139E+2   6.02851E+2
  -1.79459E+2   5.66681E+2
  -5.45497E+1  -4.38801E+1
   1.25720E+2  -2.27588E+2
   1.26554E+2   4.90397E+2
  -6.74683E+1   2.15964E+2
  -3.93065E+2  -2.31105E+2
  -2.37534E+2  -2.77996E+2
  -1.18212E+2   1.39254E+1
   5.96830E+1  -2.27863E+2
   3.46236E+2  -2.64272E+2
   3.10761E+2  -5.36013E+1
  -6.00762E+1  -2.83762E+2
   3.55899E+2  -2.74798E+2
   7.11888E+2   5.05886E+2
   9.70968E+0   7.77679E+2
  -5.79365E+2   2.70093E+2
  -3.02397E+2  -2.42208E+2
   4.83209E+1  -1.38158E+2
  -1.35997E+2   1.18342E+2
  -4.87279E+2   2.32495E+2
  -2.77779E+2  -4.60822E+2
   2.34346E+2  -2.54888E+2
  -5.33292E+1  -1.20456E+2
  -7.44429E+1   3.29025E+2
  -1.74840E+2  -1.10921E+2
  -1.27046E+2  -2.97775E+2
   1.43495E+2  -5.82191E+2
   5.10993E+2  -9.48886E+1
   4.51738E+2   5.53726E+2
  -4.09937E+2   5.62032E+2
  -8.34155E+2  -3.05828E+2
   2.99211E+1  -5.66233E+2
   1.71373E+2  -1.64288E+2
  -1.56105E+2  -9.38182E+1
  -1.98772E+1  -1.24391E+2
  -2.53560E+0  -2.95307E+2
   3.10114E+2   2.63963E+1
   9.35439E+1   3.74692E+2
  -1.74878E+2   4.32099E+2
  -4.99571E+2   1.69093E+2
  -3.48105E+2   3.30827E+1
  -1.32356E+2  -3.11272E+2
  -1.35722E+2  -2.96713E+2
  -7.77379E+1  -6.05845E+1
   1.89213E+2   9.39003E+1
   2.61913E+2   4.52651E+1
  -4.60127E+1   2.02012E+2
  -1.53640E+2   4.11503E+2
  -2.62647E+2   1.33966E+2
  -6.36412E+1  -3.37377E+2
   1.12409E+2  -3.04325E+2
   1.39443E+2   2.90038E+2
   3.46611E+1   2.08993E+2
  -2.13237E+2   1.78656E+1
  -1.16801E+1  -4.31345E+1
   1.29746E+1   1.44174E+2
  -1.23850E+2  -1.05556E+2
  -2.61567E+2  -4.42860E+1
  -1.68837E+2  -2.12932E+2
   7.97692E+1  -6.95740E+1
   9.66347E+1  -7.79355E+1
   1.59602E+2   2.84393E+1
  -8.28835E+1   3.63494E+1
   1.23291E+2   3.60221E+0
   1.28851E+2  -1.50603E+2
   3.33175E+2  -3.46625E+0
   2.89661E+2   1.94808E+2
   8.98575E+1  -3.48079E+2
   1.30900E+2   4.80321E+1
  -3.89836E+1   8.31928E+1
  -1.35503E+2   1.82940E+2
   1.15461E+2   5.63591E+0
   9.66949E+1  -2.40040E+2
  -1.55129E+2  -1.66930E+2
  -1.47156E+2   7.52064E+1
  -6.01525E+1   4.60316E+1
   2.03867E+2   6.43901E+1
  -5.41639E+1  -1.34308E+2
   3.06766E+1  -1.96629E+2
   7.24374E+1  -1.55980E+1
   1.57328E+2   1.72523E+2
  -8.13518E+1  -1.37712E+2
   1.09460E+2   1.74815E+2
  -1.40271E+2   1.33748E+2
  -1.02728E+2   1.08401E+2
  -8.62848E+0   1.26583E+2
  -1.71832E+2  -2.07562E+2
   1.73960E+2  -4.24231E+1
   2.17068E+2   1.64027E+2
   9.11329E+1   6.02876E+1
  -7.83239E+1   9.52524E+1
  -8.52645E+1  -1.21944E+2
  -6.63271E+1  -2.50574E+2
  -3.18029E+1  -1.63667E+2
   6.82204E+1   1.04220E+2
   1.43227E+2  -3.29776E+1
   1.77036E+1  -1.12706E+1
   1.93411E+2   8.86639E+0
   2.47833E+2  -2.25930E+2
   2.51773E+0   1.18869E+2
   1.05356E+2   6.00681E+1
   7.74899E+1   5.44759E+1
   2.35863E+2   4.66788E+1
   1.95605E+1  -2.05452E+1
   6.16786E+1  -6.03914E+1
  -7.33075E+1   2.51008E+1
   1.41788E+2  -1.57034E+2
   5.46048E+1  -1.20234E+2
  -1.38608E+2  -3.85081E+2
   9.47457E+1  -1.72454E+2
  -3.47008E+1  -8.20227E+1
  -6.60815E+0   2.89037E+1
   3.84953E+0  -1.26272E+2
  -5.50946E+1  -3.39750E+1
  -7.83917E+1   7.18464E+1
  -9.57595E+1  -1.40422E+2
  -2.49918E+1  -2.65478E+1
  -6.04079E+1  -8.34978E+1
  -1.68458E+2   3.97766E+1
  -4.88677E+1   1.49499E+2
  -1.50515E+1   1.47425E+2
   2.61829E+2  -2.60368E+2
   1.63021E+2  -1.55086E+2
   7.85842E+1  -5.74614E+1
  -7.61873E+1   1.21727E+2
  -6.41097E+1  -9.46681E+0
   3.10560E+1   6.77701E+1
  -3.72037E+1   1.73046E+1
  -1.13115E+2   2.88569E+2
   1.37501E+2   4.46592E+1
   9.00464E+1  -1.00215E+2
   1.04777E+1   1.38762E+2
  -4.81184E+1  -1.15601E+1
  -1.69762E+2   1.03408E+2
  -4.06043E+1  -1.70329E+1
  -4.44905E+1   6.48015E+0
  -9.29725E+1  -6.62642E+1
  -1.05057E+2   8.04421E+1
  -2.13921E+1  -9.55393E+1
   1.82180E+2   9.88178E+1
   3.51592E+1   6.95089E+1
   8.45053E+1   1.12945E+2
   6.48882E+1   2.17722E+2
  -5.27492E+1   1.96257E+2
  -1.78594E+2   1.16148E+2
  -1.77668E+2  -6.54607E+1
  -8.82872E+1   7.24485E+1
   9.18260E+1   7.29916E+1
   5.65435E+1  -1.53504E+1
   3.97377E+1   1.80252E+2
   2.79403E+1   1.81340E+1
  -1.71946E+2   7.49108E+1
  -2.52036E+1  -5.54355E+1
  -1.79704E+2  -7.57235E+1
  -3.20637E+2  -3.71184E+1
   1.05242E+2   2.22947E+2
   1.03122E+1  -1.27159E+2
   1.00911E+2   2.94346E+2
  -1.84084E+2   8.69005E+0
  -3.65358E+2   1.49614E+2
  -1.54721E+2  -1.00974E+2
   2.43416E+2  -2.86545E+1
   3.19858E+1   2.31226E+2
   5.70176E+1  -5.90363E+1
   6.57464E+1  -2.73048E+2
  -7.33586E+1  -7.48070E+1
  -7.85147E+0   4.34577E+1
  -5.77070E+1   2.56744E+1
   6.32145E+1  -1.39007E+2
  -1.30948E+0  -1.38675E+2
   1.31343E+2   8.67563E+1
   4.76332E+1  -4.36343E+1
  -2.26408E+2   9.51759E+1
   1.28222E+2   1.25458E+2
   1.67871E+1  -2.11432E+2
   6.02079E+1  -3.70774E+2
   4.05126E+1  -9.59162E+1
   1.76425E+2   1.93953E+2
  -5.67791E+0  -1.66920E+2
  -2.51384E+2  -1.79314E+2
   6.22086E+1   4.12424E+1
  -2.02046E+2   1.14625E+2
  -1.01382E+2  -1.50730E+2
  -9.49710E+1  -2.84901E+2
  -3.26855E+1   2.26648E+1
   3.14322E+1  -7.08821E+1
  -1.48999E+2  -5.29623E+1
   1.56548E+1   1.59930E+2
  -1.64359E+2  -7.59341E+1
  -9.60356E+1   3.39886E+1
  -1.08038E+2  -1.60316E+2
   4.83431E+1   2.16686E+2
  -8.38165E+1  -1.02670E+2
  -6.41032E+1   7.60791E+1
  -2.74265E+2   1.75348E+2
  -5.47081E+1  -2.84761E+1
  -1.80674E+2  -1.11461E+2
  -3.45036E+2  -1.37976E+2
  -6.70152E+1  -8.13192E+0
   2.32740E+2   1.00774E+2
  -6.25467E+1   2.00286E+2
  -8.25793E+1  -1.19099E+2
  -5.02628E+1  -8.03562E+1
   6.79330E+1   3.20593E+1
  -9.04929E+1   1.32307E+2
  -2.00030E+2   1.80524E+1
  -9.13586E+0  -1.66429E+2
   1.30756E+1  -7.07027E+1
   4.20761E+1  -1.16888E+2
   7.96920E+0  -1.46222E+2
  -1.48995E+2   8.89349E+1
   1.27025E+2   6.12851E+1
   1.60069E+2   7.31601E+1
  -8.81438E+1   5.19177E+0
  -1.14903E+2   4.78350E+1
   3.69149E+2  -3.13420E+1
  -2.50648E+1   1.97070E+2
   8.64665E+1   1.27621E+2
  -4.92440E+1  -6.56711E+1
   5.02167E+1   6.97994E+1
  -1.35859E+2   2.08722E+1
  -1.31421E+2   6.67692E+1
   2.25546E+2   1.18144E+2
   8.41168E+1   8.44885E+1
  -2.21507E+2   2.79741E+1
  -2.37730E+1   1.40137E+2
   9.32172E+1   2.98345E+1
  -1.33312E+2   4.06958E+1
   1.58926E+2   1.93245E+2
   1.94465E+2   1.66650E+2
   1.85355E+2   7.14125E+1
  -1.47722E+1  -1.07317E+2
   5.68444E+1  -9.24017E+1
  -8.45141E+1   2.84043E+2
  -2.21709E+1  -1.49030E+2
   1.82719E+2   2.57715E+2
   2.31019E+1   7.62503E+1
  -1.09032E+2   9.71628E+1
  -7.43868E+1  -3.42411E+1
  -6.52103E+1  -9.17780E+1
   3.76099E+1  -1.03000E+2
   3.97042E+1  -1.68849E+1
  -5.38268E+1   7.71796E+1
   1.77925E+2   1.41269E+1
   2.35688E+1  -9.34720E+0
   1.32757E+2  -1.87566E+1
   9.20315E+1   2.17828E+2
   1.34261E+2  -8.60665E+0
  -2.72570E+2   1.20794E+2
   8.83038E+1  -1.05054E+2
   6.69130E+1   1.33448E+2
   1.95968E+2  -6.99252E+1
   8.12916E+1  -1.47585E+2
   1.43658E+2   7.37876E+1
  -7.14818E+0   2.00752E+1
   8.04913E+1   1.10063E+2
   2.52350E+2   2.20073E+2
   1.25483E+1  -6.07103E+1
   3.17917E+1  -6.61538E+1
  -6.70336E+1  -2.39329E+2
   1.43889E+2  -2.06926E+2
   1.14686E+2  -5.04479E+1
  -6.62067E+1   2.12132E+1
  -2.20649E+2   4.24159E+1
  -8.15451E+1   9.70828E+1
   1.50867E+2  -6.84245E+0
  -2.95974E+2  -2.75877E+1
  -1.59849E+2   1.52162E+1
   6.23622E+1   6.51587E+1
   1.50486E+2  -1.63103E+2
   2.12388E+2  -9.92576E+1
   9.02578E+1   8.55028E+1
  -1.43316E+2  -1.56067E+2
  -2.41165E+2   9.19061E+1
  -2.58482E+2   9.25194E+1
  -1.72683E+2   1.02656E+2
   3.09324E+1   8.08658E+1
  -1.78681E+1  -1.44605E+2
   1.14675E+1   7.37842E+1
   1.99893E+2  -2.80646E+1
  -1.64954E+1   1.36235E+2
  -1.22757E+2  -8.00506E+1
  -1.76420E+2  -1.14699E+2
   8.59480E+1  -1.07270E+2
   1.08272E+2  -2.29249E+2
   1.12554E+2   9.75091E+1
  -1.34185E+2   1.70296E+2
