 
 $NMID
 ID=''
 FMTDAT='(2E13.5)'
 TRAMP=   1.00000E+0
 VOLUME=   1.00000E+0
 $END
  -7.99277E+3  -2.31177E+4
  -2.65195E+4  -6.56147E+3
   5.70484E+2   2.71686E+4
   2.74809E+4   3.74363E+3
  -7.55864E+3  -2.18451E+4
  -1.84909E+4   5.29822E+3
   1.57031E+4   1.34936E+4
   9.48180E+3  -1.04631E+4
  -1.31436E+4  -2.79301E+3
   4.51248E+2   1.18593E+4
   5.72387E+3  -1.78784E+3
  -7.23025E+3  -6.65863E+3
  -2.68810E+3   2.80966E+3
   2.19327E+3   1.25085E+3
  -2.86736E+3  -2.95049E+3
   7.07129E+2  -2.11410E+3
   2.89928E+3  -1.80896E+2
  -1.74251E+3   1.95291E+3
  -4.71935E+2   1.19452E+3
   1.03596E+3  -1.72011E+3
  -4.52774E+2  -7.82383E+2
   1.64967E+3   2.83026E+2
   1.05952E+3   2.79112E+2
  -2.00304E+3   6.01079E+2
   1.52426E+2  -1.11074E+3
   2.81394E+3  -1.12154E+3
   3.68948E+2   2.95613E+3
  -2.20831E+3   8.37415E+2
  -6.15144E+2  -2.82904E+3
   1.39318E+3   3.00552E+2
   3.85370E+2   2.28358E+3
  -1.49109E+3  -5.91688E+2
  -1.00810E+3  -1.79457E+3
   1.49672E+2  -1.14075E+3
   8.14587E+2  -1.71186E+3
   1.74147E+3  -4.47246E+2
   1.49567E+3   1.99521E+3
  -9.90749E+2   1.24499E+3
  -1.31417E+3  -8.42019E+2
  -1.81219E+2  -3.39126E+2
  -3.55072E+2   2.17108E+2
  -4.38352E+2  -1.19760E+3
   1.18683E+3  -1.15608E+3
   1.98207E+3   1.82680E+2
   1.30159E+3   1.12212E+3
   2.37477E+2   1.30461E+3
  -1.42396E+3   1.80868E+3
  -1.79110E+3   8.13456E+1
  -6.91823E+2  -1.93598E+3
   4.64485E+2  -1.41384E+3
   4.70953E+2   1.10703E+2
   7.28881E+2  -5.29058E+2
   7.77370E+2  -2.16217E+2
   2.44249E+2   8.83149E+2
   3.75718E+2   5.18817E+2
  -4.55847E+2   3.10696E-1
  -1.14754E+3  -4.62378E+2
  -2.17568E+2  -1.04354E+3
   1.60209E+3  -8.97156E+2
   1.85105E+3   3.12232E+2
   5.25966E+2   1.06721E+3
   2.32231E+2   8.60120E+2
  -1.74467E+2   1.30060E+3
  -1.46991E+3   9.31813E+2
  -1.92498E+3  -6.03391E+2
  -5.59908E+2  -1.85201E+3
   9.06347E+2  -1.78324E+3
   1.39817E+3  -1.00988E+3
   9.00375E+2   5.87155E+2
   4.29871E+1   8.00053E+2
  -1.02899E+2  -2.56148E+2
   8.55703E+2  -8.08522E+2
   9.95081E+2   1.91692E+2
  -5.35858E+1   1.15616E+3
  -7.38476E+2   2.27945E+2
  -2.62205E+2  -2.83057E+2
   2.18945E+2   5.91565E+1
  -3.99251E+2   5.73949E+2
  -3.32257E+2   5.65683E+1
  -4.94245E+2  -4.88987E+2
  -4.47621E+2  -6.21391E+2
  -1.10528E+2  -7.15073E+2
   2.52933E+2   8.62494E+0
  -1.25273E+2  -1.37540E+2
   4.42190E+1  -4.68698E+2
   7.88738E+2  -4.46862E+2
   8.32310E+2   3.11080E+2
   2.68271E+2   7.88295E+2
  -2.12323E+2   1.11446E+2
   3.07893E+2   9.59922E+1
   5.15188E+2   5.85726E+2
  -3.44772E+2   8.29186E+2
  -1.30676E+3   6.11003E+2
  -1.24037E+3  -8.42246E+1
  -3.50034E+2  -1.22385E+3
   6.44417E+2  -9.61943E+2
   7.61777E+2   1.19081E+2
  -1.68955E+1   2.95183E+2
   8.48223E+1  -1.90804E+2
   8.52495E+2   3.82932E+1
   5.66926E+2   1.00475E+3
  -6.92837E+2   1.12654E+3
  -1.14614E+3   5.20123E+1
  -2.13992E+2  -8.32483E+2
   6.67056E+2  -5.01215E+2
   6.77327E+2   4.46582E+2
  -2.14272E+2   5.41560E+2
  -9.35952E+2  -1.69441E+2
  -5.10367E+1  -1.09110E+3
   1.03587E+3  -7.04363E+2
   1.49238E+3   4.41591E+2
   5.05720E+2   1.12036E+3
  -1.16048E+2   6.15905E+2
   7.41566E+1   2.53898E+1
  -2.15873E+2   2.12489E+2
  -5.97412E+2   2.64924E+2
  -7.04737E+2  -7.62555E+1
  -6.77057E+2  -1.04811E+3
   2.86259E+2  -1.44913E+3
   1.29208E+3  -7.29022E+2
   8.15071E+2   4.19207E+2
   3.47444E+2   4.15422E+2
   1.76793E+2   6.69322E+2
  -3.06716E+2   3.78846E+2
  -5.37534E+2   2.06591E+2
  -5.48810E+2  -2.42258E+2
   2.19107E+2  -2.86693E+2
   4.64744E+2  -2.51277E+2
   1.57148E+2   1.04641E+2
  -4.93841E+1   4.17950E+2
  -4.39279E+2   3.14690E+2
  -7.45993E+2  -5.57736E+2
  -5.55989E+1  -7.08595E+2
   2.52690E+2  -1.92086E+2
  -3.32920E+2   1.45915E+2
  -2.99135E+2  -5.82170E+2
   4.25324E+2  -1.05455E+2
   5.35858E+2   2.42340E+2
   9.66908E+1   5.90390E+2
  -6.98112E+2   1.78610E+1
  -3.76292E+2  -5.33589E+2
   1.49651E+2  -6.65314E+2
   8.73474E+2   1.23730E+2
   2.95349E+1   8.65314E+2
  -6.50130E+2   7.84871E+2
  -9.73727E+2  -5.48095E+1
  -4.76221E+2  -3.32109E+2
  -1.53547E+2  -1.89184E+2
  -2.11811E+2  -3.10551E+2
  -2.45413E+2  -4.29063E+2
   1.95626E+2  -5.16993E+2
   9.01003E+2  -2.86689E+2
   5.54942E+2   3.96416E+2
   5.41997E+1   6.39425E+2
  -6.69476E+2   2.66286E+2
  -9.05254E+1  -1.61835E+2
   2.44475E+2   1.69397E+2
  -1.13929E+2   4.19253E+2
  -3.35302E+2   1.53254E+2
  -8.90152E+0  -1.12252E+2
  -1.95358E+2   2.05627E+2
  -4.99853E+2   3.59725E+2
  -3.55442E+2  -1.08861E+2
  -7.59236E+1  -5.32724E+2
   1.70420E+2  -5.29121E+2
   4.23714E+2  -2.82667E+2
   3.89920E+2   3.96638E+2
  -3.60534E+2   2.52274E+2
  -2.82944E+2  -2.64612E+1
   2.19017E+2  -1.41663E+2
   4.33526E+2   2.48704E+2
   9.39169E+1   2.00388E+2
  -3.30174E+2   3.17382E+2
  -7.13756E+1   6.50396E+1
   2.66687E+2  -1.64763E+1
   1.95675E+2   4.81882E+1
  -4.61051E+2   5.27305E+2
  -4.89487E+2  -1.24335E+2
   2.06401E+2  -5.25020E+2
   7.42636E+2  -5.47140E+1
   1.36544E+2   4.77305E+2
  -3.35170E+2   6.76810E+2
  -4.01332E+2  -1.11384E+2
  -2.23010E+2  -4.20436E+2
   1.04206E+2  -2.92221E+2
   2.59666E+1  -2.27895E+2
   9.69861E+1  -4.54450E+2
   2.40913E+2  -2.84300E+2
   6.18881E+2   4.37229E+1
   4.76460E+2   6.37405E+2
  -4.52907E+2   6.88232E+2
  -8.79742E+2   1.01545E+2
  -6.38342E+2  -3.66150E+2
   1.11397E+2  -5.23383E+2
   2.67072E+2  -1.01981E+2
   2.02353E+2   1.13076E+2
  -1.63882E+2  -2.71533E+1
  -1.47759E+2   2.80835E+2
  -6.40307E+1   3.29480E+2
  -5.53834E+2   1.10547E+2
  -4.16996E+2  -2.87661E+2
  -1.28321E+1  -6.10057E+2
   2.38239E+2  -5.83215E+2
   2.98634E+2   8.55308E+1
  -1.55753E+2   2.34344E+2
  -1.67090E+2  -1.22704E+2
  -3.54339E+0  -1.38848E+2
   5.87681E+1  -1.45964E+2
   7.79385E+1   2.44513E+1
  -3.08027E+1   1.95105E+2
  -2.78578E+2  -3.19836E+2
   2.42346E+2  -8.34219E+1
   3.05349E+2   4.51521E+2
  -3.67222E+2   5.72486E+2
  -9.79601E+2   1.93719E+2
  -4.65127E+2  -2.41072E+2
   6.16259E+1  -4.65984E+2
   4.11914E+2  -1.51992E+2
   3.29555E+2   6.56232E+1
   8.68828E+1  -1.73250E+1
   1.06674E+2  -5.52197E+1
   2.68868E+2   1.62068E+2
  -8.11981E+0   5.23527E+2
  -5.22843E+2   2.56118E+2
  -5.26074E+2  -2.57067E+2
  -6.65269E+1  -4.04249E+2
   1.91904E+2  -7.67966E+1
  -4.59516E+1   5.82014E+2
  -3.27867E+2   3.39687E+2
  -4.38291E+2  -1.84226E+2
  -2.39634E+2  -3.88880E+2
   3.73251E+1   2.36958E+1
  -8.07166E+1  -6.07982E+1
  -2.52348E+1  -1.34030E+2
   5.19029E+1  -1.67836E+2
   1.39703E+2  -1.39043E+2
   1.35526E+2   3.18529E+2
  -6.19810E+1   3.32363E+2
  -5.95679E+1  -1.62014E+2
   4.17154E+1  -1.73548E+2
   3.49333E+2  -5.28414E+0
  -4.46739E+1   3.81042E+2
  -1.97786E+2   2.57059E+2
  -4.11267E+2  -2.20216E+2
   1.97553E+2  -5.49262E+2
   1.58153E+2   4.89870E+1
  -5.43643E+1   2.07533E+2
  -4.06757E+2  -2.48891E+2
   5.82982E+1  -4.17929E+2
   3.73129E+2  -6.21545E+1
   1.28120E+2   2.19444E+2
  -2.63962E+2   2.03364E+2
  -3.40297E+2  -1.93856E+2
  -5.97703E+1  -4.64859E+2
   5.42212E+2  -1.34183E+2
   3.12420E+2   4.08035E+2
   1.54960E+2   2.76844E+2
  -1.56092E+2   4.18763E+1
  -1.25835E+2  -3.96884E+1
  -1.55068E+2   2.49290E+2
  -4.76629E+2   3.96417E+1
  -4.03871E+2  -1.67700E+2
   5.76251E+1  -5.61234E+2
   5.77085E+2  -2.59834E+2
   4.49068E+2   2.88391E+2
   4.65279E+1   3.17061E+2
  -5.17211E+2   1.15005E+2
  -2.51453E+2  -3.37234E+2
   1.82098E+2  -2.79249E+2
  -4.34614E+1  -8.11371E+1
  -2.39905E+2  -1.39357E+1
   3.17154E+1   3.55569E+1
   2.05531E+2  -1.34237E+2
   1.46717E+2   2.39760E+2
  -2.05137E+2   3.25352E+2
  -4.62998E+2   1.24052E+2
  -4.85151E+1  -4.49005E+2
   1.76097E+2  -2.56415E+2
   3.18902E+2   2.34319E+1
  -2.82648E+2   5.55251E+1
  -1.10842E+2  -1.95461E+2
  -1.59964E+2  -1.35598E+2
  -1.26880E+2   1.72404E+1
  -1.76003E+2   3.14617E+2
  -4.26680E+2   1.04405E+2
  -2.93935E+2  -3.57700E+2
   3.50378E+2  -3.53282E+2
   4.52933E+2   1.49557E+2
   1.36813E+2   2.73585E+2
  -1.13645E+2   4.34056E+2
  -2.05404E+2  -1.42821E+2
  -1.74597E+2  -2.44879E+2
  -3.63513E+2  -1.87627E+2
  -1.29186E+2   1.00388E+2
  -1.04674E+2  -2.54273E+2
   4.33267E+1  -9.86207E+1
  -3.60566E+1  -8.64568E+1
   8.40606E+0   2.94800E+2
  -3.81622E+2   1.03139E+2
  -2.30053E+2   1.12384E+1
   5.23976E+1  -2.23141E+2
   1.98437E+2   7.84274E+1
   8.00434E+1   3.95323E+2
  -3.38852E+2   1.34210E+2
  -1.68569E+2  -1.47443E+2
   1.77991E+1  -1.13337E+2
   1.74115E+2  -4.95460E+1
   6.39434E+1   2.18780E+2
  -1.16538E+2  -3.96061E+1
   1.58993E+2  -1.74650E+2
   3.27786E+2   1.50588E+2
   7.98389E-1   1.86047E+2
  -1.79790E+2   2.20701E+2
  -2.64403E+2   1.60092E+2
  -1.43840E+2  -1.46055E+2
   2.60558E+2  -6.24675E+0
   2.42282E+2   2.32098E+2
  -1.17416E+2   2.58699E+2
  -5.90319E+1  -1.20023E+2
   1.05113E+2  -1.41375E+2
   1.18526E+2   5.18322E+1
  -9.77184E+1   1.88127E+2
  -3.43767E+2  -3.99372E+1
   1.83023E+2  -4.34358E+2
   2.14073E+2  -2.10529E+2
   1.35954E+2   4.03278E+2
  -4.71808E+2   5.08864E+2
  -3.18114E+2  -1.65124E+2
   6.69544E+0  -4.33069E+2
   1.42152E+2  -2.20076E+2
  -3.83146E+1   3.21690E+1
   1.43471E+2   7.34350E+1
  -1.26414E+1  -2.28285E+1
  -7.25068E+1   2.69185E+2
   5.25378E+0   3.92449E+2
  -2.18352E+2   3.30454E+2
  -1.60082E+2  -3.85226E+1
  -1.44679E+2  -4.49901E+2
  -3.46529E+1  -3.16615E+2
   2.56046E+2   1.64520E+2
  -2.43410E+1   2.80357E+2
  -3.63989E+2   1.28826E+2
   8.59326E+1  -1.88062E-1
  -1.45072E+2  -5.47806E+1
   9.85231E+1   1.93032E+2
  -4.46695E+1   1.33432E+2
   2.24654E+1  -2.70893E+2
   1.57746E+2  -7.75550E+1
   1.60926E+2   3.24807E+2
  -7.24352E-1   2.23346E+2
  -4.43521E+2  -6.64302E+1
  -2.65836E+2  -4.21866E+1
   1.17451E+2   5.39968E+1
   1.05963E+1  -1.74753E+2
   1.43210E+1  -5.71601E+1
  -1.30614E+2  -1.04526E+1
   3.04048E+2   9.30018E+0
   9.51299E+1   2.41718E+2
  -2.45823E+2   2.25187E+2
  -2.83838E+2   5.58573E+0
  -3.65942E+2  -2.91040E+2
  -1.60807E+2  -1.87282E+2
   3.35241E+2  -1.33686E+2
   3.01321E+2   3.38253E+2
  -1.62977E+2   1.12785E+2
  -1.23571E+2   7.62466E+1
  -1.09158E+2  -1.28382E+2
