 LCModel (Version 6.3-1N) Copyright: S.W. Provencher.          Ref.: Magn. Reson. Med. 30:672-679 (1993).                
 Slice_N1@10_14  28-Feb-2025 11:37:04
 27 lines in following concentration table = NCONC+1
    Conc.  %SD /Cr+PCr  Metabolite                                         
 2.68E-04   5% 2.9E-04 Mac                                                 
    3.112  33%   3.411 Cr                                                  
    4.187  24%   4.589 PCr                                                 
    6.506  13%   7.131 Ins                                                 
    8.946   8%   9.806 NAA                                                 
    5.938  14%   6.508 Tau                                                 
    0.404 188%   0.443 PCho                                                
    1.427  50%   1.564 GPC                                                 
    9.420  11%  10.325 Glu                                                 
    4.840  17%   5.304 Gln                                                 
    1.459  43%   1.599 Ala                                                 
    2.074  55%   2.273 Asc                                                 
    1.462  62%   1.602 Asp                                                 
    0.342 141%   0.375 GABA                                                
    0.618  99%   0.677 Glc                                                 
    1.223  39%   1.341 GSH                                                 
    0.000 999%   0.000 Lac                                                 
    2.006  25%   2.198 NAAG                                                
    0.900 121%   0.986 PE                                                  
    1.831  16%   2.007 GPC+PCho                                            
   10.952   8%  12.004 NAA+NAAG                                            
   14.260   9%  15.629 Glu+Gln                                             
    7.299  10%   8.000 Cr+PCr                                              
   10.952   8%  12.004 NAA+NAAG                                            
    7.299  10%   8.000 Cr+PCr                                              
   14.260   9%  15.629 Glu+Gln                                             
   6 lines in following misc. output table
  FWHM = 0.024 ppm    S/N =   4                                            
  Data shift = 0.024 ppm                                                   
  Ph:-161 deg       0.0 deg/ppm                                            
  alphaB,S = 1.5E-01,   5.9E+00                                            
   19 spline knots.   Ns = 5(1)                                            
  ( 3) 2 infls.   ( 2) 2 extrs.                                            
  480 points on ppm-axis = NY
      4.100000     4.091866     4.083733     4.075600     4.067466     4.059333     4.051199     4.043066     4.034933     4.026799
      4.018666     4.010532     4.002399     3.994265     3.986132     3.977998     3.969864     3.961731     3.953597     3.945463
      3.937330     3.929196     3.921062     3.912929     3.904795     3.896662     3.888528     3.880394     3.872261     3.864127
      3.855993     3.847860     3.839726     3.831592     3.823459     3.815325     3.807191     3.799058     3.790924     3.782790
      3.774657     3.766523     3.758389     3.750256     3.742122     3.733989     3.725855     3.717721     3.709588     3.701454
      3.693320     3.685187     3.677053     3.668919     3.660786     3.652652     3.644518     3.636385     3.628251     3.620117
      3.611984     3.603850     3.595716     3.587583     3.579449     3.571316     3.563182     3.555048     3.546915     3.538781
      3.530647     3.522514     3.514380     3.506246     3.498113     3.489979     3.481845     3.473712     3.465578     3.457444
      3.449311     3.441177     3.433043     3.424910     3.416776     3.408643     3.400509     3.392375     3.384242     3.376108
      3.367974     3.359841     3.351707     3.343573     3.335440     3.327306     3.319172     3.311039     3.302905     3.294771
      3.286638     3.278504     3.270370     3.262237     3.254103     3.245970     3.237836     3.229702     3.221569     3.213435
      3.205301     3.197168     3.189034     3.180900     3.172767     3.164633     3.156499     3.148366     3.140232     3.132098
      3.123965     3.115831     3.107697     3.099564     3.091430     3.083297     3.075163     3.067029     3.058896     3.050762
      3.042628     3.034495     3.026361     3.018227     3.010094     3.001960     2.993826     2.985693     2.977559     2.969425
      2.961292     2.953158     2.945024     2.936891     2.928757     2.920624     2.912490     2.904356     2.896223     2.888089
      2.879955     2.871822     2.863688     2.855554     2.847421     2.839287     2.831153     2.823020     2.814886     2.806752
      2.798619     2.790485     2.782351     2.774218     2.766084     2.757951     2.749817     2.741683     2.733550     2.725416
      2.717282     2.709149     2.701015     2.692881     2.684748     2.676614     2.668480     2.660347     2.652213     2.644079
      2.635946     2.627812     2.619678     2.611545     2.603411     2.595278     2.587144     2.579010     2.570877     2.562743
      2.554609     2.546476     2.538342     2.530208     2.522075     2.513941     2.505807     2.497674     2.489540     2.481406
      2.473273     2.465139     2.457006     2.448872     2.440738     2.432605     2.424471     2.416337     2.408204     2.400070
      2.391936     2.383803     2.375669     2.367535     2.359402     2.351268     2.343134     2.335001     2.326867     2.318733
      2.310600     2.302466     2.294333     2.286199     2.278065     2.269932     2.261798     2.253664     2.245531     2.237397
      2.229263     2.221130     2.212996     2.204862     2.196729     2.188595     2.180461     2.172328     2.164194     2.156060
      2.147927     2.139793     2.131660     2.123526     2.115392     2.107259     2.099125     2.090991     2.082858     2.074724
      2.066590     2.058457     2.050323     2.042189     2.034056     2.025922     2.017788     2.009655     2.001521     1.993387
      1.985254     1.977120     1.968987     1.960853     1.952719     1.944586     1.936452     1.928318     1.920185     1.912051
      1.903917     1.895784     1.887650     1.879516     1.871383     1.863249     1.855115     1.846982     1.838848     1.830714
      1.822581     1.814447     1.806314     1.798180     1.790046     1.781913     1.773779     1.765645     1.757512     1.749378
      1.741244     1.733111     1.724977     1.716843     1.708710     1.700576     1.692442     1.684309     1.676175     1.668041
      1.659908     1.651774     1.643641     1.635507     1.627373     1.619240     1.611106     1.602972     1.594839     1.586705
      1.578571     1.570438     1.562304     1.554170     1.546037     1.537903     1.529769     1.521636     1.513502     1.505368
      1.497235     1.489101     1.480968     1.472834     1.464700     1.456567     1.448433     1.440299     1.432166     1.424032
      1.415898     1.407765     1.399631     1.391497     1.383364     1.375230     1.367096     1.358963     1.350829     1.342695
      1.334562     1.326428     1.318295     1.310161     1.302027     1.293894     1.285760     1.277626     1.269493     1.261359
      1.253225     1.245092     1.236958     1.228824     1.220691     1.212557     1.204423     1.196290     1.188156     1.180022
      1.171889     1.163755     1.155622     1.147488     1.139354     1.131221     1.123087     1.114953     1.106820     1.098686
      1.090552     1.082419     1.074285     1.066151     1.058018     1.049884     1.041750     1.033617     1.025483     1.017349
      1.009216     1.001082     0.992949     0.984815     0.976681     0.968548     0.960414     0.952280     0.944147     0.936013
      0.927879     0.919746     0.911612     0.903478     0.895345     0.887211     0.879077     0.870944     0.862810     0.854676
      0.846543     0.838409     0.830276     0.822142     0.814008     0.805875     0.797741     0.789607     0.781474     0.773340
      0.765206     0.757073     0.748939     0.740805     0.732672     0.724538     0.716404     0.708271     0.700137     0.692003
      0.683870     0.675736     0.667603     0.659469     0.651335     0.643202     0.635068     0.626934     0.618801     0.610667
      0.602533     0.594400     0.586266     0.578132     0.569999     0.561865     0.553731     0.545598     0.537464     0.529330
      0.521197     0.513063     0.504930     0.496796     0.488662     0.480529     0.472395     0.464261     0.456128     0.447994
      0.439861     0.431727     0.423593     0.415460     0.407326     0.399192     0.391059     0.382925     0.374792     0.366658
      0.358524     0.350391     0.342257     0.334124     0.325990     0.317856     0.309723     0.301589     0.293455     0.285322
      0.277188     0.269055     0.260921     0.252787     0.244654     0.236520     0.228386     0.220253     0.212119     0.203986
 NY phased data points follow
   1.29665E+02  1.15325E+02  1.28023E+02  1.28835E+02  9.97747E+01  1.18730E+02  1.42749E+02  1.25171E+02  1.19936E+02  1.35341E+02
   1.16174E+02  8.88321E+01  9.61652E+01  1.04540E+02  9.63767E+01  9.87093E+01  1.01532E+02  5.75608E+01  6.75874E+01  6.49374E+01
   2.57755E+01  6.35100E+01  5.70643E+01  8.11928E+01  1.28275E+02  1.28781E+02  1.57924E+02  1.37483E+02  1.31258E+02  1.43231E+02
   1.30214E+02  1.45081E+02  1.29938E+02  1.24894E+02  1.37648E+02  1.38181E+02  1.50148E+02  1.35455E+02  1.18625E+02  8.39912E+01
   5.03275E+01  5.70900E+01  4.97702E+01  4.57110E+01  6.53013E+01  1.07755E+02  1.28075E+02  1.36730E+02  1.62640E+02  1.47291E+02
   1.34220E+02  1.42134E+02  1.28402E+02  1.09385E+02  1.15871E+02  1.11378E+02  1.01886E+02  1.11218E+02  7.21349E+01  7.28098E+01
   9.45085E+01  7.64819E+01  1.17538E+02  1.21650E+02  1.15802E+02  1.40495E+02  1.30951E+02  1.28172E+02  1.02478E+02  7.52885E+01
   5.79433E+01  7.98351E+01  9.08536E+01  7.25942E+01  1.28461E+02  1.40160E+02  1.21752E+02  1.47568E+02  1.52288E+02  1.38620E+02
   1.40706E+02  1.31930E+02  1.24950E+02  1.19325E+02  6.88213E+01  7.86402E+01  8.88515E+01  8.67673E+01  1.26487E+02  1.28596E+02
   1.28223E+02  1.22737E+02  1.44410E+02  1.59831E+02  1.63017E+02  1.90898E+02  1.79942E+02  1.69828E+02  1.74890E+02  1.65655E+02
   1.62805E+02  1.70169E+02  1.48213E+02  1.54951E+02  1.50061E+02  9.72789E+01  1.17584E+02  1.19546E+02  9.03061E+01  4.84190E+01
  -4.16029E+01 -4.66392E+01 -1.72331E+01 -5.89375E+00  1.19828E+01  1.59682E+01  5.07474E+01  5.39901E+01  5.47981E+01  6.62105E+01
   6.18589E+01  8.11478E+01  7.54631E+01  9.49840E+01  1.05086E+02  1.10011E+02  1.26834E+02  1.25537E+02  1.59828E+02  1.85187E+02
   2.42310E+02  2.64427E+02  1.63130E+02  4.47232E+01  9.85659E+00  1.12328E+01 -2.82672E+00  3.61728E+01  3.92585E+01  1.58477E+01
   3.92157E+01  2.70259E+01  2.34319E+01  4.43895E+01  1.63827E+01  1.84897E+01  4.21499E+01  2.03187E+01  2.43864E+01  3.51301E+01
   3.00500E+01  3.19895E+01  3.06785E+01  3.52710E+01  5.77722E+01  4.90122E+01  5.39151E+01  5.95575E+01  2.55890E+01  6.35904E+01
   6.32054E+01  4.96542E+01  6.86203E+01  5.33464E+01  4.25092E+01  3.55839E+01  6.24755E+01  3.61657E+01  3.03129E+01  5.77663E+01
   5.46990E+01  7.44886E+01  8.42180E+01  1.03802E+02  8.28988E+01  6.81922E+01  8.64967E+01  9.79223E+01  9.17124E+01  6.19764E+01
   6.65951E+01  5.51385E+01  2.64818E+01  1.71546E+01  4.02177E+01  4.37289E+01  2.92140E+01  5.26668E+01  4.91933E+01  4.26353E+01
   3.14921E+01  3.25492E+01  5.02405E+01  4.36388E+01  6.51177E+01  5.63145E+01  4.36021E+01  5.19887E+01  4.91425E+01  5.75395E+01
   3.66591E+01  4.83285E+01  6.81178E+01  7.22918E+01  8.38166E+01  7.75497E+01  8.38609E+01  6.47124E+01  5.08238E+01  3.54989E+01
   1.84834E+01  2.45533E+01  1.15848E+01  2.37845E+01  5.80885E+01  8.42345E+01  1.08754E+02  1.18289E+02  1.21828E+02  1.26497E+02
   8.15142E+01  5.68369E+01  6.80253E+01  6.47333E+01  8.11296E+01  6.48842E+01  5.48585E+01  6.33693E+01  6.97400E+01  6.71088E+01
   4.94021E+01  4.55839E+01  3.76021E+01  4.51692E+01  3.30703E+01  2.87488E+01  2.66880E+01 -6.32657E-01  9.98853E-01 -8.17984E+00
  -2.08331E+01 -7.23404E+00  6.93029E+00  1.60838E+01  3.06255E+01  4.20655E+01  5.22906E+01  6.16483E+01  5.25288E+01  2.47723E+01
   2.42360E+01  2.22108E+01  1.19356E+01  2.22136E+01  6.64868E+00 -1.01382E+01 -8.50259E+01 -3.81082E+01  1.47630E+02  1.75765E+02
   1.90819E+02  2.15132E+02  2.03962E+02  1.79930E+02  1.45888E+02  1.47279E+02  1.20159E+02  1.43229E+02  1.42990E+02  1.16145E+02
   1.35906E+02  1.33619E+02  1.31156E+02  1.13991E+02  1.31465E+02  1.26843E+02  1.13059E+02  1.21069E+02  1.05617E+02  1.35491E+02
   1.29108E+02  1.26716E+02  1.21456E+02  1.06609E+02  1.38451E+02  1.25381E+02  1.17402E+02  1.14777E+02  1.20154E+02  1.16847E+02
   9.47671E+01  9.27494E+01  8.30246E+01  9.10730E+01  8.34993E+01  6.68678E+01  6.97011E+01  5.08236E+01  3.87676E+01  6.38499E+01
   4.97998E+01  4.61618E+01  5.28417E+01  2.85742E+01  4.32172E+01  4.98882E+01  6.19487E+01  4.04164E+01  4.48010E+01  6.16009E+01
   3.82912E+01  6.26223E+01  4.86208E+01  6.87451E+01  8.57126E+01  7.09395E+01  8.58508E+01  9.65523E+01  1.00370E+02  8.17905E+01
   8.83529E+01  5.48953E+01  2.78489E+01  3.92438E+01  3.53025E+01  3.48264E+01  4.43530E+01  4.68373E+01  4.04992E+01  6.74897E+01
   5.47366E+01  3.67124E+01  2.93096E+01  1.81530E+01  1.52964E+01  3.27631E+00  1.20965E+01  9.37284E+00  1.56737E+01  3.29823E+01
   5.08466E+01  4.31765E+01  5.24906E+01  5.94069E+01  3.99365E+01  8.43066E+01  1.05758E+02  9.99981E+01  1.05757E+02  1.16643E+02
   1.01407E+02  8.54966E+01  9.03991E+01  7.43870E+01  9.86943E+01  1.00346E+02  8.84712E+01  8.53002E+01  6.49710E+01  8.07350E+01
   8.55519E+01  7.05606E+01  6.77661E+01  6.40790E+01  6.84361E+01  6.93398E+01  6.44092E+01  8.53159E+01  7.43833E+01  7.31051E+01
   8.62846E+01  8.29823E+01  1.07294E+02  9.59144E+01  1.00246E+02  1.01418E+02  1.05665E+02  1.24256E+02  1.04969E+02  1.18681E+02
   1.17294E+02  1.17442E+02  1.33928E+02  1.39395E+02  1.48452E+02  1.59036E+02  1.66977E+02  1.81270E+02  2.07883E+02  2.09148E+02
   2.23273E+02  2.05216E+02  1.78387E+02  1.69779E+02  1.42037E+02  1.41190E+02  1.30327E+02  1.27621E+02  1.35163E+02  1.18407E+02
   9.12300E+01  9.76301E+01  9.03079E+01  6.30475E+01  7.19136E+01  5.39516E+01  6.15513E+01  6.39205E+01  3.83495E+01  4.36066E+01
   4.86022E+01  4.60149E+01  4.07309E+01  5.33686E+01  4.03585E+01  3.18269E+01  4.28358E+01  3.20751E+01  4.62600E+01  5.97266E+01
   5.33941E+01  4.66711E+01  3.02595E+01  2.81880E+01  3.89657E+01  3.06702E+01  2.59110E+01  3.95693E+01  4.92231E+01  4.35269E+01
   2.90591E+01  2.68009E+01  4.27712E+01  4.47140E+01  3.27609E+01  2.57999E+01  3.60742E+01  4.06615E+01  3.77905E+01  5.38714E+01
   2.97040E+01  3.54077E+01  4.46214E+01  3.09310E+01  5.79470E+01  3.89804E+01  3.08495E+01  2.61118E+01  4.15507E+01  5.65654E+01
   2.84902E+01  4.35262E+01  5.34342E+01  5.17640E+01  3.48124E+01  3.68366E+01  3.74521E+01  3.81235E+01  4.73845E+01  3.24317E+01
   4.34279E+01  2.49867E+01  1.52644E+01  3.24391E+01  3.68772E+01  3.38631E+01  3.40461E+01  3.61117E+01  3.28842E+01  4.86877E+01
   5.02384E+01  4.01399E+01  2.82678E+01  2.83453E+01  3.17616E+01  2.96605E+01  2.87127E+01  2.75596E+01  2.75484E+01  1.97561E+01
 NY points of the fit to the data follow
   1.23632E+02  1.13923E+02  1.01055E+02  8.94390E+01  8.96680E+01  1.07247E+02  1.27131E+02  1.33262E+02  1.28221E+02  1.19943E+02
   1.10968E+02  1.04135E+02  1.01152E+02  1.00512E+02  1.00220E+02  1.00052E+02  9.64059E+01  8.86311E+01  7.51393E+01  5.04880E+01
   3.01303E+01  3.90517E+01  6.31734E+01  8.69488E+01  1.15794E+02  1.36114E+02  1.39799E+02  1.44059E+02  1.47248E+02  1.47240E+02
   1.47316E+02  1.46822E+02  1.46157E+02  1.45018E+02  1.42611E+02  1.40309E+02  1.37541E+02  1.30964E+02  1.16429E+02  9.06950E+01
   5.94871E+01  4.24665E+01  4.70663E+01  6.17876E+01  8.16718E+01  1.06849E+02  1.26892E+02  1.37944E+02  1.44518E+02  1.48403E+02
   1.48481E+02  1.45705E+02  1.38438E+02  1.27629E+02  1.15996E+02  1.06843E+02  1.05365E+02  1.02137E+02  8.71440E+01  7.94053E+01
   8.74810E+01  9.11366E+01  9.56855E+01  1.15393E+02  1.34975E+02  1.45337E+02  1.50530E+02  1.41929E+02  1.13583E+02  8.47692E+01
   7.80740E+01  8.18950E+01  8.25852E+01  9.28622E+01  1.12187E+02  1.25958E+02  1.35411E+02  1.42999E+02  1.49568E+02  1.54430E+02
   1.53495E+02  1.44173E+02  1.26437E+02  1.02221E+02  8.37302E+01  7.74344E+01  8.16351E+01  9.47276E+01  1.10275E+02  1.19707E+02
   1.27547E+02  1.32990E+02  1.37051E+02  1.41270E+02  1.46245E+02  1.50703E+02  1.54759E+02  1.58124E+02  1.58144E+02  1.57216E+02
   1.63500E+02  1.67064E+02  1.58110E+02  1.44232E+02  1.31904E+02  1.17597E+02  1.15720E+02  1.25704E+02  1.08260E+02  3.86076E+01
  -2.99057E+01 -4.46224E+01 -2.51331E+01 -5.43362E+00  1.82117E+01  3.58666E+01  4.55977E+01  5.36673E+01  6.08312E+01  6.70334E+01
   7.25199E+01  7.78113E+01  8.29864E+01  8.86072E+01  9.55567E+01  1.03446E+02  1.11224E+02  1.29294E+02  1.58054E+02  1.95029E+02
   2.40519E+02  2.46444E+02  1.59341E+02  5.48946E+01  1.58126E+01  7.93079E+00  4.62495E+00  1.79081E+01  2.57071E+01  2.78267E+01
   2.85321E+01  2.82829E+01  2.73911E+01  2.64733E+01  2.56097E+01  2.49631E+01  2.57568E+01  2.79753E+01  3.06944E+01  3.34824E+01
   3.60581E+01  3.82514E+01  3.98315E+01  4.12485E+01  4.35816E+01  4.61815E+01  4.78953E+01  4.85342E+01  4.89903E+01  5.01449E+01
   5.22369E+01  5.40799E+01  5.37416E+01  5.19321E+01  5.13405E+01  5.28379E+01  5.46035E+01  5.34853E+01  4.93567E+01  4.74720E+01
   5.35550E+01  6.81098E+01  8.16677E+01  8.11952E+01  7.05120E+01  6.68792E+01  7.60975E+01  8.77385E+01  8.84850E+01  7.60217E+01
   6.23333E+01  5.38016E+01  4.69406E+01  4.21175E+01  4.00944E+01  3.83826E+01  3.72550E+01  3.71000E+01  3.78028E+01  3.82563E+01
   3.94809E+01  4.14523E+01  4.13022E+01  4.41808E+01  5.39428E+01  5.88015E+01  5.55515E+01  5.65344E+01  6.14466E+01  6.20119E+01
   5.95752E+01  6.07386E+01  6.93187E+01  7.90514E+01  8.17320E+01  7.96414E+01  7.65094E+01  6.94831E+01  5.67023E+01  4.37611E+01
   3.12732E+01  2.01823E+01  1.77286E+01  2.39173E+01  4.06467E+01  7.32601E+01  1.02123E+02  1.14971E+02  1.21581E+02  1.15789E+02
   9.78815E+01  8.79427E+01  8.35370E+01  8.21568E+01  8.45663E+01  8.60562E+01  8.60274E+01  8.30447E+01  7.64767E+01  6.80654E+01
   5.75107E+01  4.50853E+01  3.33240E+01  2.25759E+01  1.09669E+01  1.57441E+00 -4.44992E+00 -1.08633E+01 -1.45413E+01 -1.42262E+01
  -1.44666E+01 -1.08453E+01 -9.47328E-02  1.26394E+01  2.67534E+01  3.90830E+01  4.50261E+01  4.62461E+01  4.28209E+01  3.48843E+01
   2.67395E+01  1.86921E+01  1.16312E+01  1.14714E+01  7.36356E+00 -3.46617E+01 -7.79084E+01 -2.11691E+01  1.01469E+02  1.70955E+02
   1.86755E+02  1.90494E+02  1.76539E+02  1.59557E+02  1.52017E+02  1.46520E+02  1.41153E+02  1.35730E+02  1.30567E+02  1.26095E+02
   1.22865E+02  1.20948E+02  1.20065E+02  1.19654E+02  1.19427E+02  1.18995E+02  1.18070E+02  1.16852E+02  1.15890E+02  1.14656E+02
   1.12815E+02  1.10485E+02  1.07876E+02  1.05628E+02  1.03352E+02  1.00789E+02  9.83440E+01  9.60546E+01  9.35189E+01  9.05879E+01
   8.69662E+01  8.27575E+01  7.81841E+01  7.29328E+01  6.78208E+01  6.41695E+01  6.22497E+01  6.20217E+01  6.31852E+01  6.48476E+01
   6.67045E+01  6.90316E+01  7.17283E+01  7.43034E+01  7.66173E+01  7.86371E+01  8.02848E+01  8.20563E+01  8.44614E+01  8.72280E+01
   8.97381E+01  9.19347E+01  9.38190E+01  9.57591E+01  9.79728E+01  9.97318E+01  1.01063E+02  1.03481E+02  1.05673E+02  1.07477E+02
   1.08183E+02  1.02583E+02  8.98521E+01  7.79246E+01  6.82757E+01  6.15336E+01  6.06777E+01  6.00435E+01  5.42703E+01  4.75551E+01
   3.96608E+01  3.14308E+01  2.45933E+01  2.02790E+01  1.91744E+01  2.15174E+01  2.64253E+01  3.18580E+01  3.64971E+01  3.98602E+01
   4.19287E+01  4.40701E+01  4.75164E+01  5.20658E+01  5.73777E+01  6.28137E+01  6.69831E+01  6.94839E+01  7.14849E+01  7.32657E+01
   7.41341E+01  7.38012E+01  7.22259E+01  6.89827E+01  6.40870E+01  5.90743E+01  5.54520E+01  5.32938E+01  5.26559E+01  5.36789E+01
   5.58734E+01  5.89174E+01  6.27138E+01  6.67482E+01  7.09156E+01  7.49064E+01  7.84926E+01  8.17915E+01  8.48832E+01  8.81135E+01
   9.14070E+01  9.43789E+01  9.73752E+01  1.00335E+02  1.03281E+02  1.07036E+02  1.11428E+02  1.15684E+02  1.20651E+02  1.26821E+02
   1.33023E+02  1.39405E+02  1.47336E+02  1.56524E+02  1.66157E+02  1.75739E+02  1.83720E+02  1.87718E+02  1.86179E+02  1.78914E+02
   1.67801E+02  1.56126E+02  1.45861E+02  1.37389E+02  1.31002E+02  1.26028E+02  1.20308E+02  1.12620E+02  1.03717E+02  9.39902E+01
   8.39501E+01  7.52496E+01  6.86038E+01  6.32819E+01  5.91802E+01  5.64960E+01  5.48090E+01  5.35565E+01  5.22719E+01  5.09588E+01
   4.95799E+01  4.84998E+01  4.79271E+01  4.76630E+01  4.73369E+01  4.70602E+01  4.70775E+01  4.69271E+01  4.61727E+01  4.56479E+01
   4.59512E+01  4.61836E+01  4.57506E+01  4.54078E+01  4.53668E+01  4.52124E+01  4.47503E+01  4.41897E+01  4.40898E+01  4.44011E+01
   4.45270E+01  4.43160E+01  4.39315E+01  4.33337E+01  4.27366E+01  4.24304E+01  4.23159E+01  4.22545E+01  4.22910E+01  4.23347E+01
   4.22012E+01  4.20317E+01  4.19774E+01  4.16272E+01  4.09180E+01  4.01923E+01  3.98333E+01  3.97025E+01  3.95886E+01  3.94653E+01
   3.92860E+01  3.87921E+01  3.82035E+01  3.80452E+01  3.80145E+01  3.78525E+01  3.77843E+01  3.76328E+01  3.73732E+01  3.72133E+01
   3.70710E+01  3.68364E+01  3.63804E+01  3.57287E+01  3.51826E+01  3.47875E+01  3.44988E+01  3.46407E+01  3.50744E+01  3.52673E+01
   3.50145E+01  3.44011E+01  3.36072E+01  3.30867E+01  3.28746E+01  3.25992E+01  3.22822E+01  3.22910E+01  3.19681E+01  3.12066E+01
 NY background values follow
     1.456E+02    1.448E+02    1.441E+02    1.434E+02    1.426E+02    1.419E+02    1.411E+02    1.404E+02    1.397E+02    1.389E+02
     1.382E+02    1.375E+02    1.368E+02    1.360E+02    1.353E+02    1.346E+02    1.339E+02    1.332E+02    1.325E+02    1.318E+02
     1.311E+02    1.304E+02    1.297E+02    1.291E+02    1.284E+02    1.277E+02    1.271E+02    1.265E+02    1.258E+02    1.252E+02
     1.246E+02    1.239E+02    1.233E+02    1.227E+02    1.222E+02    1.216E+02    1.210E+02    1.205E+02    1.199E+02    1.194E+02
     1.188E+02    1.183E+02    1.178E+02    1.173E+02    1.168E+02    1.163E+02    1.158E+02    1.154E+02    1.149E+02    1.145E+02
     1.140E+02    1.136E+02    1.132E+02    1.128E+02    1.124E+02    1.120E+02    1.116E+02    1.113E+02    1.109E+02    1.106E+02
     1.103E+02    1.100E+02    1.096E+02    1.093E+02    1.091E+02    1.088E+02    1.085E+02    1.083E+02    1.080E+02    1.078E+02
     1.075E+02    1.073E+02    1.071E+02    1.069E+02    1.067E+02    1.065E+02    1.063E+02    1.061E+02    1.059E+02    1.057E+02
     1.055E+02    1.054E+02    1.052E+02    1.050E+02    1.049E+02    1.047E+02    1.045E+02    1.044E+02    1.042E+02    1.040E+02
     1.039E+02    1.037E+02    1.036E+02    1.034E+02    1.032E+02    1.031E+02    1.029E+02    1.028E+02    1.026E+02    1.024E+02
     1.023E+02    1.021E+02    1.019E+02    1.018E+02    1.016E+02    1.014E+02    1.013E+02    1.011E+02    1.009E+02    1.008E+02
     1.006E+02    1.004E+02    1.002E+02    1.000E+02    9.986E+01    9.968E+01    9.949E+01    9.930E+01    9.911E+01    9.892E+01
     9.873E+01    9.853E+01    9.833E+01    9.813E+01    9.792E+01    9.772E+01    9.751E+01    9.730E+01    9.709E+01    9.687E+01
     9.665E+01    9.643E+01    9.621E+01    9.599E+01    9.576E+01    9.553E+01    9.530E+01    9.507E+01    9.483E+01    9.460E+01
     9.436E+01    9.411E+01    9.387E+01    9.362E+01    9.338E+01    9.312E+01    9.287E+01    9.262E+01    9.236E+01    9.210E+01
     9.184E+01    9.157E+01    9.131E+01    9.104E+01    9.077E+01    9.050E+01    9.023E+01    8.995E+01    8.968E+01    8.940E+01
     8.912E+01    8.884E+01    8.856E+01    8.827E+01    8.799E+01    8.770E+01    8.742E+01    8.713E+01    8.684E+01    8.656E+01
     8.627E+01    8.598E+01    8.569E+01    8.540E+01    8.511E+01    8.482E+01    8.453E+01    8.424E+01    8.395E+01    8.366E+01
     8.337E+01    8.308E+01    8.279E+01    8.251E+01    8.222E+01    8.193E+01    8.165E+01    8.136E+01    8.108E+01    8.079E+01
     8.051E+01    8.023E+01    7.995E+01    7.967E+01    7.940E+01    7.912E+01    7.885E+01    7.857E+01    7.830E+01    7.803E+01
     7.777E+01    7.750E+01    7.724E+01    7.698E+01    7.672E+01    7.646E+01    7.621E+01    7.596E+01    7.571E+01    7.546E+01
     7.521E+01    7.497E+01    7.473E+01    7.449E+01    7.426E+01    7.402E+01    7.379E+01    7.355E+01    7.332E+01    7.308E+01
     7.285E+01    7.261E+01    7.237E+01    7.214E+01    7.189E+01    7.165E+01    7.141E+01    7.116E+01    7.090E+01    7.065E+01
     7.039E+01    7.012E+01    6.985E+01    6.958E+01    6.930E+01    6.901E+01    6.872E+01    6.842E+01    6.812E+01    6.781E+01
     6.749E+01    6.716E+01    6.682E+01    6.648E+01    6.613E+01    6.577E+01    6.541E+01    6.503E+01    6.465E+01    6.426E+01
     6.386E+01    6.345E+01    6.303E+01    6.261E+01    6.218E+01    6.174E+01    6.129E+01    6.083E+01    6.036E+01    5.988E+01
     5.940E+01    5.891E+01    5.840E+01    5.789E+01    5.737E+01    5.684E+01    5.630E+01    5.576E+01    5.520E+01    5.463E+01
     5.406E+01    5.347E+01    5.288E+01    5.228E+01    5.168E+01    5.107E+01    5.046E+01    4.985E+01    4.924E+01    4.863E+01
     4.802E+01    4.741E+01    4.681E+01    4.621E+01    4.562E+01    4.504E+01    4.446E+01    4.390E+01    4.335E+01    4.281E+01
     4.228E+01    4.177E+01    4.127E+01    4.080E+01    4.034E+01    3.990E+01    3.948E+01    3.908E+01    3.870E+01    3.835E+01
     3.803E+01    3.773E+01    3.746E+01    3.721E+01    3.699E+01    3.679E+01    3.662E+01    3.647E+01    3.635E+01    3.626E+01
     3.619E+01    3.614E+01    3.613E+01    3.613E+01    3.616E+01    3.622E+01    3.630E+01    3.640E+01    3.653E+01    3.668E+01
     3.686E+01    3.706E+01    3.729E+01    3.754E+01    3.782E+01    3.811E+01    3.844E+01    3.878E+01    3.916E+01    3.955E+01
     3.997E+01    4.041E+01    4.087E+01    4.135E+01    4.186E+01    4.238E+01    4.291E+01    4.346E+01    4.403E+01    4.461E+01
     4.520E+01    4.579E+01    4.640E+01    4.702E+01    4.764E+01    4.827E+01    4.890E+01    4.953E+01    5.017E+01    5.080E+01
     5.144E+01    5.207E+01    5.269E+01    5.332E+01    5.393E+01    5.454E+01    5.514E+01    5.573E+01    5.631E+01    5.687E+01
     5.742E+01    5.796E+01    5.848E+01    5.899E+01    5.948E+01    5.996E+01    6.042E+01    6.087E+01    6.130E+01    6.171E+01
     6.212E+01    6.250E+01    6.287E+01    6.322E+01    6.356E+01    6.387E+01    6.418E+01    6.446E+01    6.473E+01    6.498E+01
     6.522E+01    6.543E+01    6.563E+01    6.581E+01    6.598E+01    6.612E+01    6.625E+01    6.636E+01    6.645E+01    6.652E+01
     6.657E+01    6.660E+01    6.662E+01    6.662E+01    6.660E+01    6.656E+01    6.650E+01    6.643E+01    6.635E+01    6.625E+01
     6.613E+01    6.600E+01    6.585E+01    6.569E+01    6.551E+01    6.532E+01    6.512E+01    6.491E+01    6.468E+01    6.444E+01
     6.419E+01    6.392E+01    6.365E+01    6.337E+01    6.307E+01    6.277E+01    6.245E+01    6.213E+01    6.180E+01    6.146E+01
     6.111E+01    6.075E+01    6.039E+01    6.001E+01    5.963E+01    5.925E+01    5.886E+01    5.846E+01    5.805E+01    5.764E+01
     5.722E+01    5.680E+01    5.637E+01    5.594E+01    5.550E+01    5.506E+01    5.462E+01    5.417E+01    5.371E+01    5.326E+01
     5.280E+01    5.233E+01    5.187E+01    5.140E+01    5.093E+01    5.045E+01    4.998E+01    4.950E+01    4.903E+01    4.855E+01
     4.807E+01    4.759E+01    4.711E+01    4.662E+01    4.614E+01    4.566E+01    4.517E+01    4.469E+01    4.420E+01    4.372E+01
     4.323E+01    4.274E+01    4.225E+01    4.176E+01    4.127E+01    4.078E+01    4.029E+01    3.980E+01    3.931E+01    3.881E+01
     3.832E+01    3.783E+01    3.733E+01    3.683E+01    3.634E+01    3.584E+01    3.534E+01    3.484E+01    3.434E+01    3.384E+01
 Mac      Conc. = 2.68E-04
   1.26941E+02  1.25635E+02  1.24759E+02  1.24198E+02  1.23562E+02  1.22476E+02  1.20638E+02  1.18159E+02  1.15257E+02  1.12503E+02
   1.10470E+02  1.09439E+02  1.09040E+02  1.08595E+02  1.07086E+02  1.03753E+02  9.92875E+01  9.66022E+01  9.82065E+01  1.02381E+02
   1.06007E+02  1.09681E+02  1.13533E+02  1.15461E+02  1.15777E+02  1.15955E+02  1.16350E+02  1.17064E+02  1.18318E+02  1.19976E+02
   1.21447E+02  1.22403E+02  1.23119E+02  1.23256E+02  1.22275E+02  1.20477E+02  1.19190E+02  1.19609E+02  1.21860E+02  1.24391E+02
   1.25152E+02  1.24238E+02  1.23218E+02  1.23125E+02  1.24053E+02  1.25521E+02  1.26416E+02  1.26280E+02  1.25503E+02  1.24032E+02
   1.21882E+02  1.19844E+02  1.18333E+02  1.16908E+02  1.15459E+02  1.14304E+02  1.13447E+02  1.13592E+02  1.14744E+02  1.15689E+02
   1.16747E+02  1.18509E+02  1.19818E+02  1.19839E+02  1.19158E+02  1.17843E+02  1.16307E+02  1.15117E+02  1.13866E+02  1.12363E+02
   1.11900E+02  1.13494E+02  1.16324E+02  1.18751E+02  1.20562E+02  1.21718E+02  1.21857E+02  1.21197E+02  1.20184E+02  1.18983E+02
   1.17948E+02  1.16965E+02  1.15953E+02  1.15576E+02  1.15956E+02  1.16570E+02  1.17291E+02  1.18053E+02  1.18726E+02  1.19133E+02
   1.19529E+02  1.20061E+02  1.20568E+02  1.20921E+02  1.21219E+02  1.20532E+02  1.18732E+02  1.16322E+02  1.13472E+02  1.10817E+02
   1.09252E+02  1.08104E+02  1.06577E+02  1.04717E+02  1.02064E+02  9.74429E+01  9.02848E+01  8.16323E+01  7.40361E+01  6.94859E+01
