 
 $NMID
 ID=''
 FMTDAT='(2E13.5)'
 TRAMP=   1.00000E+0
 VOLUME=   1.00000E+0
 $END
   7.11717E+5  -5.41965E+4
   1.82953E+6   5.74581E+5
   1.86474E+6   3.59188E+5
   1.74687E+6   3.96175E+5
   1.79729E+6   4.32051E+5
   1.78234E+6   3.60217E+5
   1.74045E+6   3.64518E+5
   1.77414E+6   3.72307E+5
   1.74824E+6   3.34346E+5
   1.70780E+6   3.61678E+5
   1.72450E+6   3.74499E+5
   1.70577E+6   3.48075E+5
   1.67635E+6   3.58477E+5
   1.67608E+6   3.67955E+5
   1.65278E+6   3.61424E+5
   1.63338E+6   3.66919E+5
   1.63509E+6   3.64900E+5
   1.61223E+6   3.63169E+5
   1.59787E+6   3.70095E+5
   1.59726E+6   3.52262E+5
   1.57215E+6   3.47307E+5
   1.55749E+6   3.59779E+5
   1.55586E+6   3.51360E+5
   1.53498E+6   3.43105E+5
   1.51542E+6   3.53030E+5
   1.50792E+6   3.44603E+5
   1.49181E+6   3.42572E+5
   1.47648E+6   3.50523E+5
   1.46095E+6   3.49149E+5
   1.44266E+6   3.45932E+5
   1.43334E+6   3.49576E+5
   1.41988E+6   3.41107E+5
   1.39910E+6   3.40316E+5
   1.38936E+6   3.44304E+5
   1.37811E+6   3.31693E+5
   1.35935E+6   3.21498E+5
   1.35088E+6   3.25480E+5
   1.34267E+6   3.22218E+5
   1.32094E+6   3.14830E+5
   1.30534E+6   3.15200E+5
   1.29568E+6   3.16129E+5
   1.27972E+6   3.11501E+5
   1.26051E+6   3.07763E+5
   1.24818E+6   3.08238E+5
   1.23609E+6   3.08497E+5
   1.22199E+6   3.07337E+5
   1.20457E+6   3.07974E+5
   1.18886E+6   3.10236E+5
   1.17462E+6   3.07958E+5
   1.15977E+6   3.04808E+5
   1.14454E+6   3.05142E+5
   1.13163E+6   3.05096E+5
   1.11902E+6   3.02458E+5
   1.10433E+6   3.01433E+5
   1.08891E+6   3.01941E+5
   1.07541E+6   3.02203E+5
   1.06057E+6   3.02112E+5
   1.04392E+6   3.01469E+5
   1.02888E+6   3.00935E+5
   1.01660E+6   2.99917E+5
   1.00272E+6   2.99827E+5
   9.87435E+5   3.00716E+5
   9.73610E+5   3.01199E+5
   9.59413E+5   3.00867E+5
   9.43388E+5   3.00377E+5
   9.27828E+5   2.99020E+5
   9.12958E+5   2.97710E+5
   8.99439E+5   2.95943E+5
   8.86264E+5   2.96178E+5
   8.72344E+5   2.97461E+5
   8.56886E+5   2.97523E+5
   8.42204E+5   2.96340E+5
   8.29620E+5   2.95667E+5
   8.15860E+5   2.96331E+5
   8.00515E+5   2.97034E+5
   7.86406E+5   2.96140E+5
   7.73259E+5   2.95373E+5
   7.59037E+5   2.95504E+5
   7.44990E+5   2.95567E+5
   7.31031E+5   2.95153E+5
   7.17145E+5   2.94132E+5
   7.03135E+5   2.93866E+5
   6.89720E+5   2.93348E+5
   6.76201E+5   2.93779E+5
   6.61963E+5   2.93955E+5
   6.48697E+5   2.93551E+5
   6.36034E+5   2.93190E+5
   6.22898E+5   2.93159E+5
   6.09374E+5   2.93325E+5
   5.96830E+5   2.92149E+5
   5.84868E+5   2.91117E+5
   5.72976E+5   2.90112E+5
   5.60096E+5   2.89510E+5
   5.47700E+5   2.88598E+5
   5.35241E+5   2.86331E+5
   5.23397E+5   2.84183E+5
   5.12588E+5   2.82802E+5
   5.01437E+5   2.81563E+5
   4.89770E+5   2.79606E+5
   4.78438E+5   2.77942E+5
   4.68241E+5   2.76843E+5
   4.57228E+5   2.76151E+5
   4.45572E+5   2.74780E+5
   4.34044E+5   2.72737E+5
   4.24435E+5   2.70427E+5
   4.14939E+5   2.68771E+5
   4.04671E+5   2.67518E+5
   3.93806E+5   2.65846E+5
   3.83547E+5   2.63173E+5
   3.74277E+5   2.60224E+5
   3.65324E+5   2.58463E+5
   3.56195E+5   2.57224E+5
   3.46473E+5   2.55336E+5
   3.37020E+5   2.53344E+5
   3.27830E+5   2.51728E+5
   3.18836E+5   2.50199E+5
   3.09494E+5   2.48586E+5
   2.99983E+5   2.46424E+5
   2.91319E+5   2.43803E+5
   2.83375E+5   2.41104E+5
   2.75744E+5   2.39313E+5
   2.67601E+5   2.38040E+5
   2.59652E+5   2.36359E+5
   2.51582E+5   2.34164E+5
   2.43464E+5   2.31870E+5
   2.35669E+5   2.29591E+5
   2.28069E+5   2.27760E+5
   2.20492E+5   2.25721E+5
   2.13138E+5   2.23812E+5
   2.06048E+5   2.22231E+5
   1.98416E+5   2.21294E+5
   1.90860E+5   2.19241E+5
   1.83736E+5   2.16968E+5
   1.77369E+5   2.15280E+5
   1.70565E+5   2.13681E+5
   1.63462E+5   2.11397E+5
   1.57582E+5   2.09149E+5
   1.51544E+5   2.07386E+5
   1.45388E+5   2.05982E+5
   1.39088E+5   2.03858E+5
   1.33088E+5   2.01620E+5
   1.27455E+5   1.99231E+5
   1.22219E+5   1.97214E+5
   1.17178E+5   1.95291E+5
   1.11693E+5   1.93668E+5
   1.06183E+5   1.91581E+5
   1.00984E+5   1.89210E+5
   9.60571E+4   1.86913E+5
   9.11697E+4   1.84971E+5
   8.68455E+4   1.82914E+5
   8.19052E+4   1.80896E+5
   7.81600E+4   1.78463E+5
   7.42186E+4   1.76500E+5
   7.01502E+4   1.74631E+5
   6.57540E+4   1.72538E+5
   6.22426E+4   1.70146E+5
   5.87637E+4   1.68104E+5
   5.52262E+4   1.66021E+5
   5.18941E+4   1.63947E+5
   4.85066E+4   1.61457E+5
   4.53895E+4   1.59517E+5
   4.23838E+4   1.57271E+5
   3.93417E+4   1.55154E+5
   3.63671E+4   1.52717E+5
   3.34869E+4   1.50265E+5
   3.11688E+4   1.48264E+5
   2.84399E+4   1.46674E+5
   2.58547E+4   1.44575E+5
   2.37287E+4   1.42567E+5
   2.12022E+4   1.40503E+5
   1.92250E+4   1.38484E+5
   1.71351E+4   1.36394E+5
   1.49558E+4   1.34280E+5
   1.28765E+4   1.32366E+5
   1.09141E+4   1.30284E+5
   9.02374E+3   1.28402E+5
   7.13011E+3   1.26535E+5
   4.98716E+3   1.24554E+5
   3.16438E+3   1.22336E+5
   1.43495E+3   1.20359E+5
  -2.06944E+2   1.18669E+5
  -1.85865E+3   1.16963E+5
  -3.77356E+3   1.14860E+5
  -5.22053E+3   1.13129E+5
  -7.02492E+3   1.11075E+5
  -8.27114E+3   1.09044E+5
  -9.75430E+3   1.07323E+5
  -1.14452E+4   1.05539E+5
  -1.25471E+4   1.03681E+5
  -1.39046E+4   1.02508E+5
  -1.52429E+4   1.01047E+5
  -1.69754E+4   9.91958E+4
  -1.83721E+4   9.73763E+4
  -1.97303E+4   9.54403E+4
  -2.07838E+4   9.38073E+4
  -2.18771E+4   9.21660E+4
  -2.34329E+4   9.07045E+4
  -2.45981E+4   8.90096E+4
  -2.57366E+4   8.76362E+4
  -2.71629E+4   8.62695E+4
  -2.84401E+4   8.45399E+4
  -2.94701E+4   8.26715E+4
  -3.04311E+4   8.11391E+4
  -3.15351E+4   8.00629E+4
  -3.23641E+4   7.83835E+4
  -3.35896E+4   7.70539E+4
  -3.45768E+4   7.56307E+4
  -3.53284E+4   7.43650E+4
  -3.61205E+4   7.29478E+4
  -3.73608E+4   7.14593E+4
  -3.80701E+4   7.00262E+4
  -3.88361E+4   6.89511E+4
  -3.95213E+4   6.74317E+4
  -4.08129E+4   6.62091E+4
  -4.14613E+4   6.48218E+4
  -4.21278E+4   6.36613E+4
  -4.29664E+4   6.20946E+4
  -4.33471E+4   6.08388E+4
  -4.37129E+4   5.95267E+4
  -4.42755E+4   5.87855E+4
  -4.50494E+4   5.75260E+4
  -4.54950E+4   5.61247E+4
  -4.58379E+4   5.52059E+4
  -4.63650E+4   5.40522E+4
  -4.70258E+4   5.25752E+4
  -4.73117E+4   5.16151E+4
  -4.74969E+4   5.05027E+4
  -4.78819E+4   4.95832E+4
  -4.86245E+4   4.84952E+4
  -4.88451E+4   4.76336E+4
  -4.90940E+4   4.63010E+4
  -4.92179E+4   4.53471E+4
  -4.95330E+4   4.43928E+4
  -4.97583E+4   4.34737E+4
  -4.99022E+4   4.26248E+4
  -4.98005E+4   4.13248E+4
  -5.03894E+4   4.06167E+4
  -5.02688E+4   3.99089E+4
  -5.02158E+4   3.87630E+4
  -5.04477E+4   3.77596E+4
  -5.08604E+4   3.69975E+4
  -5.07156E+4   3.61452E+4
  -5.08522E+4   3.54113E+4
  -5.09920E+4   3.42867E+4
  -5.09077E+4   3.33908E+4
  -5.09006E+4   3.26065E+4
  -5.10173E+4   3.17125E+4
  -5.11518E+4   3.09610E+4
  -5.09430E+4   2.99389E+4
  -5.09145E+4   2.92832E+4
  -5.06673E+4   2.81702E+4
  -5.07758E+4   2.74375E+4
  -5.08344E+4   2.68080E+4
  -5.04658E+4   2.58482E+4
  -5.04264E+4   2.50052E+4
  -5.05021E+4   2.41000E+4
  -5.06299E+4   2.31093E+4
  -5.02936E+4   2.24233E+4
  -5.06323E+4   2.16594E+4
  -5.03483E+4   2.07127E+4
  -5.05802E+4   1.96731E+4
  -5.04667E+4   1.89518E+4
  -5.05465E+4   1.81538E+4
  -5.04172E+4   1.72153E+4
  -5.02115E+4   1.65272E+4
  -5.01381E+4   1.58409E+4
  -5.03659E+4   1.49432E+4
  -5.01729E+4   1.40188E+4
  -5.01098E+4   1.32125E+4
  -4.99998E+4   1.24406E+4
  -4.98321E+4   1.20793E+4
  -5.01060E+4   1.13061E+4
  -4.96028E+4   1.03126E+4
  -4.96873E+4   9.67251E+3
  -4.95748E+4   8.91581E+3
  -4.96802E+4   8.39889E+3
  -4.94319E+4   7.57293E+3
  -4.92008E+4   6.93975E+3
  -4.89028E+4   6.29835E+3
  -4.91341E+4   5.73969E+3
  -4.86577E+4   4.75152E+3
  -4.86154E+4   4.14707E+3
  -4.83392E+4   3.62713E+3
  -4.83523E+4   2.99634E+3
  -4.80122E+4   2.15631E+3
  -4.80323E+4   1.58223E+3
  -4.76227E+4   1.13488E+3
  -4.74967E+4   5.99478E+2
  -4.72850E+4  -6.34271E+1
  -4.69431E+4  -5.68918E+2
  -4.67021E+4  -1.16212E+3
  -4.63565E+4  -1.44681E+3
  -4.64021E+4  -2.02115E+3
  -4.58615E+4  -2.62407E+3
  -4.56448E+4  -2.98913E+3
  -4.51980E+4  -3.49422E+3
  -4.49737E+4  -4.08595E+3
  -4.45148E+4  -4.17436E+3
  -4.44474E+4  -4.98085E+3
  -4.39971E+4  -5.31435E+3
  -4.38305E+4  -5.75452E+3
  -4.32404E+4  -5.91307E+3
  -4.31477E+4  -6.26169E+3
  -4.28440E+4  -7.10966E+3
  -4.20968E+4  -7.52523E+3
  -4.20719E+4  -7.82739E+3
  -4.14461E+4  -8.35407E+3
  -4.09224E+4  -8.53122E+3
  -4.04839E+4  -9.06797E+3
  -4.03839E+4  -9.34035E+3
  -3.97303E+4  -9.65684E+3
  -3.92232E+4  -9.78917E+3
  -3.89817E+4  -1.03861E+4
  -3.85746E+4  -1.07016E+4
  -3.79321E+4  -1.09056E+4
  -3.77222E+4  -1.15157E+4
  -3.72003E+4  -1.20016E+4
  -3.69323E+4  -1.21248E+4
  -3.64316E+4  -1.25394E+4
  -3.59394E+4  -1.27623E+4
  -3.55292E+4  -1.32074E+4
  -3.52773E+4  -1.35137E+4
  -3.46637E+4  -1.38419E+4
  -3.40189E+4  -1.44262E+4
  -3.35700E+4  -1.43318E+4
  -3.29643E+4  -1.44509E+4
  -3.29757E+4  -1.50988E+4
  -3.23960E+4  -1.54079E+4
  -3.17477E+4  -1.55516E+4
  -3.12707E+4  -1.59490E+4
  -3.11066E+4  -1.59446E+4
  -3.07193E+4  -1.61085E+4
  -3.00089E+4  -1.64731E+4
  -2.96629E+4  -1.67173E+4
  -2.91638E+4  -1.71904E+4
  -2.88566E+4  -1.73514E+4
  -2.86229E+4  -1.77111E+4
  -2.80452E+4  -1.80490E+4
  -2.75690E+4  -1.79891E+4
  -2.72372E+4  -1.84608E+4
  -2.66414E+4  -1.82469E+4
  -2.65542E+4  -1.86114E+4
  -2.58953E+4  -1.88293E+4
  -2.55210E+4  -1.92269E+4
  -2.48737E+4  -1.91882E+4
  -2.47027E+4  -1.94898E+4
  -2.39473E+4  -1.96273E+4
  -2.38211E+4  -1.98871E+4
  -2.33846E+4  -1.98230E+4
  -2.33679E+4  -2.01547E+4
  -2.28280E+4  -2.02412E+4
  -2.22981E+4  -2.03358E+4
  -2.18159E+4  -2.06366E+4
  -2.13894E+4  -2.05264E+4
  -2.10288E+4  -2.07083E+4
  -2.06949E+4  -2.08917E+4
  -2.03760E+4  -2.08274E+4
  -1.99550E+4  -2.08432E+4
  -1.93536E+4  -2.10974E+4
  -1.92803E+4  -2.13123E+4
  -1.89333E+4  -2.11449E+4
  -1.84443E+4  -2.13755E+4
  -1.81309E+4  -2.13407E+4
  -1.78457E+4  -2.15459E+4
  -1.73393E+4  -2.13080E+4
  -1.71170E+4  -2.13952E+4
  -1.66621E+4  -2.15726E+4
