 
 $NMID
 ID=''
 FMTDAT='(2E13.5)'
 TRAMP=   1.00000E+0
 VOLUME=   1.00000E+0
 $END
   9.22299E+3   1.31099E+4
   2.73959E+4  -2.88412E+2
   1.86835E+3  -2.08830E+4
  -2.07736E+4   6.83477E+3
   4.18276E+3   2.07216E+4
   1.85360E+4  -6.48318E+3
  -3.92350E+3  -1.30423E+4
  -1.07875E+4   6.47598E+3
   3.00298E+3   8.65263E+3
   4.24679E+3  -7.14477E+2
  -1.64541E+3  -2.29060E+3
  -1.72269E+3  -1.17817E+3
  -1.15292E+3   8.33485E+2
  -1.44002E+3   2.33638E+3
   5.63698E+2  -9.80288E+2
   2.75919E+3  -2.65303E+3
   1.28080E+3  -4.61458E+2
  -1.88926E+3   2.48641E+2
  -1.41789E+3   2.69139E+2
   1.55488E+3   9.40213E+2
   1.17912E+3  -5.39279E+2
  -4.74694E+2  -1.24997E+3
  -2.87745E+2   6.32878E+2
  -3.57870E+2   1.33597E+3
  -1.51017E+2  -6.99855E+1
   1.63944E+3  -1.32955E+3
   2.14176E+2  -4.91212E+2
  -2.79554E+3   1.03079E+3
  -1.04631E+3   5.41076E+2
   1.70810E+3  -3.88787E+2
   1.27775E+3  -8.26020E+1
  -3.55411E+2  -3.06860E+2
  -1.35273E+3  -1.86536E+2
  -1.27298E+3   5.52482E+2
   2.97877E+2  -3.22364E+2
   1.53663E+3  -7.84342E+2
   5.79031E+2   4.51110E+2
  -5.17228E+2   9.50992E+2
  -1.77823E+2  -7.67705E+1
   3.18334E+2   4.65347E+1
  -1.10365E+2   6.98476E+2
  -5.51944E+2  -1.53243E+2
   5.24217E+2  -5.35915E+2
   5.61782E+2  -6.05036E+2
   6.70793E+2  -2.28012E+2
   4.07576E+2   2.70849E+2
   4.55444E+2   1.22754E+3
  -2.62115E+2   7.15158E+2
  -9.31778E+2  -5.39235E+2
  -6.22442E+2  -6.88029E+2
   2.69039E+2  -1.64355E+1
  -1.92178E+2   2.96968E+2
   1.24250E+2  -3.54560E+2
   1.30976E+2  -6.48998E+2
   5.25401E+2  -1.34044E+2
  -2.56057E+2   6.05311E+2
  -5.91406E+2   3.09644E+2
  -8.79801E+1  -2.71405E+2
   2.14373E+2  -6.15488E+2
  -2.86329E+2  -1.99340E+2
  -4.61345E+2   4.40532E+1
   5.65313E+2   1.33805E+2
   1.00713E+3   2.02384E+2
  -1.17618E+2   5.86390E+2
  -6.61989E+2   5.31493E+2
  -4.37685E+2   3.04523E+2
  -1.82448E+2  -5.56299E+1
  -1.49101E+2  -5.76501E+2
   7.88998E+1  -9.07388E+2
   5.83574E+2   1.68083E+2
   6.89550E+1   7.66137E+2
  -4.85587E+2   3.04336E+2
  -3.41905E+1  -4.76806E+2
   4.62778E+2  -2.71018E+2
   1.65881E+2   4.56463E+2
  -1.51366E+2   2.64256E+2
  -3.59267E+1  -2.73833E+2
   3.35586E+2  -2.92494E+2
   1.75949E+2   4.16673E+2
   5.10699E+1   3.93849E+2
  -1.14711E+2   3.71987E+1
   7.04629E+1  -6.54308E+1
  -6.96334E-1   1.15200E+2
  -8.81121E+0   9.61043E+1
  -9.01602E+1   1.72802E+1
  -7.09715E+1  -2.02698E+2
   3.38634E+1  -1.44305E+2
  -1.70430E+2   5.69486E+1
  -1.81962E+1   2.87887E+1
   1.51207E+2  -2.88913E+2
   3.44867E+1   6.49246E+1
   5.72510E+0  -1.23677E+2
   2.08522E+2  -9.17804E+1
   1.99964E+2   2.27780E+2
  -2.69789E+0   1.97741E+2
  -2.73102E+2   1.45909E+2
  -1.86321E+2  -3.64999E+2
   2.45211E+2  -1.66801E+2
   7.85167E+1   1.24500E+2
  -2.62873E+2   1.21167E+2
  -1.17976E+2  -4.26606E+2
   4.16816E+1  -2.60850E+2
   1.86892E+2   5.20867E+2
  -3.42440E+1   2.71089E+2
   4.09399E+0  -8.56174E+1
  -9.96456E+1  -2.31435E+2
   2.79791E+1   1.79190E+2
   6.53256E+0   1.29369E+2
   2.39472E+2   2.17827E+1
   8.82833E+1  -1.92462E+1
  -2.59420E+2   6.62185E+1
  -3.27685E+2  -1.25495E+2
  -9.12229E+1   8.14345E+1
  -1.58987E+1   3.76324E+0
  -1.63627E+2   4.87879E+1
  -5.97421E+1   1.38057E+2
   1.47537E+2  -1.38947E+2
   2.14877E+2   5.12915E+1
  -4.59476E+1   2.08081E+2
  -2.92870E+2   1.71508E+2
  -1.57544E+2  -8.80126E+1
  -3.98807E+0   2.21041E+2
   5.87883E+1   1.02199E+2
  -5.89385E+1  -2.77627E+2
  -8.36596E+1  -1.35383E+2
   4.54868E+1  -1.22897E+2
   2.28380E+2   1.47485E+2
  -2.32482E+2  -7.93944E+1
  -9.55958E+1  -1.64300E+1
  -8.55145E+1  -3.31335E+1
   1.78762E+2  -9.26632E+1
   2.62326E+0   1.17142E+1
   8.50364E+1   8.35234E+1
  -3.14950E+1   9.87253E+1
   5.74691E+1  -2.49322E+2
  -3.14385E+2   9.68470E+1
  -1.19747E+2  -5.24617E+1
  -1.75817E+2  -3.55076E+1
  -8.09432E+1   1.16064E+1
  -1.40935E+2  -1.32135E+2
  -1.65213E+2  -9.28416E+1
   1.20242E+2   1.89362E+2
  -1.20498E+1   1.10831E+2
  -5.28668E+1   1.42481E+2
  -1.61691E+2   3.77472E+1
  -1.87424E+1  -1.84060E+2
  -8.31269E+1  -1.60718E+1
   1.00797E+2   1.42710E+1
   1.73450E+2  -2.02308E+2
   1.45867E+2   1.60701E+2
  -4.96848E+1   1.62228E+2
  -7.52871E+1   9.19576E+1
  -1.56380E+1   1.32478E+2
  -3.86254E+2   1.06465E+2
   8.53308E+0  -2.59046E+2
  -5.90185E+0   1.36004E+1
  -1.44137E+2   2.03714E+2
  -1.11335E+2   1.31574E+2
   5.31610E+1   6.02827E+1
   2.82217E+1  -1.68172E+2
   1.77261E+2   1.48961E+2
  -3.91553E+1   1.03591E+2
   9.91634E+1   9.46219E+1
   5.03712E+1   1.18874E+1
   1.88881E+2  -2.43868E+1
  -3.95899E+1   1.84415E+2
   2.45217E+1  -4.82347E+1
   2.83218E+1  -2.79589E+1
   1.02596E+2  -6.39673E+1
  -2.69769E+2  -6.40345E+1
  -3.34380E+1   1.80976E+2
   3.24056E+1  -1.33936E+2
  -4.84501E+1  -2.24141E+1
  -9.49648E+1  -1.98571E+1
  -8.75975E+0   9.46175E+1
  -1.05476E+2   2.18523E+1
   5.69952E+1  -1.18291E+2
  -1.01412E+2  -8.53547E+1
  -1.38272E+2  -5.53090E+1
   5.45953E+1  -2.52373E+2
  -1.89997E+2  -2.81264E+1
  -2.44770E+2   1.10892E+2
  -1.46705E+2  -1.75904E+1
  -9.81215E-1  -1.28318E+2
  -5.40550E+1   2.21629E+0
  -1.21565E+2  -4.29010E+1
  -6.14482E+0  -1.16144E+2
   8.50420E+1  -1.54147E+2
   2.09480E+2   5.61789E+1
   2.12437E+2   2.92258E+1
  -7.80052E+1  -1.41323E+2
  -5.84804E+1  -1.47584E+2
  -6.61558E+1   1.11990E+2
   1.68448E+2   1.05534E+2
   4.24904E+1   1.17577E+2
   1.00689E+2  -1.21757E+2
   1.39373E+2   6.24158E+1
   1.70050E+2   3.01244E+1
  -1.46474E+1   3.82148E+2
   9.64385E+0  -3.31104E+0
  -8.37785E+1  -2.02443E+1
   2.37563E+2  -3.43343E+1
   6.66609E+1  -2.87653E+0
   3.08596E+2   1.65985E+2
  -2.93783E+1   5.43056E+1
   7.74154E+1   6.01968E+1
  -2.40512E+1   1.49992E+1
  -1.10205E+2  -3.98469E+1
  -3.76348E+1   3.95634E+1
  -4.98237E+0  -1.17982E+2
   2.59328E+1   1.45818E+2
   9.49088E+1  -6.29276E+1
  -1.16442E+1   1.48852E+2
  -1.22972E+2   2.57698E+2
   9.55070E+1   1.78198E+2
   2.07504E+1  -1.50852E+2
  -7.14763E+1   1.68830E+1
   3.17522E+0   1.88275E+2
  -9.24975E+1   1.59732E+2
   2.06509E+0  -3.09772E+1
  -8.60311E+1   5.78319E+1
  -1.12041E+2   9.18334E+1
  -7.79980E+0  -9.22808E+1
   1.77704E+1  -1.48916E+2
  -5.56384E+1  -2.35410E+1
  -1.38807E+1   1.29092E+2
  -1.96435E+2   4.77090E+1
  -5.07618E+1  -7.79150E+1
  -9.73350E-3  -6.28925E+1
  -1.32379E+2   6.43853E+1
  -5.13908E+1  -6.13279E+1
  -1.17116E+2  -1.09972E+2
   1.10608E+2  -2.12965E+2
  -1.84557E+2  -5.56181E+1
   2.55873E+1  -2.94105E+2
  -1.00142E+2   7.76824E+1
   9.99366E+1   4.08414E+1
  -5.49375E+1   1.80677E+2
  -2.17655E+2  -3.04486E+1
   4.61689E+1   4.10525E+1
  -6.13051E+1  -1.07146E+2
  -1.63923E+2  -7.21534E+1
   1.07615E+2   1.46007E+2
  -1.64646E+2  -1.28622E+2
   6.76386E+1  -7.25428E+1
   1.37174E+2   7.27804E+1
  -4.80610E+1   9.37682E+1
   9.10041E+1   1.74739E+2
  -4.90136E+1  -1.82390E+2
  -9.80503E+0   1.28697E+2
  -2.44214E+1   1.25399E+2
  -9.08510E+0   1.17673E+2
   2.07294E+2  -1.15107E+2
  -1.61028E+2  -1.14890E+2
  -4.56158E+1   9.17739E+1
   2.16808E+1   7.40122E+1
   6.13691E+1   8.98464E+1
  -5.27461E+0   1.18298E+2
  -6.78168E+1   7.14619E+1
  -5.39663E+1   1.74924E+0
   9.49619E+1  -4.60576E+1
   1.55374E+2   6.56535E+1
   3.38905E+1   4.51536E+1
   8.64964E+1  -6.07878E+0
   6.32912E+1   3.83832E+2
   1.52334E+2   1.11074E+2
  -1.16073E+2   3.40125E+1
   8.97294E+1  -2.61799E+1
   1.59711E+1   1.92653E+2
   2.26483E+1  -1.54344E+2
  -7.37336E+0  -1.40171E+2
  -8.22927E+1  -2.39962E+2
  -7.31146E+1   9.32308E+1
   9.48722E+1  -1.00323E+2
   5.92381E+1   7.31709E+1
   1.29350E+2  -7.07665E+1
   8.57498E+1  -3.26309E+1
   1.20528E+2   6.71945E+1
   6.08617E+1   1.85754E+1
   2.05104E+1   8.97494E+1
   1.28714E+1   2.29964E+2
   7.03505E+1   5.25873E+1
  -7.65829E+1  -6.54579E+1
  -1.91225E+1   2.53304E+1
   1.79810E+2  -5.41074E+1
  -5.32765E+1  -8.68350E+1
   1.16678E+2   1.61133E+2
  -1.21194E+1   3.12103E+2
   1.79204E+2  -1.01893E+2
   7.27230E+1   1.76198E+2
   2.71473E+1   1.60371E+2
   2.58451E+1   1.28913E+2
   6.33524E+1  -5.03873E+1
   7.09145E+1  -3.57647E+1
  -2.25512E+2  -7.44355E+1
  -9.22428E+1  -1.76883E+2
  -4.86173E+1  -8.49494E+1
  -2.07981E+2  -5.33924E+1
   1.18582E+2  -1.05988E+1
  -1.11534E+2  -2.09025E+1
   2.32906E+1  -6.16910E+0
  -1.02744E+2   1.24874E+2
   1.17733E+1   3.05758E+2
   1.71231E+2   5.74818E+1
   6.01834E+1  -2.02189E+2
   7.96732E+0  -1.49984E+2
   6.82689E+1  -4.46538E+1
  -2.26420E+1  -7.13448E+1
   9.91681E+1   1.70741E+1
   2.09924E+2   7.51112E-1
   6.91887E+1   1.85481E+1
  -1.64086E+2   2.81765E+2
   2.55644E+2  -5.33509E+1
  -7.34705E+0   1.15821E+2
   1.67233E+2   8.55758E+0
  -9.12286E+1  -2.99855E+1
   6.19850E+1  -1.31716E+2
   5.70519E+0   2.09440E+2
  -7.00821E+1  -1.18538E+2
  -1.06577E+1   3.24727E+1
  -7.57229E+1  -1.35968E+2
  -2.18723E+1   1.27985E+2
  -6.75179E+1   2.69882E+1
  -5.14764E+1  -7.79583E+1
   5.28053E+1   4.23935E+0
   7.65629E+1   2.20236E+1
  -1.20517E+2  -2.03193E+1
  -5.66922E+1  -3.97427E+1
   3.92983E+1  -1.08740E+2
   4.29744E+1   7.27541E+1
   2.53591E+2   9.89587E+1
  -5.30397E+1  -1.10322E+2
   4.18091E+1  -1.39493E+2
   1.22222E+2   7.09283E+1
   4.08488E+1  -7.45973E+0
   2.79228E+1   5.53844E+1
  -1.08513E+1  -7.42078E+1
  -6.17029E+0   9.32744E+0
   1.73850E+2   5.01805E+1
   1.29147E+2  -8.27054E+1
   4.92618E+1  -1.27574E+0
  -2.02157E+2  -5.09516E+1
   1.91216E+2   1.56575E+1
  -3.43368E+0  -2.40179E+2
   2.08300E+1  -7.13054E+1
   1.75909E+2  -1.68618E+2
  -9.41426E+0   1.50152E+2
   8.24389E+0   1.78474E+2
   8.82401E+1  -2.47626E+2
   9.62972E+1  -2.35469E+1
  -6.99659E+1   1.61102E+1
  -1.41061E+2  -7.83214E+1
   1.03602E+2   6.48649E+1
  -1.21926E+1   7.66909E+1
   2.14893E+2   1.52085E+2
   2.00335E+2   1.28774E+2
   1.17402E+1   1.40709E+2
   6.26683E+1  -2.47695E+0
   1.03198E+2   1.21429E+2
  -8.49498E+1   7.06677E+1
  -1.11632E+2   1.60884E+1
  -8.17450E+1  -4.91657E+1
  -1.64896E+2   1.44436E+2
  -2.17012E+2   7.42140E+1
   2.55973E+2   2.35611E+1
   2.95953E+1  -1.33461E+1
  -1.60580E+2  -9.97304E+1
