 
 $NMID
 ID=''
 FMTDAT='(2E13.5)'
 TRAMP=   1.00000E+0
 VOLUME=   1.00000E+0
 $END
  -6.22334E+5   2.13293E+5
  -1.68006E+6  -1.90502E+4
  -1.56953E+6   1.49121E+5
  -1.48232E+6  -3.64518E+4
  -1.62484E+6  -1.14215E+5
  -1.61274E+6  -3.24099E+4
  -1.51306E+6  -5.69330E+4
  -1.50925E+6  -1.17190E+5
  -1.49484E+6  -1.44998E+5
  -1.50653E+6  -1.93306E+5
  -1.53526E+6  -1.74255E+5
  -1.47300E+6  -1.44965E+5
  -1.41855E+6  -2.03629E+5
  -1.43876E+6  -2.45052E+5
  -1.43920E+6  -2.37052E+5
  -1.42283E+6  -2.35816E+5
  -1.41002E+6  -2.38332E+5
  -1.36806E+6  -2.64335E+5
  -1.35257E+6  -3.14612E+5
  -1.36677E+6  -3.27907E+5
  -1.34632E+6  -3.27165E+5
  -1.31702E+6  -3.46414E+5
  -1.30175E+6  -3.62381E+5
  -1.28209E+6  -3.83147E+5
  -1.26943E+6  -4.07194E+5
  -1.26432E+6  -4.01306E+5
  -1.24308E+6  -4.00152E+5
  -1.22370E+6  -4.14918E+5
  -1.20856E+6  -4.23648E+5
  -1.19278E+6  -4.28056E+5
  -1.18354E+6  -4.41706E+5
  -1.16847E+6  -4.45749E+5
  -1.14349E+6  -4.54597E+5
  -1.12565E+6  -4.68238E+5
  -1.11138E+6  -4.75702E+5
  -1.09449E+6  -4.84179E+5
  -1.08071E+6  -4.96153E+5
  -1.06258E+6  -5.02273E+5
  -1.04060E+6  -5.06713E+5
  -1.02627E+6  -5.13794E+5
  -1.01175E+6  -5.17581E+5
  -9.94740E+5  -5.19167E+5
  -9.79667E+5  -5.18366E+5
  -9.64717E+5  -5.18397E+5
  -9.46399E+5  -5.21184E+5
  -9.32743E+5  -5.24818E+5
  -9.18449E+5  -5.28079E+5
  -8.99461E+5  -5.31837E+5
  -8.79307E+5  -5.33192E+5
  -8.60664E+5  -5.35495E+5
  -8.43403E+5  -5.40931E+5
  -8.26565E+5  -5.45591E+5
  -8.10460E+5  -5.46828E+5
  -7.92869E+5  -5.48714E+5
  -7.74302E+5  -5.50878E+5
  -7.55688E+5  -5.53662E+5
  -7.39476E+5  -5.55605E+5
  -7.24204E+5  -5.54728E+5
  -7.07887E+5  -5.52215E+5
  -6.90932E+5  -5.52385E+5
  -6.73900E+5  -5.53978E+5
  -6.57875E+5  -5.55383E+5
  -6.42867E+5  -5.55929E+5
  -6.25633E+5  -5.55193E+5
  -6.06481E+5  -5.54714E+5
  -5.88400E+5  -5.54578E+5
  -5.72092E+5  -5.55189E+5
  -5.57022E+5  -5.54742E+5
  -5.41897E+5  -5.54076E+5
  -5.25328E+5  -5.53607E+5
  -5.07619E+5  -5.53303E+5
  -4.92738E+5  -5.52278E+5
  -4.80362E+5  -5.51576E+5
  -4.66700E+5  -5.50287E+5
  -4.50503E+5  -5.47979E+5
  -4.34442E+5  -5.46366E+5
  -4.20652E+5  -5.45843E+5
  -4.06981E+5  -5.45581E+5
  -3.92717E+5  -5.43360E+5
  -3.77689E+5  -5.40864E+5
  -3.62363E+5  -5.38981E+5
  -3.48088E+5  -5.37828E+5
  -3.35813E+5  -5.36360E+5
  -3.23064E+5  -5.33996E+5
  -3.09783E+5  -5.30243E+5
  -2.97119E+5  -5.26764E+5
  -2.85232E+5  -5.24390E+5
  -2.74324E+5  -5.21925E+5
  -2.64153E+5  -5.17784E+5
  -2.54195E+5  -5.12756E+5
  -2.43899E+5  -5.08141E+5
  -2.33292E+5  -5.04755E+5
  -2.22938E+5  -5.01488E+5
  -2.12944E+5  -4.96689E+5
  -2.03263E+5  -4.90959E+5
  -1.93870E+5  -4.85780E+5
  -1.84086E+5  -4.81655E+5
  -1.74907E+5  -4.77470E+5
  -1.65852E+5  -4.72029E+5
  -1.57891E+5  -4.66091E+5
  -1.49352E+5  -4.60377E+5
  -1.40972E+5  -4.55315E+5
  -1.32840E+5  -4.49082E+5
  -1.25897E+5  -4.42320E+5
  -1.19481E+5  -4.35864E+5
  -1.12797E+5  -4.29677E+5
  -1.05630E+5  -4.23826E+5
  -9.80750E+4  -4.17210E+5
  -9.16746E+4  -4.09606E+5
  -8.57690E+4  -4.02521E+5
  -7.96098E+4  -3.95901E+5
  -7.27340E+4  -3.89676E+5
  -6.59938E+4  -3.83067E+5
  -5.96343E+4  -3.75974E+5
  -5.37409E+4  -3.69019E+5
  -4.75652E+4  -3.62324E+5
  -4.10157E+4  -3.55348E+5
  -3.49720E+4  -3.47697E+5
  -3.00371E+4  -3.40572E+5
  -2.52659E+4  -3.33692E+5
  -2.03225E+4  -3.26908E+5
  -1.49979E+4  -3.20323E+5
  -9.73322E+3  -3.13261E+5
  -4.80113E+3  -3.06672E+5
  -1.39706E+2  -3.00014E+5
   4.64318E+3  -2.93075E+5
   9.10181E+3  -2.85907E+5
   1.34700E+4  -2.79160E+5
   1.76893E+4  -2.72884E+5
   2.23418E+4  -2.66500E+5
   2.67464E+4  -2.59986E+5
   3.06833E+4  -2.53214E+5
   3.47596E+4  -2.46402E+5
   3.84246E+4  -2.40557E+5
   4.19472E+4  -2.34236E+5
   4.51183E+4  -2.28198E+5
   4.81040E+4  -2.22108E+5
   5.11245E+4  -2.16237E+5
   5.45855E+4  -2.10129E+5
   5.76981E+4  -2.04524E+5
   6.07592E+4  -1.98336E+5
   6.27182E+4  -1.92237E+5
   6.45904E+4  -1.86704E+5
   6.70103E+4  -1.81664E+5
   6.94757E+4  -1.76450E+5
   7.09510E+4  -1.70621E+5
   7.22623E+4  -1.65008E+5
   7.37921E+4  -1.59810E+5
   7.50596E+4  -1.54598E+5
   7.63239E+4  -1.49621E+5
   7.70878E+4  -1.44687E+5
   7.75127E+4  -1.39710E+5
   7.78820E+4  -1.35237E+5
   7.86590E+4  -1.30533E+5
   7.91341E+4  -1.25698E+5
   7.92536E+4  -1.20935E+5
   7.90377E+4  -1.16796E+5
   7.91918E+4  -1.12160E+5
   7.90429E+4  -1.07669E+5
   7.89043E+4  -1.03269E+5
   7.86648E+4  -9.91302E+4
   7.83761E+4  -9.51549E+4
   7.76849E+4  -9.08215E+4
   7.68729E+4  -8.65095E+4
   7.61432E+4  -8.25375E+4
   7.52838E+4  -7.89545E+4
   7.46644E+4  -7.51238E+4
   7.38557E+4  -7.17401E+4
   7.27379E+4  -6.78909E+4
   7.17009E+4  -6.43507E+4
   7.05174E+4  -6.11274E+4
   6.95048E+4  -5.77782E+4
   6.82238E+4  -5.44631E+4
   6.71737E+4  -5.12143E+4
   6.56707E+4  -4.80686E+4
   6.43770E+4  -4.52216E+4
   6.31489E+4  -4.21378E+4
   6.20173E+4  -3.91283E+4
   6.03034E+4  -3.62818E+4
   5.88471E+4  -3.35837E+4
   5.76286E+4  -3.09544E+4
   5.62635E+4  -2.83486E+4
   5.47641E+4  -2.58135E+4
   5.32324E+4  -2.33439E+4
   5.15427E+4  -2.10410E+4
   5.02889E+4  -1.86466E+4
   4.86596E+4  -1.62814E+4
   4.67699E+4  -1.43211E+4
   4.52028E+4  -1.24138E+4
   4.35839E+4  -1.06025E+4
   4.22090E+4  -8.67654E+3
   4.06871E+4  -6.53062E+3
   3.86884E+4  -4.70038E+3
   3.71480E+4  -3.10463E+3
   3.54502E+4  -1.40332E+3
   3.39486E+4   1.22888E+2
   3.22896E+4   1.80065E+3
   3.06337E+4   2.99051E+3
   2.88685E+4   4.65350E+3
   2.73070E+4   6.07275E+3
   2.54532E+4   7.54304E+3
   2.39055E+4   8.58565E+3
   2.22281E+4   9.46526E+3
   2.05168E+4   1.08179E+4
   1.88211E+4   1.19028E+4
   1.71550E+4   1.27436E+4
   1.55053E+4   1.37892E+4
   1.37822E+4   1.44146E+4
   1.21116E+4   1.55459E+4
   1.04083E+4   1.61836E+4
   8.74315E+3   1.69458E+4
   7.17197E+3   1.74617E+4
   5.57843E+3   1.77759E+4
   4.08752E+3   1.84126E+4
   2.30658E+3   1.88533E+4
   9.09331E+2   1.92804E+4
  -5.99971E+2   1.97141E+4
  -2.07984E+3   1.99592E+4
  -3.66216E+3   2.01760E+4
  -4.87234E+3   2.03157E+4
  -6.30680E+3   2.07379E+4
  -7.70334E+3   2.05610E+4
  -8.93214E+3   2.07066E+4
  -1.02491E+4   2.09045E+4
  -1.15325E+4   2.03531E+4
  -1.28179E+4   2.03993E+4
  -1.40293E+4   2.02810E+4
  -1.51999E+4   2.02028E+4
  -1.63585E+4   2.00862E+4
  -1.75950E+4   1.96900E+4
  -1.88656E+4   1.94259E+4
  -1.99417E+4   1.93335E+4
  -2.06793E+4   1.87415E+4
  -2.16971E+4   1.85331E+4
  -2.29843E+4   1.80987E+4
  -2.38809E+4   1.79384E+4
  -2.47475E+4   1.75591E+4
  -2.52939E+4   1.68209E+4
  -2.63355E+4   1.63020E+4
  -2.72618E+4   1.56647E+4
  -2.76846E+4   1.53600E+4
  -2.86600E+4   1.49887E+4
  -2.92720E+4   1.42234E+4
  -2.98717E+4   1.37127E+4
  -3.06519E+4   1.31700E+4
  -3.11103E+4   1.26805E+4
  -3.17823E+4   1.17760E+4
  -3.23478E+4   1.13189E+4
  -3.28717E+4   1.06967E+4
  -3.32729E+4   9.93052E+3
  -3.39205E+4   9.58096E+3
  -3.42308E+4   8.57969E+3
  -3.49435E+4   8.21121E+3
  -3.50803E+4   7.11138E+3
  -3.53721E+4   6.45919E+3
  -3.57232E+4   6.02922E+3
  -3.58293E+4   5.41906E+3
  -3.62302E+4   4.61668E+3
  -3.65168E+4   3.64786E+3
  -3.67495E+4   3.05810E+3
  -3.69603E+4   2.27859E+3
  -3.71656E+4   1.45406E+3
  -3.74157E+4   6.02013E+2
  -3.73798E+4   1.98015E+2
  -3.75652E+4  -9.65145E+2
  -3.74706E+4  -1.47688E+3
  -3.76376E+4  -2.14583E+3
  -3.76233E+4  -3.11885E+3
  -3.75355E+4  -4.00998E+3
  -3.76693E+4  -4.58806E+3
  -3.74599E+4  -5.26953E+3
  -3.74062E+4  -6.04911E+3
  -3.71349E+4  -6.72871E+3
  -3.71556E+4  -7.50629E+3
  -3.69296E+4  -8.51252E+3
  -3.69469E+4  -9.06519E+3
  -3.65802E+4  -9.85678E+3
  -3.62980E+4  -1.06288E+4
  -3.62949E+4  -1.13767E+4
  -3.61409E+4  -1.22188E+4
  -3.57776E+4  -1.27536E+4
  -3.54725E+4  -1.35376E+4
  -3.53744E+4  -1.43910E+4
  -3.53398E+4  -1.51174E+4
  -3.50740E+4  -1.55555E+4
  -3.44557E+4  -1.63963E+4
  -3.41076E+4  -1.67587E+4
  -3.40736E+4  -1.74698E+4
  -3.39513E+4  -1.80355E+4
  -3.35523E+4  -1.85847E+4
  -3.33402E+4  -1.94946E+4
  -3.28692E+4  -1.99170E+4
  -3.26731E+4  -2.06654E+4
  -3.19758E+4  -2.09025E+4
  -3.21529E+4  -2.16753E+4
  -3.17868E+4  -2.20991E+4
  -3.10917E+4  -2.26423E+4
  -3.09379E+4  -2.29253E+4
  -3.04952E+4  -2.36547E+4
  -2.99899E+4  -2.39764E+4
  -2.96456E+4  -2.45263E+4
  -2.94285E+4  -2.49397E+4
  -2.91412E+4  -2.52598E+4
  -2.91136E+4  -2.56543E+4
  -2.82413E+4  -2.61925E+4
  -2.77430E+4  -2.63302E+4
  -2.76939E+4  -2.65879E+4
  -2.69831E+4  -2.70187E+4
  -2.67068E+4  -2.75837E+4
  -2.60571E+4  -2.77327E+4
  -2.56973E+4  -2.78366E+4
  -2.53766E+4  -2.83223E+4
  -2.49702E+4  -2.85102E+4
  -2.46700E+4  -2.84916E+4
  -2.38514E+4  -2.88150E+4
  -2.34759E+4  -2.91585E+4
  -2.29673E+4  -2.91762E+4
  -2.25948E+4  -2.92541E+4
  -2.20726E+4  -2.96837E+4
  -2.17922E+4  -2.97156E+4
  -2.09136E+4  -2.96329E+4
  -2.06747E+4  -2.98724E+4
  -2.00833E+4  -3.01778E+4
  -1.96558E+4  -3.01704E+4
  -1.91627E+4  -3.03329E+4
  -1.85353E+4  -3.02730E+4
  -1.83786E+4  -3.05767E+4
  -1.75497E+4  -3.06385E+4
  -1.70543E+4  -3.06019E+4
  -1.62977E+4  -3.04085E+4
  -1.60606E+4  -3.05146E+4
  -1.54200E+4  -3.05994E+4
  -1.49314E+4  -3.05148E+4
  -1.45851E+4  -3.05087E+4
  -1.40214E+4  -3.05642E+4
  -1.35979E+4  -3.06482E+4
  -1.27893E+4  -3.08937E+4
  -1.25587E+4  -3.03054E+4
  -1.20598E+4  -3.06657E+4
  -1.14773E+4  -3.02902E+4
  -1.11997E+4  -3.03745E+4
  -1.06728E+4  -3.04327E+4
  -9.89705E+3  -3.00447E+4
  -9.65184E+3  -3.01650E+4
  -9.12146E+3  -2.97450E+4
  -8.73328E+3  -3.00980E+4
  -7.91713E+3  -2.97410E+4
  -7.86051E+3  -2.95041E+4
  -7.59196E+3  -2.92568E+4
  -7.22941E+3  -2.93772E+4
  -6.69723E+3  -2.93191E+4
  -6.26802E+3  -2.88584E+4
  -5.71200E+3  -2.86284E+4
  -5.28865E+3  -2.84821E+4
  -5.13010E+3  -2.85778E+4
  -4.42182E+3  -2.80962E+4
  -4.04799E+3  -2.79251E+4
  -3.83909E+3  -2.79304E+4
  -3.56878E+3  -2.76623E+4
  -2.96663E+3  -2.75046E+4
  -2.43764E+3  -2.74235E+4
  -2.20060E+3  -2.68671E+4
  -1.86233E+3  -2.64958E+4
  -1.56031E+3  -2.62132E+4
  -1.19198E+3  -2.60371E+4
  -6.84475E+2  -2.59081E+4
  -4.27785E+2  -2.56188E+4
