 LCModel (Version 6.3-1N) Copyright: S.W. Provencher.          Ref.: Magn. Reson. Med. 30:672-679 (1993).                
 Slice_N1@15_19  28-Feb-2025 11:38:52
 27 lines in following concentration table = NCONC+1
    Conc.  %SD /Cr+PCr  Metabolite                                         
 2.60E-04   4% 2.4E-04 Mac                                                 
    4.269  22%   3.864 Cr                                                  
    4.570  20%   4.136 PCr                                                 
    7.207  12%   6.523 Ins                                                 
   10.614   7%   9.607 NAA                                                 
    6.171  14%   5.586 Tau                                                 
    0.768  91%   0.695 PCho                                                
    1.313  51%   1.188 GPC                                                 
    6.961  14%   6.301 Glu                                                 
    3.701  22%   3.350 Gln                                                 
    4.384  15%   3.968 Ala                                                 
    4.587  26%   4.151 Asc                                                 
    2.754  35%   2.492 Asp                                                 
    0.251 208%   0.227 GABA                                                
    1.049  67%   0.949 Glc                                                 
    1.692  28%   1.532 GSH                                                 
    0.000 999%   0.000 Lac                                                 
    1.146  45%   1.038 NAAG                                                
    0.686 152%   0.621 PE                                                  
    2.081  14%   1.883 GPC+PCho                                            
   11.761   7%  10.645 NAA+NAAG                                            
   10.663  12%   9.651 Glu+Gln                                             
    8.839   8%   8.000 Cr+PCr                                              
   11.761   7%  10.645 NAA+NAAG                                            
    8.839   8%   8.000 Cr+PCr                                              
   10.663  12%   9.651 Glu+Gln                                             
   6 lines in following misc. output table
  FWHM = 0.016 ppm    S/N =   4                                            
  Data shift = 0.024 ppm                                                   
  Ph: -99 deg       0.0 deg/ppm                                            
  alphaB,S = 9.7E-01,   3.9E-01                                            
   19 spline knots.   Ns = 5(1)                                            
   2 inflections.     2 extrema                                            
  480 points on ppm-axis = NY
      4.100000     4.091866     4.083733     4.075600     4.067466     4.059333     4.051199     4.043066     4.034933     4.026799
      4.018666     4.010532     4.002399     3.994265     3.986132     3.977998     3.969864     3.961731     3.953597     3.945463
      3.937330     3.929196     3.921062     3.912929     3.904795     3.896662     3.888528     3.880394     3.872261     3.864127
      3.855993     3.847860     3.839726     3.831592     3.823459     3.815325     3.807191     3.799058     3.790924     3.782790
      3.774657     3.766523     3.758389     3.750256     3.742122     3.733989     3.725855     3.717721     3.709588     3.701454
      3.693320     3.685187     3.677053     3.668919     3.660786     3.652652     3.644518     3.636385     3.628251     3.620117
      3.611984     3.603850     3.595716     3.587583     3.579449     3.571316     3.563182     3.555048     3.546915     3.538781
      3.530647     3.522514     3.514380     3.506246     3.498113     3.489979     3.481845     3.473712     3.465578     3.457444
      3.449311     3.441177     3.433043     3.424910     3.416776     3.408643     3.400509     3.392375     3.384242     3.376108
      3.367974     3.359841     3.351707     3.343573     3.335440     3.327306     3.319172     3.311039     3.302905     3.294771
      3.286638     3.278504     3.270370     3.262237     3.254103     3.245970     3.237836     3.229702     3.221569     3.213435
      3.205301     3.197168     3.189034     3.180900     3.172767     3.164633     3.156499     3.148366     3.140232     3.132098
      3.123965     3.115831     3.107697     3.099564     3.091430     3.083297     3.075163     3.067029     3.058896     3.050762
      3.042628     3.034495     3.026361     3.018227     3.010094     3.001960     2.993826     2.985693     2.977559     2.969425
      2.961292     2.953158     2.945024     2.936891     2.928757     2.920624     2.912490     2.904356     2.896223     2.888089
      2.879955     2.871822     2.863688     2.855554     2.847421     2.839287     2.831153     2.823020     2.814886     2.806752
      2.798619     2.790485     2.782351     2.774218     2.766084     2.757951     2.749817     2.741683     2.733550     2.725416
      2.717282     2.709149     2.701015     2.692881     2.684748     2.676614     2.668480     2.660347     2.652213     2.644079
      2.635946     2.627812     2.619678     2.611545     2.603411     2.595278     2.587144     2.579010     2.570877     2.562743
      2.554609     2.546476     2.538342     2.530208     2.522075     2.513941     2.505807     2.497674     2.489540     2.481406
      2.473273     2.465139     2.457006     2.448872     2.440738     2.432605     2.424471     2.416337     2.408204     2.400070
      2.391936     2.383803     2.375669     2.367535     2.359402     2.351268     2.343134     2.335001     2.326867     2.318733
      2.310600     2.302466     2.294333     2.286199     2.278065     2.269932     2.261798     2.253664     2.245531     2.237397
      2.229263     2.221130     2.212996     2.204862     2.196729     2.188595     2.180461     2.172328     2.164194     2.156060
      2.147927     2.139793     2.131660     2.123526     2.115392     2.107259     2.099125     2.090991     2.082858     2.074724
      2.066590     2.058457     2.050323     2.042189     2.034056     2.025922     2.017788     2.009655     2.001521     1.993387
      1.985254     1.977120     1.968987     1.960853     1.952719     1.944586     1.936452     1.928318     1.920185     1.912051
      1.903917     1.895784     1.887650     1.879516     1.871383     1.863249     1.855115     1.846982     1.838848     1.830714
      1.822581     1.814447     1.806314     1.798180     1.790046     1.781913     1.773779     1.765645     1.757512     1.749378
      1.741244     1.733111     1.724977     1.716843     1.708710     1.700576     1.692442     1.684309     1.676175     1.668041
      1.659908     1.651774     1.643641     1.635507     1.627373     1.619240     1.611106     1.602972     1.594839     1.586705
      1.578571     1.570438     1.562304     1.554170     1.546037     1.537903     1.529769     1.521636     1.513502     1.505368
      1.497235     1.489101     1.480968     1.472834     1.464700     1.456567     1.448433     1.440299     1.432166     1.424032
      1.415898     1.407765     1.399631     1.391497     1.383364     1.375230     1.367096     1.358963     1.350829     1.342695
      1.334562     1.326428     1.318295     1.310161     1.302027     1.293894     1.285760     1.277626     1.269493     1.261359
      1.253225     1.245092     1.236958     1.228824     1.220691     1.212557     1.204423     1.196290     1.188156     1.180022
      1.171889     1.163755     1.155622     1.147488     1.139354     1.131221     1.123087     1.114953     1.106820     1.098686
      1.090552     1.082419     1.074285     1.066151     1.058018     1.049884     1.041750     1.033617     1.025483     1.017349
      1.009216     1.001082     0.992949     0.984815     0.976681     0.968548     0.960414     0.952280     0.944147     0.936013
      0.927879     0.919746     0.911612     0.903478     0.895345     0.887211     0.879077     0.870944     0.862810     0.854676
      0.846543     0.838409     0.830276     0.822142     0.814008     0.805875     0.797741     0.789607     0.781474     0.773340
      0.765206     0.757073     0.748939     0.740805     0.732672     0.724538     0.716404     0.708271     0.700137     0.692003
      0.683870     0.675736     0.667603     0.659469     0.651335     0.643202     0.635068     0.626934     0.618801     0.610667
      0.602533     0.594400     0.586266     0.578132     0.569999     0.561865     0.553731     0.545598     0.537464     0.529330
      0.521197     0.513063     0.504930     0.496796     0.488662     0.480529     0.472395     0.464261     0.456128     0.447994
      0.439861     0.431727     0.423593     0.415460     0.407326     0.399192     0.391059     0.382925     0.374792     0.366658
      0.358524     0.350391     0.342257     0.334124     0.325990     0.317856     0.309723     0.301589     0.293455     0.285322
      0.277188     0.269055     0.260921     0.252787     0.244654     0.236520     0.228386     0.220253     0.212119     0.203986
 NY phased data points follow
  -7.92606E+01 -8.46630E+01 -8.81313E+01 -9.95221E+01 -1.11793E+02 -9.09174E+01 -8.42515E+01 -7.45253E+01 -9.12990E+01 -8.77272E+01
  -8.93241E+01 -9.46801E+01 -9.64930E+01 -1.21578E+02 -1.06128E+02 -1.13892E+02 -1.19190E+02 -1.17294E+02 -1.23434E+02 -1.32355E+02
  -1.78621E+02 -1.63798E+02 -1.18114E+02 -1.26288E+02 -8.95609E+01 -5.56036E+01 -6.06126E+01 -5.31628E+01 -6.18223E+01 -6.05006E+01
  -6.12088E+01 -4.65031E+01 -5.76282E+01 -6.80949E+01 -5.53288E+01 -6.22794E+01 -4.39788E+01 -5.92918E+01 -8.03179E+01 -8.72510E+01
  -9.66112E+01 -1.17661E+02 -1.13091E+02 -1.08537E+02 -1.19557E+02 -8.04804E+01 -5.74892E+01 -2.91428E+01 -3.47444E+01 -2.27619E+01
  -2.89499E+00 -2.81215E+01 -1.82697E+01 -2.75985E+01 -3.47849E+01 -4.17533E+01 -4.53828E+01 -5.55949E+01 -7.29984E+01 -9.89641E+01
  -8.66855E+01 -4.69216E+01 -8.11322E+01 -5.26874E+01 -1.94077E+01 -1.15550E+01  9.33005E+00 -2.56296E+01 -3.74949E+01 -7.61603E+01
  -1.03743E+02 -6.79345E+01 -7.13068E+01 -6.54732E+01 -3.63629E+01 -2.35697E+01 -1.71540E+01 -1.99882E+01 -4.02044E+00  4.00198E+00
  -4.30510E+00 -9.96207E+00 -2.50573E+01 -3.93849E+01 -6.34441E+01 -7.63808E+01 -5.87246E+01 -5.17509E+01 -4.45639E+01 -1.12196E+01
   1.05889E-01 -1.14728E+00  6.33157E-01  1.63135E+00  2.13548E+01  2.41211E+01  1.52258E+01  3.32594E+01  3.41208E+01  1.22257E+01
   2.75909E+01  2.22195E+01  2.60424E+00 -6.22950E+00 -1.61327E+01 -2.02036E+01 -5.13067E+01 -5.32104E+01 -4.78153E+01 -7.01899E+01
  -1.47476E+02 -2.13156E+02 -1.75575E+02 -1.40238E+02 -1.19056E+02 -1.02841E+02 -9.00442E+01 -7.49997E+01 -6.38750E+01 -6.12350E+01
  -6.36181E+01 -4.84545E+01 -5.36336E+01 -5.11618E+01 -3.39903E+01 -2.63562E+01 -2.06881E+01 -1.68600E+01  1.41328E+01  5.23086E+01
   8.72104E+01  1.31871E+02  5.85823E+01 -9.01670E+01 -1.29448E+02 -1.17829E+02 -1.18989E+02 -1.26546E+02 -1.05076E+02 -9.54255E+01
  -1.13390E+02 -1.02804E+02 -1.09134E+02 -9.86785E+01 -9.40738E+01 -1.04007E+02 -1.02955E+02 -1.16527E+02 -9.58298E+01 -8.17952E+01
  -1.03941E+02 -9.19029E+01 -7.41319E+01 -8.95228E+01 -7.87956E+01 -7.49498E+01 -8.04098E+01 -7.39360E+01 -8.42574E+01 -6.78033E+01
  -6.21774E+01 -6.98810E+01 -6.77121E+01 -7.57821E+01 -6.82403E+01 -6.64759E+01 -6.67133E+01 -5.82544E+01 -6.84701E+01 -6.82289E+01
  -5.88275E+01 -5.75255E+01 -2.17172E+01 -1.54744E+01 -4.63775E+01 -4.11143E+01 -3.24433E+01 -1.36734E+01 -1.22561E+01 -3.92569E+01
  -5.53322E+01 -6.14690E+01 -6.41457E+01 -7.42542E+01 -7.09318E+01 -8.07513E+01 -8.48365E+01 -8.21208E+01 -8.96887E+01 -6.52289E+01
  -6.41044E+01 -6.40734E+01 -5.49533E+01 -6.35027E+01 -4.37550E+01 -4.61959E+01 -5.63573E+01 -4.64278E+01 -4.26221E+01 -3.57615E+01
  -5.11790E+01 -4.98469E+01 -3.18073E+01 -1.90042E+01 -1.42485E+01 -3.69333E+01 -3.82090E+01 -4.53415E+01 -5.46281E+01 -6.36468E+01
  -6.63821E+01 -6.44880E+01 -8.49013E+01 -5.66068E+01 -5.51952E+01 -4.61842E+01  6.94721E+00  6.94904E+00  1.54882E+00 -6.47227E+00
  -2.31146E+01 -3.55632E+01 -3.92992E+01 -4.21797E+01 -5.77951E+01 -6.13199E+01 -4.87297E+01 -4.71454E+01 -3.92470E+01 -3.36603E+01
  -4.33815E+01 -4.85341E+01 -6.00260E+01 -5.00581E+01 -6.54710E+01 -7.48075E+01 -7.32707E+01 -9.11079E+01 -8.61049E+01 -9.94800E+01
  -8.53497E+01 -7.72664E+01 -8.42047E+01 -7.30897E+01 -6.92405E+01 -4.94968E+01 -3.51303E+01 -4.30357E+01 -4.47765E+01 -5.61737E+01
  -8.25970E+01 -6.88652E+01 -6.02728E+01 -5.52637E+01 -8.46499E+01 -1.22309E+02 -1.77356E+02 -1.77513E+02  5.14974E+01  1.46881E+02
   9.08403E+01  8.92940E+01  7.71760E+01  8.48300E+01  6.94565E+01  6.71673E+01  6.01533E+01  4.55299E+01  3.72636E+01  3.15967E+01
   4.95539E+01  4.16152E+01  3.87566E+01  4.60651E+01  4.09066E+01  3.83941E+01  4.03679E+01  3.72444E+01  3.63524E+01  4.11466E+01
   4.44273E+01  4.60033E+01  4.13303E+01  4.08512E+01  4.54356E+01  2.25568E+01  1.43666E+01  2.43366E+01  1.47556E+01  2.87898E+01
   2.65925E+01  2.47705E+01  3.12816E+01  1.25493E+01  1.51481E+01  2.45693E+01  1.26150E+01  1.23748E+01  8.36211E+00 -1.84462E+01
  -4.84459E+00  3.02523E+00  7.49303E+00  1.06664E+01  1.26113E+01  1.69678E+01  4.16759E-01  2.34523E+01  1.63711E+01  2.01157E+01
   2.55331E+01  1.41940E+01  2.34966E+01  8.78182E+00  1.11274E+01  4.20609E+00  1.24332E+01  5.37027E+00 -1.09483E+01 -1.06298E+01
  -3.17499E+01 -2.44790E+01 -3.53039E+01 -7.14967E+01 -6.04281E+01 -5.00641E+01 -6.97708E+01 -6.95532E+01 -6.81097E+01 -6.52409E+01
  -7.90156E+01 -7.43505E+01 -6.03182E+01 -7.30429E+01 -6.27952E+01 -6.69436E+01 -5.84511E+01 -5.33377E+01 -4.33877E+01 -2.28418E+01
  -8.57641E+00  4.84514E+00  1.86218E+00  1.17136E+01  9.15490E+00  2.76659E+01  2.36332E+01  1.91099E+01  3.26809E+01  1.17941E+01
   1.27030E+01 -4.84006E+00 -1.87510E+01 -2.11380E+01 -3.55428E+01 -2.70264E+01 -2.56696E+01 -4.15761E+01 -4.49949E+01 -4.49827E+01
  -4.74671E+01 -4.59790E+01 -4.44650E+01 -3.88136E+01 -3.48110E+01 -2.35122E+01 -1.76764E+01 -2.48956E+01 -1.62304E+01 -2.20530E+00
  -1.53949E+01 -2.66850E+00  1.82964E+01  1.02480E+01  1.19981E+01  5.90144E+00  2.23614E+01  3.40676E+01  3.23217E+01  3.61673E+01
   3.38469E+01  4.14526E+01  4.52849E+01  3.89615E+01  4.94868E+01  8.17083E+01  7.56767E+01  9.69480E+01  1.13179E+02  9.88457E+01
   1.10373E+02  1.07279E+02  9.74959E+01  6.30608E+01  5.94664E+01  4.22279E+01  3.01146E+01  4.36081E+01  1.26906E+01  1.75043E+01
   7.46423E+00 -7.13191E+00 -1.52076E+01 -3.07686E+01 -2.45880E+01 -3.11497E+01 -3.42310E+01 -4.31204E+01 -4.32211E+01 -4.07232E+01
  -4.39619E+01 -4.12814E+01 -4.79802E+01 -4.77057E+01 -4.11100E+01 -4.15870E+01 -4.63621E+01 -3.70105E+01 -2.84223E+01 -4.13713E+01
  -4.48818E+01 -3.62237E+01 -3.59513E+01 -3.79360E+01 -3.64053E+01 -3.90937E+01 -4.34394E+01 -3.73587E+01 -3.43770E+01 -4.02485E+01
  -3.97821E+01 -3.35752E+01 -3.88038E+01 -4.99771E+01 -4.66341E+01 -3.83057E+01 -3.86794E+01 -3.23218E+01 -2.30090E+01 -3.58343E+01
  -3.84061E+01 -3.65856E+01 -4.39077E+01 -4.06449E+01 -3.18749E+01 -2.27529E+01 -3.22536E+01 -3.80672E+01 -3.33878E+01 -3.26079E+01
  -3.77365E+01 -3.21980E+01 -3.31271E+01 -4.65550E+01 -3.08200E+01 -3.00479E+01 -3.42443E+01 -3.23708E+01 -3.28028E+01 -2.35991E+01
  -2.77013E+01 -3.87422E+01 -3.76654E+01 -2.94508E+01 -2.94577E+01 -2.09794E+01 -2.92250E+01 -3.00049E+01 -2.57847E+01 -3.20029E+01
  -2.03311E+01 -3.05473E+01 -2.89329E+01 -3.32803E+01 -3.78737E+01 -1.90478E+01 -2.52809E+01 -2.10494E+01 -1.40320E+01 -2.12498E+01
 NY points of the fit to the data follow
  -8.90833E+01 -9.56870E+01 -1.06374E+02 -1.15875E+02 -1.20509E+02 -1.07205E+02 -8.07177E+01 -7.15226E+01 -8.34360E+01 -9.37869E+01
  -9.73664E+01 -1.00302E+02 -9.97442E+01 -9.45959E+01 -9.59251E+01 -9.66814E+01 -9.50178E+01 -1.04314E+02 -1.14693E+02 -1.24186E+02
  -1.57484E+02 -1.54761E+02 -1.10706E+02 -1.12904E+02 -8.79844E+01 -3.92330E+01 -4.22382E+01 -4.19912E+01 -3.20641E+01 -2.86254E+01
  -2.89305E+01 -3.14065E+01 -3.22858E+01 -3.48520E+01 -3.94005E+01 -4.67832E+01 -4.98861E+01 -5.37608E+01 -7.07554E+01 -8.78897E+01
  -1.11246E+02 -1.29715E+02 -1.11121E+02 -9.90796E+01 -9.57395E+01 -7.72205E+01 -5.63558E+01 -4.01675E+01 -3.34205E+01 -2.37698E+01
  -2.30646E+01 -2.30913E+01 -2.40390E+01 -3.52562E+01 -4.59660E+01 -5.13507E+01 -6.28319E+01 -6.06901E+01 -6.04555E+01 -8.86952E+01
  -7.93087E+01 -5.09749E+01 -6.42483E+01 -5.54403E+01 -2.49856E+01 -1.48657E+01 -1.24939E+01 -1.84164E+01 -3.49314E+01 -7.03602E+01
  -8.79262E+01 -6.38246E+01 -6.00179E+01 -6.70004E+01 -4.45519E+01 -2.45613E+01 -1.96893E+01 -1.52745E+01 -1.12468E+01 -6.77815E+00
  -3.66138E+00 -1.15847E+01 -2.42966E+01 -4.00059E+01 -6.24912E+01 -6.91538E+01 -6.33302E+01 -5.66259E+01 -3.72527E+01 -2.84915E+01
  -2.19756E+01 -1.51229E+01 -1.01553E+01 -5.17256E+00 -1.31891E+00  4.22057E+00  7.42549E+00  8.62670E+00  1.29232E+01  9.20454E+00
   5.70929E+00  1.97608E+01  1.18927E+01 -9.60838E+00 -1.84872E+01 -3.85000E+01 -5.05787E+01 -3.98457E+01 -3.65868E+01 -6.55769E+01
  -1.53475E+02 -2.05054E+02 -1.63426E+02 -1.33668E+02 -1.22653E+02 -1.07730E+02 -9.49115E+01 -8.47419E+01 -7.59717E+01 -6.87234E+01
  -6.17578E+01 -5.47795E+01 -4.76243E+01 -3.96856E+01 -3.02721E+01 -1.77570E+01 -5.93453E+00 -6.98637E+00  1.42535E+01  5.07408E+01
   7.84678E+01  1.17628E+02  5.92127E+01 -1.08913E+02 -1.51916E+02 -1.22236E+02 -1.24246E+02 -1.23226E+02 -1.15585E+02 -1.10862E+02
  -1.08279E+02 -1.06661E+02 -1.07421E+02 -1.08090E+02 -1.07248E+02 -1.07143E+02 -1.05440E+02 -1.01940E+02 -9.83357E+01 -9.52914E+01
  -9.31479E+01 -9.08406E+01 -8.91499E+01 -8.67718E+01 -8.29453E+01 -7.85581E+01 -7.50340E+01 -7.50361E+01 -7.66258E+01 -7.53669E+01
  -7.12434E+01 -6.61855E+01 -6.40433E+01 -6.87164E+01 -7.31465E+01 -7.17266E+01 -6.91828E+01 -6.96743E+01 -7.48968E+01 -7.55022E+01
  -6.68901E+01 -5.25612E+01 -3.34155E+01 -2.90737E+01 -4.77641E+01 -5.16942E+01 -3.72553E+01 -2.38926E+01 -1.88706E+01 -3.78898E+01
  -5.84112E+01 -6.04112E+01 -6.66053E+01 -7.24303E+01 -7.37327E+01 -7.44796E+01 -7.36232E+01 -7.38676E+01 -7.27526E+01 -6.96609E+01
  -7.15043E+01 -6.91997E+01 -6.54009E+01 -6.79455E+01 -5.41610E+01 -4.08927E+01 -5.01811E+01 -4.96746E+01 -3.72510E+01 -3.43771E+01
  -3.71223E+01 -4.24510E+01 -3.61443E+01 -2.54772E+01 -2.81077E+01 -3.55296E+01 -3.89367E+01 -4.17900E+01 -4.88159E+01 -5.81683E+01
  -6.15763E+01 -6.49921E+01 -7.40935E+01 -6.70476E+01 -5.48876E+01 -4.65053E+01 -1.80598E+01 -8.08512E+00 -1.15406E+01 -1.13593E+00
  -1.51758E+01 -2.26067E+01 -2.11802E+01 -2.12788E+01 -1.96602E+01 -2.04366E+01 -2.28534E+01 -2.76382E+01 -3.44959E+01 -4.25182E+01
  -5.14768E+01 -6.04698E+01 -7.03248E+01 -7.84626E+01 -8.58253E+01 -9.54983E+01 -9.92657E+01 -1.00507E+02 -1.05130E+02 -9.85781E+01
  -9.26110E+01 -9.24204E+01 -8.04364E+01 -7.09778E+01 -6.70439E+01 -5.45891E+01 -5.56345E+01 -5.37604E+01 -5.42545E+01 -6.26952E+01
  -6.66413E+01 -7.23210E+01 -6.33347E+01 -6.40101E+01 -9.04811E+01 -1.18713E+02 -1.93051E+02 -1.72211E+02  2.80837E+01  1.14581E+02
   7.86557E+01  7.62816E+01  7.61612E+01  6.74225E+01  6.16834E+01  5.68704E+01  5.18831E+01  4.76746E+01  4.47406E+01  4.16219E+01
   3.98859E+01  3.93204E+01  3.81697E+01  3.80622E+01  3.77468E+01  3.65101E+01  3.55440E+01  3.47408E+01  3.39886E+01  3.28494E+01
   3.10974E+01  2.92625E+01  2.73881E+01  2.62849E+01  2.44552E+01  2.21002E+01  2.06214E+01  1.87190E+01  1.63270E+01  1.39680E+01
   1.03982E+01  6.96773E+00  3.66906E+00 -4.55788E-01 -3.31487E+00 -4.60969E+00 -4.33853E+00 -2.80524E+00 -4.20666E-01  1.65069E+00
   3.93129E+00  6.95297E+00  1.00077E+01  1.25000E+01  1.47245E+01  1.69154E+01  1.89523E+01  2.12697E+01  2.45065E+01  2.74593E+01
   2.96888E+01  3.19257E+01  3.37458E+01  3.61110E+01  3.85033E+01  3.99018E+01  4.08635E+01  4.11130E+01  4.82807E+01  4.93704E+01
   4.97897E+01  4.61256E+01  7.59477E+00 -2.62891E+01 -3.26939E+01 -5.67857E+01 -4.99618E+01 -3.77041E+01 -4.19688E+01 -4.54805E+01
  -4.85458E+01 -5.28626E+01 -5.56594E+01 -5.60955E+01 -5.41315E+01 -4.94845E+01 -4.42910E+01 -3.97875E+01 -3.66413E+01 -3.42763E+01
  -3.27039E+01 -3.02764E+01 -2.57355E+01 -2.15746E+01 -1.72810E+01 -1.33920E+01 -1.20164E+01 -1.10509E+01 -1.01924E+01 -9.60932E+00
  -1.02265E+01 -1.24186E+01 -1.50809E+01 -1.94202E+01 -2.47310E+01 -2.81748E+01 -2.98725E+01 -3.10304E+01 -3.02784E+01 -2.87197E+01
  -2.64340E+01 -2.32047E+01 -2.00214E+01 -1.62074E+01 -1.25646E+01 -9.96155E+00 -6.77676E+00 -4.19790E+00 -1.41113E+00  1.88124E+00
   4.64179E+00  7.11301E+00  9.99594E+00  1.31656E+01  1.65178E+01  2.06921E+01  2.51697E+01  2.92339E+01  3.51321E+01  4.14384E+01
   4.71506E+01  5.32494E+01  6.11119E+01  6.90067E+01  7.63806E+01  8.27470E+01  8.60091E+01  8.49691E+01  7.90208E+01  6.87981E+01
   5.79561E+01  4.82383E+01  4.06183E+01  3.36644E+01  2.81085E+01  2.32458E+01  1.63008E+01  7.63324E+00 -9.51888E-01 -9.30556E+00
  -1.75993E+01 -2.36305E+01 -2.79278E+01 -3.14992E+01 -3.45498E+01 -3.59169E+01 -3.69156E+01 -3.77415E+01 -3.89257E+01 -3.98171E+01
  -4.04569E+01 -4.06867E+01 -4.04812E+01 -4.03515E+01 -4.05130E+01 -4.03812E+01 -3.98009E+01 -3.96717E+01 -4.02171E+01 -4.00287E+01
  -3.87917E+01 -3.86147E+01 -3.90931E+01 -3.86436E+01 -3.81140E+01 -3.80020E+01 -3.82483E+01 -3.80831E+01 -3.73510E+01 -3.65984E+01
  -3.62000E+01 -3.62110E+01 -3.63198E+01 -3.62321E+01 -3.61995E+01 -3.58906E+01 -3.50534E+01 -3.48761E+01 -3.43906E+01 -3.40067E+01
  -3.38542E+01 -3.34683E+01 -3.29684E+01 -3.30646E+01 -3.31894E+01 -3.29957E+01 -3.30184E+01 -3.22064E+01 -3.18402E+01 -3.17695E+01
  -3.12123E+01 -3.13128E+01 -3.13898E+01 -3.06369E+01 -3.01747E+01 -2.98278E+01 -2.94960E+01 -2.91612E+01 -2.89224E+01 -2.84650E+01
  -2.80843E+01 -2.77109E+01 -2.80647E+01 -2.78522E+01 -2.76693E+01 -2.75702E+01 -2.71479E+01 -2.62503E+01 -2.52516E+01 -2.47328E+01
  -2.48898E+01 -2.50269E+01 -2.52258E+01 -2.47994E+01 -2.42802E+01 -2.38906E+01 -2.36317E+01 -2.29247E+01 -2.28298E+01 -2.31498E+01
 NY background values follow
    -6.269E+01   -6.253E+01   -6.237E+01   -6.220E+01   -6.204E+01   -6.188E+01   -6.172E+01   -6.155E+01   -6.139E+01   -6.123E+01
    -6.106E+01   -6.090E+01   -6.074E+01   -6.057E+01   -6.041E+01   -6.025E+01   -6.008E+01   -5.992E+01   -5.976E+01   -5.960E+01
    -5.943E+01   -5.927E+01   -5.911E+01   -5.894E+01   -5.878E+01   -5.862E+01   -5.845E+01   -5.829E+01   -5.813E+01   -5.796E+01
    -5.780E+01   -5.764E+01   -5.747E+01   -5.731E+01   -5.715E+01   -5.698E+01   -5.682E+01   -5.666E+01   -5.649E+01   -5.633E+01
    -5.617E+01   -5.600E+01   -5.584E+01   -5.568E+01   -5.552E+01   -5.535E+01   -5.519E+01   -5.503E+01   -5.487E+01   -5.470E+01
    -5.454E+01   -5.438E+01   -5.422E+01   -5.406E+01   -5.390E+01   -5.373E+01   -5.357E+01   -5.341E+01   -5.325E+01   -5.309E+01
    -5.293E+01   -5.277E+01   -5.261E+01   -5.245E+01   -5.229E+01   -5.213E+01   -5.198E+01   -5.182E+01   -5.166E+01   -5.150E+01
    -5.135E+01   -5.119E+01   -5.103E+01   -5.088E+01   -5.072E+01   -5.056E+01   -5.041E+01   -5.025E+01   -5.010E+01   -4.994E+01
    -4.979E+01   -4.964E+01   -4.948E+01   -4.933E+01   -4.918E+01   -4.903E+01   -4.888E+01   -4.873E+01   -4.857E+01   -4.842E+01
    -4.828E+01   -4.813E+01   -4.798E+01   -4.783E+01   -4.768E+01   -4.753E+01   -4.739E+01   -4.724E+01   -4.710E+01   -4.695E+01
    -4.681E+01   -4.666E+01   -4.652E+01   -4.638E+01   -4.623E+01   -4.609E+01   -4.595E+01   -4.581E+01   -4.567E+01   -4.553E+01
    -4.539E+01   -4.525E+01   -4.511E+01   -4.497E+01   -4.483E+01   -4.470E+01   -4.456E+01   -4.443E+01   -4.429E+01   -4.416E+01
    -4.402E+01   -4.389E+01   -4.376E+01   -4.362E+01   -4.349E+01   -4.336E+01   -4.323E+01   -4.310E+01   -4.297E+01   -4.284E+01
    -4.272E+01   -4.259E+01   -4.246E+01   -4.234E+01   -4.221E+01   -4.208E+01   -4.196E+01   -4.184E+01   -4.171E+01   -4.159E+01
    -4.147E+01   -4.135E+01   -4.123E+01   -4.111E+01   -4.099E+01   -4.087E+01   -4.075E+01   -4.063E+01   -4.052E+01   -4.040E+01
    -4.028E+01   -4.017E+01   -4.005E+01   -3.994E+01   -3.983E+01   -3.971E+01   -3.960E+01   -3.949E+01   -3.938E+01   -3.927E+01
    -3.916E+01   -3.905E+01   -3.894E+01   -3.884E+01   -3.873E+01   -3.862E+01   -3.852E+01   -3.841E+01   -3.831E+01   -3.821E+01
    -3.810E+01   -3.800E+01   -3.790E+01   -3.780E+01   -3.770E+01   -3.760E+01   -3.750E+01   -3.740E+01   -3.730E+01   -3.720E+01
    -3.711E+01   -3.701E+01   -3.691E+01   -3.682E+01   -3.673E+01   -3.663E+01   -3.654E+01   -3.645E+01   -3.635E+01   -3.626E+01
    -3.617E+01   -3.608E+01   -3.599E+01   -3.590E+01   -3.582E+01   -3.573E+01   -3.564E+01   -3.556E+01   -3.547E+01   -3.538E+01
    -3.530E+01   -3.522E+01   -3.513E+01   -3.505E+01   -3.497E+01   -3.488E+01   -3.480E+01   -3.472E+01   -3.464E+01   -3.456E+01
    -3.448E+01   -3.441E+01   -3.433E+01   -3.425E+01   -3.417E+01   -3.410E+01   -3.402E+01   -3.395E+01   -3.387E+01   -3.380E+01
    -3.373E+01   -3.365E+01   -3.358E+01   -3.351E+01   -3.344E+01   -3.337E+01   -3.330E+01   -3.323E+01   -3.316E+01   -3.309E+01
    -3.302E+01   -3.295E+01   -3.289E+01   -3.282E+01   -3.276E+01   -3.269E+01   -3.263E+01   -3.256E+01   -3.250E+01   -3.244E+01
    -3.237E+01   -3.231E+01   -3.225E+01   -3.219E+01   -3.213E+01   -3.207E+01   -3.201E+01   -3.195E+01   -3.189E+01   -3.184E+01
    -3.178E+01   -3.172E+01   -3.167E+01   -3.161E+01   -3.156E+01   -3.150E+01   -3.145E+01   -3.139E+01   -3.134E+01   -3.129E+01
    -3.124E+01   -3.118E+01   -3.113E+01   -3.108E+01   -3.103E+01   -3.098E+01   -3.093E+01   -3.088E+01   -3.084E+01   -3.079E+01
    -3.074E+01   -3.069E+01   -3.065E+01   -3.060E+01   -3.056E+01   -3.051E+01   -3.046E+01   -3.042E+01   -3.038E+01   -3.033E+01
    -3.029E+01   -3.024E+01   -3.020E+01   -3.016E+01   -3.012E+01   -3.007E+01   -3.003E+01   -2.999E+01   -2.995E+01   -2.991E+01
    -2.987E+01   -2.983E+01   -2.979E+01   -2.975E+01   -2.971E+01   -2.967E+01   -2.963E+01   -2.959E+01   -2.955E+01   -2.951E+01
    -2.947E+01   -2.943E+01   -2.939E+01   -2.935E+01   -2.931E+01   -2.927E+01   -2.923E+01   -2.919E+01   -2.915E+01   -2.912E+01
    -2.908E+01   -2.904E+01   -2.900E+01   -2.896E+01   -2.892E+01   -2.888E+01   -2.884E+01   -2.880E+01   -2.877E+01   -2.873E+01
    -2.869E+01   -2.865E+01   -2.861E+01   -2.857E+01   -2.853E+01   -2.849E+01   -2.845E+01   -2.841E+01   -2.837E+01   -2.833E+01
    -2.829E+01   -2.825E+01   -2.821E+01   -2.817E+01   -2.813E+01   -2.809E+01   -2.805E+01   -2.801E+01   -2.797E+01   -2.793E+01
    -2.789E+01   -2.784E+01   -2.780E+01   -2.776E+01   -2.772E+01   -2.768E+01   -2.764E+01   -2.760E+01   -2.755E+01   -2.751E+01
    -2.747E+01   -2.743E+01   -2.739E+01   -2.735E+01   -2.730E+01   -2.726E+01   -2.722E+01   -2.718E+01   -2.714E+01   -2.709E+01
    -2.705E+01   -2.701E+01   -2.697E+01   -2.693E+01   -2.688E+01   -2.684E+01   -2.680E+01   -2.676E+01   -2.672E+01   -2.667E+01
    -2.663E+01   -2.659E+01   -2.655E+01   -2.651E+01   -2.647E+01   -2.643E+01   -2.638E+01   -2.634E+01   -2.630E+01   -2.626E+01
    -2.622E+01   -2.618E+01   -2.614E+01   -2.610E+01   -2.606E+01   -2.602E+01   -2.598E+01   -2.594E+01   -2.590E+01   -2.586E+01
    -2.582E+01   -2.578E+01   -2.574E+01   -2.570E+01   -2.566E+01   -2.562E+01   -2.558E+01   -2.554E+01   -2.550E+01   -2.547E+01
    -2.543E+01   -2.539E+01   -2.535E+01   -2.531E+01   -2.528E+01   -2.524E+01   -2.520E+01   -2.516E+01   -2.513E+01   -2.509E+01
    -2.505E+01   -2.501E+01   -2.498E+01   -2.494E+01   -2.490E+01   -2.487E+01   -2.483E+01   -2.480E+01   -2.476E+01   -2.472E+01
    -2.469E+01   -2.465E+01   -2.462E+01   -2.458E+01   -2.455E+01   -2.451E+01   -2.447E+01   -2.444E+01   -2.440E+01   -2.437E+01
    -2.433E+01   -2.430E+01   -2.426E+01   -2.423E+01   -2.420E+01   -2.416E+01   -2.413E+01   -2.409E+01   -2.406E+01   -2.402E+01
    -2.399E+01   -2.395E+01   -2.392E+01   -2.389E+01   -2.385E+01   -2.382E+01   -2.378E+01   -2.375E+01   -2.372E+01   -2.368E+01
    -2.365E+01   -2.361E+01   -2.358E+01   -2.355E+01   -2.351E+01   -2.348E+01   -2.344E+01   -2.341E+01   -2.338E+01   -2.334E+01
    -2.331E+01   -2.327E+01   -2.324E+01   -2.321E+01   -2.317E+01   -2.314E+01   -2.310E+01   -2.307E+01   -2.304E+01   -2.300E+01
    -2.297E+01   -2.293E+01   -2.290E+01   -2.287E+01   -2.283E+01   -2.280E+01   -2.276E+01   -2.273E+01   -2.270E+01   -2.266E+01
 Mac      Conc. = 2.60E-04
  -8.17389E+01 -8.16124E+01 -8.15023E+01 -8.14332E+01 -8.16723E+01 -8.21585E+01 -8.35881E+01 -8.53983E+01 -8.70485E+01 -8.83146E+01
  -8.85547E+01 -8.81776E+01 -8.77141E+01 -8.75518E+01 -8.92804E+01 -9.17119E+01 -9.36511E+01 -9.28287E+01 -8.70178E+01 -8.19037E+01
  -7.97878E+01 -7.56663E+01 -7.17655E+01 -7.04269E+01 -6.98160E+01 -6.86452E+01 -6.68218E+01 -6.52777E+01 -6.30696E+01 -6.07921E+01
  -5.94171E+01 -5.83478E+01 -5.69502E+01 -5.64244E+01 -5.72073E+01 -5.79309E+01 -5.74191E+01 -5.48917E+01 -5.15805E+01 -4.94964E+01
  -4.99628E+01 -5.08452E+01 -5.01365E+01 -4.88202E+01 -4.69721E+01 -4.54449E+01 -4.52530E+01 -4.54570E+01 -4.60753E+01 -4.71009E+01
  -4.86520E+01 -4.93238E+01 -4.97744E+01 -5.07898E+01 -5.10105E+01 -5.10081E+01 -5.08614E+01 -4.95719E+01 -4.77352E+01 -4.69299E+01
  -4.56866E+01 -4.32897E+01 -4.25585E+01 -4.31598E+01 -4.36325E+01 -4.45536E+01 -4.49176E+01 -4.51753E+01 -4.57797E+01 -4.63516E+01
  -4.56027E+01 -4.22866E+01 -3.91588E+01 -3.78220E+01 -3.64123E+01 -3.58102E+01 -3.62807E+01 -3.64700E+01 -3.75592E+01 -3.80761E+01
  -3.82006E+01 -3.87077E+01 -3.89264E+01 -3.84230E+01 -3.72787E+01 -3.64185E+01 -3.58297E+01 -3.48601E+01 -3.38693E+01 -3.36377E+01
  -3.30005E+01 -3.22421E+01 -3.20074E+01 -3.16444E+01 -3.16234E+01 -3.29938E+01 -3.52908E+01 -3.74375E+01 -3.97805E+01 -4.16391E+01
  -4.26759E+01 -4.40403E+01 -4.62361E+01 -4.83593E+01 -5.17045E+01 -5.69295E+01 -6.39857E+01 -7.11047E+01 -7.48404E+01 -7.56910E+01
