 LCModel (Version 6.3-1N) Copyright: S.W. Provencher.          Ref.: Magn. Reson. Med. 30:672-679 (1993).                
 Slice_N1@22_21  28-Feb-2025 11:43:41
 27 lines in following concentration table = NCONC+1
    Conc.  %SD /Cr+PCr  Metabolite                                         
 1.84E-04  13% 1.9E-04 Mac                                                 
    7.662  22%   8.000 Cr                                                  
    0.000 999%   0.000 PCr                                                 
   18.638  14%  19.459 Ins                                                 
    5.319  44%   5.554 NAA                                                 
    0.216 999%   0.226 Tau                                                 
    0.000 999%   0.000 PCho                                                
    1.211  47%   1.264 GPC                                                 
   16.716  16%  17.453 Glu                                                 
   11.244  18%  11.739 Gln                                                 
   18.968  12%  19.804 Ala                                                 
    0.000 999%   0.000 Asc                                                 
    5.307  40%   5.541 Asp                                                 
    1.531  80%   1.599 GABA                                                
    3.611  38%   3.771 Glc                                                 
    5.556  23%   5.801 GSH                                                 
    7.008  32%   7.317 Lac                                                 
    7.418  28%   7.745 NAAG                                                
    0.000 999%   0.000 PE                                                  
    1.211  47%   1.264 GPC+PCho                                            
   12.737  15%  13.299 NAA+NAAG                                            
   27.960  12%  29.193 Glu+Gln                                             
    7.662  22%   8.000 Cr+PCr                                              
   12.737  15%  13.299 NAA+NAAG                                            
    7.662  22%   8.000 Cr+PCr                                              
   27.960  12%  29.193 Glu+Gln                                             
   6 lines in following misc. output table
  FWHM = 0.130 ppm    S/N =   2                                            
  Data shift = 0.065 ppm                                                   
  Ph:  -2 deg       0.0 deg/ppm                                            
  alphaB,S = 1.1E-01,   4.4E+01                                            
   17 spline knots.   Ns = 6(2)                                            
  ( 9) 2 infls.   ( 8) 1 extrs.                                            
  480 points on ppm-axis = NY
      4.100000     4.091866     4.083733     4.075600     4.067466     4.059333     4.051199     4.043066     4.034933     4.026799
      4.018666     4.010532     4.002399     3.994265     3.986132     3.977998     3.969864     3.961731     3.953597     3.945463
      3.937330     3.929196     3.921062     3.912929     3.904795     3.896662     3.888528     3.880394     3.872261     3.864127
      3.855993     3.847860     3.839726     3.831592     3.823459     3.815325     3.807191     3.799058     3.790924     3.782790
      3.774657     3.766523     3.758389     3.750256     3.742122     3.733989     3.725855     3.717721     3.709588     3.701454
      3.693320     3.685187     3.677053     3.668919     3.660786     3.652652     3.644518     3.636385     3.628251     3.620117
      3.611984     3.603850     3.595716     3.587583     3.579449     3.571316     3.563182     3.555048     3.546915     3.538781
      3.530647     3.522514     3.514380     3.506246     3.498113     3.489979     3.481845     3.473712     3.465578     3.457444
      3.449311     3.441177     3.433043     3.424910     3.416776     3.408643     3.400509     3.392375     3.384242     3.376108
      3.367974     3.359841     3.351707     3.343573     3.335440     3.327306     3.319172     3.311039     3.302905     3.294771
      3.286638     3.278504     3.270370     3.262237     3.254103     3.245970     3.237836     3.229702     3.221569     3.213435
      3.205301     3.197168     3.189034     3.180900     3.172767     3.164633     3.156499     3.148366     3.140232     3.132098
      3.123965     3.115831     3.107697     3.099564     3.091430     3.083297     3.075163     3.067029     3.058896     3.050762
      3.042628     3.034495     3.026361     3.018227     3.010094     3.001960     2.993826     2.985693     2.977559     2.969425
      2.961292     2.953158     2.945024     2.936891     2.928757     2.920624     2.912490     2.904356     2.896223     2.888089
      2.879955     2.871822     2.863688     2.855554     2.847421     2.839287     2.831153     2.823020     2.814886     2.806752
      2.798619     2.790485     2.782351     2.774218     2.766084     2.757951     2.749817     2.741683     2.733550     2.725416
      2.717282     2.709149     2.701015     2.692881     2.684748     2.676614     2.668480     2.660347     2.652213     2.644079
      2.635946     2.627812     2.619678     2.611545     2.603411     2.595278     2.587144     2.579010     2.570877     2.562743
      2.554609     2.546476     2.538342     2.530208     2.522075     2.513941     2.505807     2.497674     2.489540     2.481406
      2.473273     2.465139     2.457006     2.448872     2.440738     2.432605     2.424471     2.416337     2.408204     2.400070
      2.391936     2.383803     2.375669     2.367535     2.359402     2.351268     2.343134     2.335001     2.326867     2.318733
      2.310600     2.302466     2.294333     2.286199     2.278065     2.269932     2.261798     2.253664     2.245531     2.237397
      2.229263     2.221130     2.212996     2.204862     2.196729     2.188595     2.180461     2.172328     2.164194     2.156060
      2.147927     2.139793     2.131660     2.123526     2.115392     2.107259     2.099125     2.090991     2.082858     2.074724
      2.066590     2.058457     2.050323     2.042189     2.034056     2.025922     2.017788     2.009655     2.001521     1.993387
      1.985254     1.977120     1.968987     1.960853     1.952719     1.944586     1.936452     1.928318     1.920185     1.912051
      1.903917     1.895784     1.887650     1.879516     1.871383     1.863249     1.855115     1.846982     1.838848     1.830714
      1.822581     1.814447     1.806314     1.798180     1.790046     1.781913     1.773779     1.765645     1.757512     1.749378
      1.741244     1.733111     1.724977     1.716843     1.708710     1.700576     1.692442     1.684309     1.676175     1.668041
      1.659908     1.651774     1.643641     1.635507     1.627373     1.619240     1.611106     1.602972     1.594839     1.586705
      1.578571     1.570438     1.562304     1.554170     1.546037     1.537903     1.529769     1.521636     1.513502     1.505368
      1.497235     1.489101     1.480968     1.472834     1.464700     1.456567     1.448433     1.440299     1.432166     1.424032
      1.415898     1.407765     1.399631     1.391497     1.383364     1.375230     1.367096     1.358963     1.350829     1.342695
      1.334562     1.326428     1.318295     1.310161     1.302027     1.293894     1.285760     1.277626     1.269493     1.261359
      1.253225     1.245092     1.236958     1.228824     1.220691     1.212557     1.204423     1.196290     1.188156     1.180022
      1.171889     1.163755     1.155622     1.147488     1.139354     1.131221     1.123087     1.114953     1.106820     1.098686
      1.090552     1.082419     1.074285     1.066151     1.058018     1.049884     1.041750     1.033617     1.025483     1.017349
      1.009216     1.001082     0.992949     0.984815     0.976681     0.968548     0.960414     0.952280     0.944147     0.936013
      0.927879     0.919746     0.911612     0.903478     0.895345     0.887211     0.879077     0.870944     0.862810     0.854676
      0.846543     0.838409     0.830276     0.822142     0.814008     0.805875     0.797741     0.789607     0.781474     0.773340
      0.765206     0.757073     0.748939     0.740805     0.732672     0.724538     0.716404     0.708271     0.700137     0.692003
      0.683870     0.675736     0.667603     0.659469     0.651335     0.643202     0.635068     0.626934     0.618801     0.610667
      0.602533     0.594400     0.586266     0.578132     0.569999     0.561865     0.553731     0.545598     0.537464     0.529330
      0.521197     0.513063     0.504930     0.496796     0.488662     0.480529     0.472395     0.464261     0.456128     0.447994
      0.439861     0.431727     0.423593     0.415460     0.407326     0.399192     0.391059     0.382925     0.374792     0.366658
      0.358524     0.350391     0.342257     0.334124     0.325990     0.317856     0.309723     0.301589     0.293455     0.285322
      0.277188     0.269055     0.260921     0.252787     0.244654     0.236520     0.228386     0.220253     0.212119     0.203986
 NY phased data points follow
   1.16368E+02  1.30404E+02  1.50821E+02  1.58220E+02  1.75784E+02  2.09353E+02  2.23995E+02  2.49370E+02  2.78069E+02  3.03419E+02
   3.30680E+02  3.25720E+02  3.28423E+02  2.94869E+02  2.66705E+02  2.48879E+02  1.95157E+02  1.63860E+02  1.35353E+02  1.25141E+02
   1.07589E+02  8.79847E+01  8.41829E+01  7.04149E+01  8.32813E+01  7.68033E+01  7.11072E+01  8.03753E+01  6.46408E+01  7.61570E+01
   7.53756E+01  5.75158E+01  4.88747E+01  4.13605E+01  3.69027E+01  7.05081E+00  2.15124E+01  3.13997E+01  1.03356E+01  1.63522E+01
   8.63245E+00  1.71390E+01  1.14036E+01  1.40656E+01  3.83313E+01  3.32490E+01  4.24909E+01  3.04379E+01  2.42234E+01  4.07835E+01
   1.83602E+01  2.99627E+01  3.91656E+01  4.25819E+00  2.64183E+01  3.20182E+01  1.51775E+00  1.62260E+01  2.18333E+01  7.90981E+00
   1.45775E+01  2.27884E+01  2.56836E+01  1.89203E+01  3.49072E+00  1.88484E+01  1.35686E+01  7.43680E+00  1.94418E+01  8.43783E+00
   2.69992E+01  2.58295E+01  1.86924E+01  2.80336E+01  2.47753E+01  3.52912E+01  3.34041E+01  3.77975E+01  4.07960E+01  2.59867E+01
   1.96133E+01  1.83086E+01  2.67762E+01  3.52748E+01  2.94993E+01  3.27318E+01  3.87362E+01  4.48788E+01  6.14038E+01  6.16015E+01
   6.34098E+01  6.96833E+01  7.34193E+01  8.10945E+01  8.81367E+01  9.52126E+01  9.23920E+01  9.28925E+01  8.32448E+01  7.03305E+01
   7.72301E+01  6.58807E+01  5.58035E+01  4.97422E+01 -3.54595E-01 -9.15424E+00  1.17180E+01 -2.06204E+01 -2.28643E+01 -1.34982E+01
  -2.85023E+01 -2.29402E+01 -1.20331E+01 -8.93576E+00 -1.09590E+01 -8.61735E+00 -5.08763E+00  1.39603E+01  2.98033E+01  2.50516E+01
   4.64219E+01  6.65781E+01  6.53574E+01  7.00110E+01  8.88193E+01  1.04059E+02  7.32660E+01  4.83791E+01  6.68174E+01  7.97228E+01
   6.27208E+01  3.74010E+01  3.10028E+01  4.65635E+00 -5.14448E+00 -9.14576E-01 -2.57378E+01 -1.56016E+01 -1.59087E+01 -2.22478E+01
  -2.35537E+01 -3.61919E+01 -1.45087E+01 -2.53627E+01 -3.30886E+01 -1.95780E+01 -3.59954E+01 -2.64143E+01 -1.61006E+01 -3.08488E+01
  -1.78445E+01 -3.89959E+00 -1.86361E+01 -8.08012E+00 -4.26948E+00 -2.07854E+01 -2.66897E+01 -2.17671E+01 -1.13610E+01 -2.41716E+01
  -1.46442E+01 -1.19584E+01 -2.19637E+01 -2.21884E+01 -2.00719E+01  5.79616E+00 -3.66252E+00 -2.70440E+00  8.79974E+00  1.23142E+01
   2.38797E+01  1.10286E+01  1.63328E+01  8.32277E+00  1.04851E-01  1.10283E+01 -2.07674E+00 -1.11483E+01 -7.60252E+00 -1.27776E+01
  -2.15403E+01 -2.18626E+01 -2.85053E+01 -2.97104E+01 -2.64455E+01 -3.79469E+01 -3.55556E+01 -2.18785E+01 -2.33100E+01 -3.38037E+01
  -3.48186E+01 -1.43755E+01 -1.66095E+01 -2.53990E+01 -9.41337E+00 -1.30976E+01 -1.75834E+01 -1.91016E+01 -2.63882E+01 -3.08261E+01
  -1.90103E+01 -1.43997E+01 -2.26384E+01 -1.40135E+01 -1.98186E+01 -1.92235E+01 -9.67556E+00 -1.71927E+00 -1.63905E+01 -2.11737E+01
  -2.72423E+00 -6.44389E-01  1.75992E+01  8.48330E+00  1.37545E+01  2.67833E+01  1.84465E+01  1.93445E+01  3.63943E-01  6.57218E+00
   1.38247E+01  2.50039E+00 -1.90730E+00  7.01779E+00  7.05550E+00 -1.18531E+00 -3.79120E-01 -1.91571E+01 -1.83056E+01 -8.07778E+00
  -2.31871E+01 -3.70271E+01 -4.61381E+01 -6.07576E+01 -6.17696E+01 -6.09456E+01 -7.29096E+01 -6.35809E+01 -6.26843E+01 -7.73607E+01
  -7.45920E+01 -7.04370E+01 -6.10461E+01 -6.53215E+01 -7.94333E+01 -6.85059E+01 -7.62017E+01 -8.40672E+01 -8.12972E+01 -8.16735E+01
  -8.63100E+01 -7.57843E+01 -2.17487E+01 -3.53368E+01 -3.82587E+01 -5.70444E+00 -1.45934E+01  2.01608E+01  3.54770E+01  3.94556E+01
   5.28109E+01  4.63900E+01  4.30798E+01  3.11223E+01  3.57998E+01  4.22595E+01  3.97488E+01  4.72699E+01  4.84054E+01  3.97924E+01
   5.21721E+01  4.94688E+01  4.96837E+01  6.68925E+01  4.77144E+01  4.33807E+01  4.00712E+01  4.91374E+01  5.66752E+01  3.71286E+01
   6.16139E+01  5.98543E+01  3.91563E+01  5.20780E+01  5.39813E+01  4.59234E+01  5.17101E+01  6.21115E+01  4.89819E+01  3.76226E+01
   3.49299E+01  3.60468E+01  2.34207E+01  2.60411E+01  4.27098E+01  1.86617E+01  3.21119E+01  4.33527E+01  2.66236E+01  2.47844E+01
   2.70723E+01  5.54742E+01  4.82440E+01  3.59174E+01  4.90818E+01  5.63083E+01  6.34640E+01  6.08938E+01  6.67490E+01  6.74205E+01
   7.23646E+01  8.28994E+01  8.11746E+01  8.20121E+01  8.60022E+01  8.40674E+01  8.22510E+01  9.32458E+01  9.28673E+01  8.58813E+01
   7.49302E+01  5.07176E+01  4.62997E+01  3.99919E+01  2.29861E+01  7.78960E+00 -9.27086E+00 -8.90763E+00 -2.13264E+01 -3.14670E+01
  -3.19359E+01 -3.61749E+01 -4.07461E+01 -5.26326E+01 -3.81690E+01 -4.86122E+01 -5.88253E+01 -3.99452E+01 -3.33324E+01 -2.28024E+01
  -2.24238E+01 -1.79160E+01 -1.28901E+01 -3.42375E+00  6.96580E+00  9.95894E+00  4.37087E+00  6.70878E+00  1.64041E+01  4.37644E+00
   8.54542E+00 -3.58349E+00 -9.89358E+00  9.40315E-01 -3.09531E+00 -7.48277E+00 -1.46224E+01 -8.25390E+00 -1.33737E+01 -7.00810E+00
  -4.12030E+00 -1.18902E+01 -7.42390E+00 -1.97942E+01 -1.34977E+01  3.48698E+00  6.34941E+00  2.57792E+00 -1.46816E+01 -7.88281E+00
   9.69815E+00 -2.06468E+00  1.69748E+01  3.29954E+01  1.96415E+01  3.10204E+01  4.06302E+01  4.39578E+01  6.02659E+01  8.18146E+01
   7.90143E+01  8.75394E+01  1.02832E+02  1.01524E+02  1.08140E+02  1.03439E+02  1.09824E+02  1.16117E+02  1.12938E+02  1.07046E+02
   9.70404E+01  9.52982E+01  9.20350E+01  8.36420E+01  7.82117E+01  7.52580E+01  6.90358E+01  6.51998E+01  3.95912E+01  3.56881E+01
   4.79865E+01  3.54786E+01  3.05932E+01  2.97408E+01  3.37193E+01  1.81871E+01  1.43996E+01  2.08468E+01  8.74856E+00  1.68473E+01
   3.03275E+01  2.32588E+01  1.31118E+01  2.41959E+01  1.27635E+01  1.35257E+00  8.39472E+00  7.90691E+00  1.91733E+01  2.33128E+01
   1.95198E+01  1.17094E+01 -1.52163E+00 -1.03195E+01  1.06119E+01  1.43373E+01 -2.77241E-01  2.06725E+01  1.87387E+01  1.31650E+00
   6.95945E+00  1.85737E+01  5.34543E+00  8.27860E+00  1.27431E+01 -4.77991E-01  1.59270E+01  7.66791E+00  4.34268E+00  3.64032E+00
   3.57053E+00  1.14658E+01  6.52495E+00  1.59217E+01 -9.68143E-01  1.82836E+00  9.75008E+00 -3.94498E+00  3.02814E+00  1.34047E+01
   1.24332E+01  4.46825E+00  5.44992E+00  6.23849E+00 -4.72147E-01 -4.96477E+00  1.73125E+01  9.04134E+00  5.40492E+00  1.49154E+01
  -1.98449E+00  7.67619E+00 -7.67218E+00  5.28613E+00  2.19206E+01  7.03989E+00  1.58155E+00  4.69223E+00  1.84107E+01 -6.05991E+00
  -1.72711E+00  8.02491E+00  5.48408E+00  5.69434E+00 -3.94024E+00 -3.95591E-01  6.79185E+00  2.50963E+00 -1.36314E+01  1.29044E+01
 NY points of the fit to the data follow
   1.80566E+02  1.82995E+02  1.83395E+02  1.86341E+02  1.87144E+02  1.89307E+02  1.89479E+02  1.90218E+02  1.89607E+02  1.88801E+02
   1.87661E+02  1.85065E+02  1.81128E+02  1.76256E+02  1.70158E+02  1.63530E+02  1.56609E+02  1.47891E+02  1.41550E+02  1.31992E+02
   1.29602E+02  1.21924E+02  1.23692E+02  1.18035E+02  1.22027E+02  1.17920E+02  1.22409E+02  1.19405E+02  1.23299E+02  1.18079E+02
   1.18355E+02  1.08687E+02  1.04388E+02  9.03846E+01  8.36033E+01  6.75542E+01  6.07787E+01  4.53063E+01  3.99542E+01  2.78725E+01
   2.88670E+01  2.15819E+01  2.84699E+01  2.47746E+01  3.41046E+01  3.40488E+01  4.30542E+01  4.30113E+01  5.12160E+01  4.96753E+01
   5.53341E+01  5.31257E+01  5.62139E+01  5.44119E+01  5.51837E+01  5.36576E+01  5.21393E+01  5.07745E+01  4.73402E+01  4.57704E+01
   3.99958E+01  3.70507E+01  2.91738E+01  2.52167E+01  1.63699E+01  1.26070E+01  5.01965E+00  3.66162E+00 -5.31135E-01  9.91950E-01
  -5.31900E-01  3.30593E+00  4.34863E+00  6.80656E+00  9.22247E+00  1.16954E+01  1.31803E+01  1.61808E+01  1.83805E+01  2.31968E+01
   2.69484E+01  3.30715E+01  3.79487E+01  4.24845E+01  4.56181E+01  5.02894E+01  5.23565E+01  5.55523E+01  5.77343E+01  6.13699E+01
   6.24691E+01  6.63156E+01  6.58191E+01  6.82305E+01  6.58844E+01  6.57493E+01  6.16863E+01  6.01172E+01  5.62994E+01  5.25394E+01
   4.96058E+01  4.34122E+01  4.07472E+01  3.27158E+01  3.00276E+01  2.11108E+01  1.86606E+01  9.66174E+00  7.66700E+00  2.77759E-01
  -1.72680E-01 -5.20261E+00 -3.31516E+00 -5.88493E+00 -2.75804E+00 -2.15250E+00  1.07552E+00  3.03680E+00  6.59539E+00  8.75771E+00
   1.33574E+01  1.97053E+01  2.55789E+01  3.49734E+01  4.11500E+01  4.82442E+01  5.21161E+01  5.48960E+01  5.66899E+01  5.47282E+01
   5.48723E+01  4.78147E+01  4.73280E+01  3.77351E+01  3.67796E+01  2.68374E+01  2.50239E+01  1.55906E+01  1.27365E+01  4.15329E+00
   4.71854E-01 -7.02323E+00 -1.13711E+01 -1.81385E+01 -2.18501E+01 -2.59585E+01 -2.74772E+01 -2.65098E+01 -2.77099E+01 -2.66729E+01
  -2.76577E+01 -2.63318E+01 -2.69624E+01 -2.51132E+01 -2.51759E+01 -2.31308E+01 -2.24930E+01 -2.05692E+01 -1.97223E+01 -1.81823E+01
  -1.76753E+01 -1.64000E+01 -1.55370E+01 -1.41814E+01 -1.27836E+01 -1.13614E+01 -9.98814E+00 -8.23538E+00 -7.21528E+00 -5.32427E+00
  -4.71499E+00 -3.22448E+00 -3.35997E+00 -2.88922E+00 -4.09747E+00 -4.63513E+00 -6.62618E+00 -7.76715E+00 -1.05002E+01 -1.26825E+01
  -1.55851E+01 -1.82945E+01 -2.08021E+01 -2.32021E+01 -2.54357E+01 -2.66772E+01 -2.82928E+01 -2.78089E+01 -2.79131E+01 -2.67023E+01
  -2.63660E+01 -2.53975E+01 -2.47932E+01 -2.37771E+01 -2.25368E+01 -2.13354E+01 -1.91190E+01 -1.68680E+01 -1.41257E+01 -1.09639E+01
  -8.53200E+00 -5.35504E+00 -4.89646E+00 -3.19206E+00 -5.56200E+00 -6.96398E+00 -9.74671E+00 -1.36039E+01 -1.43405E+01 -1.77115E+01
  -1.50075E+01 -1.59908E+01 -1.06464E+01 -9.09877E+00 -2.87718E+00  7.01789E-01  5.00748E+00  9.40309E+00  1.08640E+01  1.49648E+01
   1.43519E+01  1.68990E+01  1.44562E+01  1.51408E+01  9.23394E+00  7.93973E+00 -1.92277E+00 -5.76115E+00 -1.87195E+01 -2.57487E+01
  -3.88545E+01 -4.96612E+01 -5.84237E+01 -7.14500E+01 -7.42503E+01 -8.68512E+01 -8.42529E+01 -9.46353E+01 -8.81240E+01 -9.48876E+01
  -8.54033E+01 -8.96439E+01 -8.21210E+01 -8.41365E+01 -7.86367E+01 -7.81167E+01 -7.49909E+01 -7.28896E+01 -6.92529E+01 -6.54173E+01
  -5.87694E+01 -5.35450E+01 -4.07342E+01 -3.59999E+01 -1.88136E+01 -1.53881E+01  3.66362E+00  5.39918E+00  2.41568E+01  2.39018E+01
   4.09926E+01  3.92264E+01  5.38943E+01  5.11374E+01  6.36725E+01  5.94750E+01  6.84172E+01  6.28562E+01  6.61364E+01  6.17015E+01
   6.29717E+01  6.00635E+01  5.80148E+01  5.57657E+01  5.43979E+01  5.32236E+01  5.24345E+01  5.19628E+01  5.15042E+01  5.14239E+01
   5.10593E+01  5.11151E+01  5.05499E+01  5.04728E+01  4.95200E+01  4.90715E+01  4.78569E+01  4.69304E+01  4.57515E+01  4.45940E+01
   4.36680E+01  4.27085E+01  4.22032E+01  4.16825E+01  4.17073E+01  4.17381E+01  4.23709E+01  4.29944E+01  4.42056E+01  4.54464E+01
   4.72015E+01  4.90488E+01  5.13016E+01  5.36910E+01  5.63948E+01  5.92058E+01  6.22417E+01  6.53614E+01  6.86635E+01  7.20672E+01
   7.58522E+01  8.18303E+01  8.72934E+01  9.31233E+01  1.00695E+02  1.00367E+02  1.04974E+02  9.63077E+01  9.40192E+01  7.91314E+01
   6.92555E+01  5.17494E+01  3.62768E+01  2.11089E+01  3.48536E+00 -6.20830E+00 -2.18139E+01 -2.65183E+01 -3.86733E+01 -3.88882E+01
  -4.67651E+01 -4.33137E+01 -4.66692E+01 -4.10492E+01 -4.19262E+01 -3.37848E+01 -3.34405E+01 -2.23838E+01 -2.04607E+01 -1.24815E+01
  -1.14538E+01 -7.40229E+00 -1.06978E+01 -7.62334E+00 -1.21839E+01 -9.57267E+00 -1.42920E+01 -1.21380E+01 -1.66713E+01 -1.47861E+01
  -1.87723E+01 -1.69407E+01 -1.99938E+01 -1.76486E+01 -1.89365E+01 -1.54790E+01 -1.38281E+01 -1.05011E+01 -7.23969E+00 -4.49809E+00
  -1.64391E+00  9.79509E-01  3.83979E+00  6.54827E+00  9.55852E+00  1.24147E+01  1.55990E+01  1.85704E+01  2.19445E+01  2.50729E+01
   2.87058E+01  3.21161E+01  3.61210E+01  3.99637E+01  4.44305E+01  4.86615E+01  5.34226E+01  5.76710E+01  6.22956E+01  6.60276E+01
   6.99782E+01  7.27672E+01  7.56547E+01  7.72608E+01  7.88398E+01  7.92213E+01  7.94082E+01  7.85813E+01  7.74118E+01  7.54545E+01
   7.30321E+01  7.00945E+01  6.66496E+01  6.30036E+01  5.88850E+01  5.49600E+01  5.06395E+01  4.68959E+01  4.28334E+01  3.96150E+01
   3.60973E+01  3.34489E+01  3.05211E+01  2.83482E+01  2.60062E+01  2.42462E+01  2.24905E+01  2.11677E+01  1.99833E+01  1.90627E+01
   1.83047E+01  1.77112E+01  1.72142E+01  1.68113E+01  1.64567E+01  1.61890E+01  1.59039E+01  1.57197E+01  1.54880E+01  1.53693E+01
   1.51721E+01  1.50717E+01  1.49042E+01  1.47806E+01  1.46506E+01  1.44960E+01  1.43967E+01  1.42063E+01  1.41382E+01  1.39386E+01
   1.38926E+01  1.36818E+01  1.36202E+01  1.34450E+01  1.33307E+01  1.31775E+01  1.30241E+01  1.28916E+01  1.26922E+01  1.25655E+01
   1.23225E+01  1.22062E+01  1.19492E+01  1.18498E+01  1.15636E+01  1.14876E+01  1.11585E+01  1.11075E+01  1.07399E+01  1.07234E+01
   1.02985E+01  1.03139E+01  9.81903E+00  9.83332E+00  9.29407E+00  9.29607E+00  8.73531E+00  8.70787E+00  8.12245E+00  8.04258E+00
   7.45213E+00  7.29584E+00  6.68757E+00  6.45525E+00  5.80503E+00  5.46188E+00  4.76845E+00  4.30169E+00  3.54284E+00  2.96015E+00
   2.12063E+00  1.43214E+00  5.13153E-01 -2.66235E-01 -1.27485E+00 -2.14303E+00 -3.25956E+00 -4.25793E+00 -5.49367E+00 -6.64991E+00
 NY background values follow
     2.200E+02    2.169E+02    2.139E+02    2.108E+02    2.077E+02    2.046E+02    2.015E+02    1.984E+02    1.953E+02    1.923E+02
     1.892E+02    1.861E+02    1.830E+02    1.799E+02    1.768E+02    1.738E+02    1.707E+02    1.677E+02    1.646E+02    1.616E+02
     1.587E+02    1.557E+02    1.528E+02    1.498E+02    1.470E+02    1.441E+02    1.413E+02    1.385E+02    1.357E+02    1.330E+02
     1.303E+02    1.276E+02    1.250E+02    1.224E+02    1.199E+02    1.174E+02    1.150E+02    1.126E+02    1.102E+02    1.079E+02
     1.056E+02    1.034E+02    1.013E+02    9.913E+01    9.704E+01    9.500E+01    9.300E+01    9.104E+01    8.912E+01    8.725E+01
     8.541E+01    8.362E+01    8.186E+01    8.015E+01    7.847E+01    7.683E+01    7.524E+01    7.368E+01    7.215E+01    7.067E+01
     6.922E+01    6.781E+01    6.644E+01    6.511E+01    6.381E+01    6.254E+01    6.131E+01    6.012E+01    5.896E+01    5.783E+01
     5.674E+01    5.568E+01    5.465E+01    5.365E+01    5.269E+01    5.175E+01    5.085E+01    4.997E+01    4.912E+01    4.829E+01
     4.749E+01    4.672E+01    4.597E+01    4.524E+01    4.454E+01    4.386E+01    4.320E+01    4.256E+01    4.194E+01    4.134E+01
     4.076E+01    4.019E+01    3.964E+01    3.911E+01    3.859E+01    3.809E+01    3.760E+01    3.712E+01    3.666E+01    3.620E+01
     3.576E+01    3.533E+01    3.490E+01    3.449E+01    3.408E+01    3.367E+01    3.328E+01    3.289E+01    3.251E+01    3.214E+01
     3.178E+01    3.142E+01    3.107E+01    3.072E+01    3.039E+01    3.006E+01    2.973E+01    2.942E+01    2.911E+01    2.880E+01
     2.851E+01    2.821E+01    2.793E+01    2.765E+01    2.738E+01    2.711E+01    2.685E+01    2.660E+01    2.635E+01    2.611E+01
     2.587E+01    2.564E+01    2.542E+01    2.520E+01    2.499E+01    2.478E+01    2.458E+01    2.438E+01    2.419E+01    2.400E+01
     2.381E+01    2.364E+01    2.346E+01    2.329E+01    2.312E+01    2.296E+01    2.280E+01    2.264E+01    2.248E+01    2.232E+01
     2.217E+01    2.202E+01    2.187E+01    2.172E+01    2.157E+01    2.142E+01    2.127E+01    2.112E+01    2.096E+01    2.081E+01
     2.066E+01    2.050E+01    2.034E+01    2.018E+01    2.002E+01    1.985E+01    1.969E+01    1.951E+01    1.934E+01    1.916E+01
     1.897E+01    1.878E+01    1.859E+01    1.839E+01    1.819E+01    1.798E+01    1.776E+01    1.754E+01    1.732E+01    1.709E+01
     1.686E+01    1.662E+01    1.638E+01    1.613E+01    1.587E+01    1.562E+01    1.535E+01    1.509E+01    1.481E+01    1.454E+01
     1.426E+01    1.397E+01    1.368E+01    1.338E+01    1.308E+01    1.278E+01    1.247E+01    1.215E+01    1.183E+01    1.151E+01
     1.118E+01    1.085E+01    1.051E+01    1.017E+01    9.824E+00    9.473E+00    9.118E+00    8.758E+00    8.394E+00    8.026E+00
     7.653E+00    7.276E+00    6.896E+00    6.511E+00    6.123E+00    5.730E+00    5.334E+00    4.935E+00    4.532E+00    4.125E+00
     3.715E+00    3.301E+00    2.885E+00    2.465E+00    2.042E+00    1.616E+00    1.187E+00    7.552E-01    3.206E-01   -1.166E-01
    -5.565E-01   -9.990E-01   -1.444E+00   -1.891E+00   -2.341E+00   -2.793E+00   -3.247E+00   -3.703E+00   -4.161E+00   -4.621E+00
    -5.083E+00   -5.546E+00   -6.011E+00   -6.475E+00   -6.940E+00   -7.403E+00   -7.865E+00   -8.325E+00   -8.782E+00   -9.236E+00
    -9.687E+00   -1.013E+01   -1.057E+01   -1.101E+01   -1.144E+01   -1.186E+01   -1.227E+01   -1.268E+01   -1.308E+01   -1.347E+01
    -1.385E+01   -1.421E+01   -1.457E+01   -1.492E+01   -1.525E+01   -1.557E+01   -1.588E+01   -1.617E+01   -1.645E+01   -1.672E+01
    -1.697E+01   -1.720E+01   -1.741E+01   -1.761E+01   -1.779E+01   -1.795E+01   -1.809E+01   -1.822E+01   -1.832E+01   -1.841E+01
    -1.848E+01   -1.853E+01   -1.857E+01   -1.859E+01   -1.859E+01   -1.857E+01   -1.854E+01   -1.849E+01   -1.842E+01   -1.834E+01
    -1.824E+01   -1.812E+01   -1.799E+01   -1.784E+01   -1.767E+01   -1.749E+01   -1.730E+01   -1.709E+01   -1.686E+01   -1.662E+01
    -1.636E+01   -1.609E+01   -1.580E+01   -1.550E+01   -1.518E+01   -1.485E+01   -1.451E+01   -1.415E+01   -1.378E+01   -1.339E+01
    -1.299E+01   -1.258E+01   -1.216E+01   -1.172E+01   -1.127E+01   -1.081E+01   -1.034E+01   -9.859E+00   -9.368E+00   -8.867E+00
    -8.357E+00   -7.839E+00   -7.312E+00   -6.778E+00   -6.236E+00   -5.687E+00   -5.132E+00   -4.570E+00   -4.003E+00   -3.430E+00
    -2.853E+00   -2.271E+00   -1.685E+00   -1.095E+00   -5.023E-01    9.322E-02    6.911E-01    1.291E+00    1.892E+00    2.494E+00
     3.097E+00    3.700E+00    4.303E+00    4.906E+00    5.507E+00    6.107E+00    6.706E+00    7.303E+00    7.898E+00    8.490E+00
     9.081E+00    9.668E+00    1.025E+01    1.083E+01    1.141E+01    1.198E+01    1.255E+01    1.312E+01    1.368E+01    1.423E+01
     1.478E+01    1.533E+01    1.587E+01    1.640E+01    1.693E+01    1.745E+01    1.796E+01    1.847E+01    1.897E+01    1.946E+01
     1.994E+01    2.042E+01    2.089E+01    2.135E+01    2.180E+01    2.224E+01    2.267E+01    2.309E+01    2.350E+01    2.390E+01
     2.429E+01    2.468E+01    2.505E+01    2.541E+01    2.577E+01    2.611E+01    2.644E+01    2.677E+01    2.708E+01    2.739E+01
     2.769E+01    2.797E+01    2.825E+01    2.852E+01    2.878E+01    2.903E+01    2.927E+01    2.950E+01    2.972E+01    2.993E+01
     3.013E+01    3.033E+01    3.051E+01    3.069E+01    3.085E+01    3.101E+01    3.116E+01    3.130E+01    3.143E+01    3.155E+01
     3.166E+01    3.177E+01    3.186E+01    3.195E+01    3.203E+01    3.210E+01    3.216E+01    3.222E+01    3.227E+01    3.232E+01
     3.236E+01    3.239E+01    3.242E+01    3.245E+01    3.247E+01    3.249E+01    3.251E+01    3.252E+01    3.253E+01    3.254E+01
     3.255E+01    3.256E+01    3.256E+01    3.257E+01    3.258E+01    3.258E+01    3.259E+01    3.260E+01    3.261E+01    3.263E+01
     3.265E+01    3.267E+01    3.269E+01    3.272E+01    3.275E+01    3.279E+01    3.283E+01    3.288E+01    3.293E+01    3.298E+01
     3.304E+01    3.311E+01    3.318E+01    3.325E+01    3.333E+01    3.340E+01    3.349E+01    3.357E+01    3.366E+01    3.375E+01
     3.385E+01    3.395E+01    3.404E+01    3.415E+01    3.425E+01    3.435E+01    3.446E+01    3.457E+01    3.468E+01    3.479E+01
     3.490E+01    3.501E+01    3.512E+01    3.523E+01    3.535E+01    3.546E+01    3.557E+01    3.568E+01    3.579E+01    3.590E+01
 Mac      Conc. = 1.84E-04
   2.07849E+02  2.04242E+02  2.00592E+02  1.96840E+02  1.93092E+02  1.89251E+02  1.85453E+02  1.81659E+02  1.77942E+02  1.74367E+02
   1.70875E+02  1.67628E+02  1.64443E+02  1.61569E+02  1.58729E+02  1.56196E+02  1.53689E+02  1.51454E+02  1.49219E+02  1.47218E+02
   1.45191E+02  1.43347E+02  1.41433E+02  1.39652E+02  1.37799E+02  1.36057E+02  1.34259E+02  1.32479E+02  1.30649E+02  1.28730E+02
   1.26829E+02  1.24911E+02  1.22999E+02  1.21143E+02  1.19293E+02  1.17534E+02  1.15710E+02  1.13979E+02  1.12141E+02  1.10377E+02
   1.08504E+02  1.06671E+02  1.04735E+02  1.02801E+02  1.00827E+02  9.88372E+01  9.68357E+01  9.48480E+01  9.28542E+01  9.09509E+01
   8.90807E+01  8.73469E+01  8.56495E+01  8.40423E+01  8.24608E+01  8.09375E+01  7.93979E+01  7.79603E+01  7.64617E+01  7.51430E+01
   7.37367E+01  7.25921E+01  7.13394E+01  7.03936E+01  6.92959E+01  6.85259E+01  6.75453E+01  6.68907E+01  6.59411E+01  6.52995E+01
   6.43494E+01  6.36982E+01  6.27371E+01  6.21058E+01  6.12209E+01  6.06443E+01  5.98542E+01  5.93556E+01  5.86475E+01  5.82422E+01
   5.76016E+01  5.72763E+01  5.66440E+01  5.63783E+01  5.57676E+01  5.55228E+01  5.48794E+01  5.46122E+01  5.38648E+01  5.35182E+01
   5.26168E+01  5.21287E+01  5.10521E+01  5.02902E+01  4.89132E+01  4.77058E+01  4.59339E+01  4.42164E+01  4.20576E+01  3.99399E+01
   3.75679E+01  3.52718E+01  3.29323E+01  3.07262E+01  2.87102E+01  2.68221E+01  2.53152E+01  2.38815E+01  2.29149E+01  2.19577E+01
