 LCModel (Version 6.3-1N) Copyright: S.W. Provencher.          Ref.: Magn. Reson. Med. 30:672-679 (1993).                
 Slice_N1@14_21  28-Feb-2025 11:39:48
 27 lines in following concentration table = NCONC+1
    Conc.  %SD /Cr+PCr  Metabolite                                         
 2.09E-04   5% 2.2E-04 Mac                                                 
    3.485  25%   3.609 Cr                                                  
    4.239  20%   4.391 PCr                                                 
    5.641  13%   5.843 Ins                                                 
    8.896   7%   9.214 NAA                                                 
    5.543  13%   5.741 Tau                                                 
    0.547 124%   0.566 PCho                                                
    1.213  52%   1.256 GPC                                                 
    8.097  10%   8.386 Glu                                                 
    3.597  19%   3.725 Gln                                                 
    0.000 999%   0.000 Ala                                                 
    1.764  56%   1.827 Asc                                                 
    2.412  36%   2.498 Asp                                                 
    0.683  66%   0.707 GABA                                                
    0.654  95%   0.678 Glc                                                 
    1.027  39%   1.064 GSH                                                 
    4.576  13%   4.740 Lac                                                 
    2.077  22%   2.151 NAAG                                                
    1.358  67%   1.406 PE                                                  
    1.760  14%   1.822 GPC+PCho                                            
   10.973   6%  11.365 NAA+NAAG                                            
   11.694   9%  12.111 Glu+Gln                                             
    7.724   8%   8.000 Cr+PCr                                              
   10.973   6%  11.365 NAA+NAAG                                            
    7.724   8%   8.000 Cr+PCr                                              
   11.694   9%  12.111 Glu+Gln                                             
   6 lines in following misc. output table
  FWHM = 0.016 ppm    S/N =   4                                            
  Data shift = 0.024 ppm                                                   
  Ph: -86 deg       0.0 deg/ppm                                            
  alphaB,S = 2.6E-01,   4.0E-01                                            
   19 spline knots.   Ns = 5(1)                                            
   2 inflections.     2 extrema                                            
  480 points on ppm-axis = NY
      4.100000     4.091866     4.083733     4.075600     4.067466     4.059333     4.051199     4.043066     4.034933     4.026799
      4.018666     4.010532     4.002399     3.994265     3.986132     3.977998     3.969864     3.961731     3.953597     3.945463
      3.937330     3.929196     3.921062     3.912929     3.904795     3.896662     3.888528     3.880394     3.872261     3.864127
      3.855993     3.847860     3.839726     3.831592     3.823459     3.815325     3.807191     3.799058     3.790924     3.782790
      3.774657     3.766523     3.758389     3.750256     3.742122     3.733989     3.725855     3.717721     3.709588     3.701454
      3.693320     3.685187     3.677053     3.668919     3.660786     3.652652     3.644518     3.636385     3.628251     3.620117
      3.611984     3.603850     3.595716     3.587583     3.579449     3.571316     3.563182     3.555048     3.546915     3.538781
      3.530647     3.522514     3.514380     3.506246     3.498113     3.489979     3.481845     3.473712     3.465578     3.457444
      3.449311     3.441177     3.433043     3.424910     3.416776     3.408643     3.400509     3.392375     3.384242     3.376108
      3.367974     3.359841     3.351707     3.343573     3.335440     3.327306     3.319172     3.311039     3.302905     3.294771
      3.286638     3.278504     3.270370     3.262237     3.254103     3.245970     3.237836     3.229702     3.221569     3.213435
      3.205301     3.197168     3.189034     3.180900     3.172767     3.164633     3.156499     3.148366     3.140232     3.132098
      3.123965     3.115831     3.107697     3.099564     3.091430     3.083297     3.075163     3.067029     3.058896     3.050762
      3.042628     3.034495     3.026361     3.018227     3.010094     3.001960     2.993826     2.985693     2.977559     2.969425
      2.961292     2.953158     2.945024     2.936891     2.928757     2.920624     2.912490     2.904356     2.896223     2.888089
      2.879955     2.871822     2.863688     2.855554     2.847421     2.839287     2.831153     2.823020     2.814886     2.806752
      2.798619     2.790485     2.782351     2.774218     2.766084     2.757951     2.749817     2.741683     2.733550     2.725416
      2.717282     2.709149     2.701015     2.692881     2.684748     2.676614     2.668480     2.660347     2.652213     2.644079
      2.635946     2.627812     2.619678     2.611545     2.603411     2.595278     2.587144     2.579010     2.570877     2.562743
      2.554609     2.546476     2.538342     2.530208     2.522075     2.513941     2.505807     2.497674     2.489540     2.481406
      2.473273     2.465139     2.457006     2.448872     2.440738     2.432605     2.424471     2.416337     2.408204     2.400070
      2.391936     2.383803     2.375669     2.367535     2.359402     2.351268     2.343134     2.335001     2.326867     2.318733
      2.310600     2.302466     2.294333     2.286199     2.278065     2.269932     2.261798     2.253664     2.245531     2.237397
      2.229263     2.221130     2.212996     2.204862     2.196729     2.188595     2.180461     2.172328     2.164194     2.156060
      2.147927     2.139793     2.131660     2.123526     2.115392     2.107259     2.099125     2.090991     2.082858     2.074724
      2.066590     2.058457     2.050323     2.042189     2.034056     2.025922     2.017788     2.009655     2.001521     1.993387
      1.985254     1.977120     1.968987     1.960853     1.952719     1.944586     1.936452     1.928318     1.920185     1.912051
      1.903917     1.895784     1.887650     1.879516     1.871383     1.863249     1.855115     1.846982     1.838848     1.830714
      1.822581     1.814447     1.806314     1.798180     1.790046     1.781913     1.773779     1.765645     1.757512     1.749378
      1.741244     1.733111     1.724977     1.716843     1.708710     1.700576     1.692442     1.684309     1.676175     1.668041
      1.659908     1.651774     1.643641     1.635507     1.627373     1.619240     1.611106     1.602972     1.594839     1.586705
      1.578571     1.570438     1.562304     1.554170     1.546037     1.537903     1.529769     1.521636     1.513502     1.505368
      1.497235     1.489101     1.480968     1.472834     1.464700     1.456567     1.448433     1.440299     1.432166     1.424032
      1.415898     1.407765     1.399631     1.391497     1.383364     1.375230     1.367096     1.358963     1.350829     1.342695
      1.334562     1.326428     1.318295     1.310161     1.302027     1.293894     1.285760     1.277626     1.269493     1.261359
      1.253225     1.245092     1.236958     1.228824     1.220691     1.212557     1.204423     1.196290     1.188156     1.180022
      1.171889     1.163755     1.155622     1.147488     1.139354     1.131221     1.123087     1.114953     1.106820     1.098686
      1.090552     1.082419     1.074285     1.066151     1.058018     1.049884     1.041750     1.033617     1.025483     1.017349
      1.009216     1.001082     0.992949     0.984815     0.976681     0.968548     0.960414     0.952280     0.944147     0.936013
      0.927879     0.919746     0.911612     0.903478     0.895345     0.887211     0.879077     0.870944     0.862810     0.854676
      0.846543     0.838409     0.830276     0.822142     0.814008     0.805875     0.797741     0.789607     0.781474     0.773340
      0.765206     0.757073     0.748939     0.740805     0.732672     0.724538     0.716404     0.708271     0.700137     0.692003
      0.683870     0.675736     0.667603     0.659469     0.651335     0.643202     0.635068     0.626934     0.618801     0.610667
      0.602533     0.594400     0.586266     0.578132     0.569999     0.561865     0.553731     0.545598     0.537464     0.529330
      0.521197     0.513063     0.504930     0.496796     0.488662     0.480529     0.472395     0.464261     0.456128     0.447994
      0.439861     0.431727     0.423593     0.415460     0.407326     0.399192     0.391059     0.382925     0.374792     0.366658
      0.358524     0.350391     0.342257     0.334124     0.325990     0.317856     0.309723     0.301589     0.293455     0.285322
      0.277188     0.269055     0.260921     0.252787     0.244654     0.236520     0.228386     0.220253     0.212119     0.203986
 NY phased data points follow
   5.48369E+00 -7.98599E+00 -2.00288E+01 -1.95305E+01 -1.95150E+01 -1.95412E+00 -1.00240E+00 -2.02125E+00  2.24111E+00 -5.57296E+00
  -1.18354E+01 -1.31202E+01 -1.06368E+01 -2.23457E+01 -2.76671E+01 -1.95417E+01 -2.67670E+01 -3.53874E+01 -4.00130E+01 -6.51833E+01
  -7.59432E+01 -5.91327E+01 -3.62103E+01 -2.55106E+01 -1.41625E+01  1.85118E+01  2.97222E+01  2.06646E+01  1.75642E+01  3.32218E+01
   3.28833E+01  1.00690E+01  1.46981E+01  2.82479E+01  2.80802E+01  3.55967E+01  3.62756E+01  2.64933E+01  2.26356E+01 -6.82011E+00
  -2.57210E+01 -2.39651E+01 -1.90460E+01 -2.28537E+01 -2.12577E+01  1.92411E+01  3.94574E+01  4.08783E+01  3.58258E+01  5.58614E+01
   5.88538E+01  3.46667E+01  4.07634E+01  3.16831E+01  3.01905E+01  2.49771E+01  1.91610E+01  6.51975E+00 -5.71518E+00 -6.32906E+00
  -3.79000E+00  2.76278E+01  2.94600E+01  3.43401E+01  5.51324E+01  6.82679E+01  6.16898E+01  3.32551E+01  1.65867E+01 -2.00712E+01
  -2.56455E+01  1.34210E+01  8.44925E+00  1.21425E+01  4.77779E+01  5.16893E+01  5.20509E+01  4.63278E+01  5.66065E+01  6.16593E+01
   5.01654E+01  5.14229E+01  2.80339E+01  2.41945E+01  1.59939E+01  1.71256E+00  7.03771E+00  2.51090E+01  3.87821E+01  4.28065E+01
   5.41359E+01  6.08315E+01  7.92621E+01  6.72051E+01  6.24638E+01  7.29399E+01  7.14887E+01  7.59400E+01  8.13795E+01  6.95936E+01
   5.89540E+01  7.01635E+01  3.85506E+01  3.75427E+01  3.07661E+01  2.59027E+01  3.63184E+01 -2.75330E+00 -5.65817E-01 -3.43273E+01
  -1.01014E+02 -1.27829E+02 -1.07414E+02 -6.91563E+01 -4.71962E+01 -2.84371E+01 -2.20235E+01 -9.77775E+00 -1.05309E+01 -8.28283E+00
   3.29404E+00  1.24846E+01  1.54712E+01  1.77443E+01  2.97906E+01  3.98102E+01  3.96139E+01  4.96522E+01  6.87563E+01  9.91239E+01
   1.29636E+02  1.20805E+02  8.60188E+01 -3.53233E+01 -9.37990E+01 -5.58179E+01 -5.52173E+01 -5.15617E+01 -5.98335E+01 -4.45887E+01
  -6.21359E+01 -6.00453E+01 -3.32239E+01 -4.68338E+01 -3.95286E+01 -4.45190E+01 -4.55560E+01 -5.00140E+01 -4.44876E+01 -2.45085E+01
  -3.27267E+01 -4.50812E+01 -1.41432E+01 -1.49818E+01 -1.89701E+01 -9.66828E+00 -3.61324E+01 -5.47292E+00 -7.61517E+00 -4.40589E+00
   7.98186E+00 -1.21300E+01 -2.76146E+00 -1.51427E+01 -1.49513E+01 -1.55215E+01 -1.55794E+01 -8.11190E+00 -7.37239E+00 -2.22560E+00
  -5.11714E-01  2.78960E+00  1.91474E+01  2.71352E+01  1.80965E+01  4.98439E+00  1.29566E+01  3.79607E+01  1.49966E+01  4.48688E+00
  -1.21089E+01 -1.68736E+01 -3.21821E+00 -1.78761E+01 -2.61490E+01 -4.16860E+01 -2.93690E+01 -3.19136E+01 -2.33497E+01 -1.58680E+01
  -1.92385E+01 -1.69594E+01 -2.13372E+01 -1.31236E+01 -1.84468E+01  1.68602E+01  6.92770E+00 -1.30306E+01 -3.38659E+00  1.75022E+00
   1.27934E+01 -1.46224E+01 -1.23679E-01  3.24958E+01  2.75964E+01 -6.59180E-01 -3.75441E+00 -7.54478E-01 -1.35085E+01 -1.67852E+01
  -2.22019E+01 -2.61960E+01 -3.10953E+01 -1.32201E+01 -6.77159E+00  1.03644E+01  4.70738E+01  6.07561E+01  5.58801E+01  4.15813E+01
   2.18717E+01  5.83870E+00 -4.41103E+00 -6.31070E+00  5.11267E+00 -1.14163E+01 -1.45639E+00  1.09576E+01  8.53404E+00  1.56278E+01
  -3.05179E+00  6.43072E+00  8.08903E+00 -1.89654E+01 -2.17925E+01 -1.70203E+01 -3.28889E+01 -3.40236E+01 -4.14444E+01 -3.96195E+01
  -3.46158E+01 -4.69254E+01 -1.79549E+01 -1.22951E+01  2.58647E+00  1.25230E+01 -1.17820E+00  2.97606E-01 -7.61287E+00 -1.22298E+01
  -1.84773E+01 -9.46562E-01 -1.98303E+01 -3.88749E+01 -4.11497E+01 -6.12866E+01 -7.55072E+01 -6.33917E+01  6.72482E+01  1.47272E+02
   1.31806E+02  1.54604E+02  1.44044E+02  1.20521E+02  9.77791E+01  7.77845E+01  9.31924E+01  9.42413E+01  8.48155E+01  8.24652E+01
   7.93335E+01  7.86542E+01  8.08918E+01  8.21436E+01  8.27185E+01  7.95777E+01  7.58782E+01  7.78316E+01  6.85174E+01  7.15555E+01
   7.52209E+01  7.66180E+01  8.37435E+01  6.90048E+01  6.74043E+01  7.15157E+01  5.59700E+01  5.37555E+01  6.48912E+01  5.35181E+01
   6.76881E+01  7.38311E+01  5.27262E+01  6.10893E+01  4.58305E+01  4.30604E+01  3.90289E+01  3.70709E+01  4.79179E+01  3.44214E+01
   4.49474E+01  4.86775E+01  4.71165E+01  4.79630E+01  5.29856E+01  6.49430E+01  6.29622E+01  5.91425E+01  5.64787E+01  6.47242E+01
   7.02596E+01  5.39403E+01  5.73185E+01  7.91164E+01  7.23157E+01  8.26042E+01  9.13548E+01  8.54679E+01  7.83891E+01  7.44328E+01
   8.66251E+01  7.04361E+01  7.42860E+01  7.19251E+01  5.60059E+01  6.79345E+01  6.92851E+01  7.04438E+01  5.85842E+01  5.20604E+01
   6.05755E+01  4.86010E+01  3.89870E+01  4.92177E+01  4.48476E+01  4.18508E+01  3.91144E+01  3.03173E+01  4.98688E+01  5.44900E+01
   6.79804E+01  9.76357E+01  7.75595E+01  5.63393E+01  5.81438E+01  4.66426E+01  3.63539E+01  3.14963E+01  1.83379E+01  2.12284E+01
   2.92172E+01  8.25300E+00  6.02203E+00  1.00937E+01 -9.89552E+00 -8.53214E+00 -1.35902E+01 -2.49818E+01 -2.56144E+01 -2.51625E+01
  -2.47949E+01 -2.38664E+01 -9.29619E+00 -1.25014E+00 -3.88478E-01  2.64458E-01  5.47136E+00  8.34384E+00  1.17600E+01  1.32689E+01
   1.02043E+01  1.61565E+01  2.27522E+01  3.05429E+01  2.88367E+01  2.72606E+01  2.65623E+01  3.92092E+01  4.50320E+01  3.50353E+01
   4.46757E+01  5.39725E+01  4.91124E+01  4.06258E+01  5.75124E+01  7.98611E+01  9.44729E+01  9.27458E+01  9.39913E+01  9.80245E+01
   8.12842E+01  7.66422E+01  6.93098E+01  5.89454E+01  3.54653E+01  2.44447E+01  2.40404E+01  2.45224E+01  2.04983E+01  1.17415E+01
   7.19460E+00 -1.27291E+01 -1.72399E-01 -6.65201E+00 -1.07734E+01 -1.58169E+01 -1.64190E+01 -7.98319E+00 -4.07433E+01 -3.20882E+01
  -2.83852E+01 -1.12874E+01 -1.78509E+01 -3.90216E+01 -3.00471E+01 -3.36543E+01 -1.63928E+01 -3.26054E+01 -2.37983E+01 -1.40732E+01
  -2.15173E+01 -1.34894E+01 -1.74387E+01 -1.37039E+01 -2.81814E+01 -3.14149E+01 -1.83416E+01 -2.25765E+01 -3.09157E+01 -6.82965E+00
  -2.56897E+01 -4.08598E+01 -8.72887E+00 -2.26954E+01 -2.24582E+01 -7.86452E+00  1.21983E+00 -1.63896E+01 -2.88298E+01 -1.72085E+01
  -1.53613E+01 -2.67523E+00 -1.97933E+01 -2.75437E+01 -2.53376E+01 -1.46741E+01 -9.93845E+00 -3.26921E+01 -1.76932E+01 -1.90771E+01
  -2.20234E+01 -1.75008E+01 -1.93581E+01 -9.54297E+00 -3.07154E+01 -1.90794E+01 -2.42763E+01 -2.54670E+01  9.05976E+00 -2.08808E+01
  -1.71985E+01 -2.18745E+01 -1.49311E+01  1.97632E+01 -1.88033E+01 -2.60706E+01 -2.52035E+01 -1.84723E+01  5.92781E+00 -1.94927E+00
  -1.10583E+01 -9.27747E+00 -5.02299E+00  3.61532E-01 -2.13129E-01 -1.16653E+01 -3.55246E+00 -1.08218E+01 -6.57484E+00 -4.94228E+00
 NY points of the fit to the data follow
  -1.98771E+01 -2.35460E+01 -2.48612E+01 -2.56021E+01 -1.97113E+01 -6.12797E+00  9.05382E+00  1.41444E+01  4.12200E+00 -2.79100E+00
  -9.05704E+00 -1.41240E+01 -1.79504E+01 -2.02240E+01 -2.11486E+01 -2.18382E+01 -2.16655E+01 -3.03339E+01 -3.60034E+01 -5.19151E+01
  -6.73497E+01 -6.53460E+01 -3.36674E+01 -1.55392E+01 -4.05971E+00  2.87299E+01  3.25899E+01  3.28487E+01  3.94708E+01  4.13724E+01
   4.14520E+01  4.05713E+01  3.90149E+01  3.75460E+01  3.52295E+01  3.28999E+01  3.22977E+01  2.62446E+01  1.68480E+01 -1.22782E+00
  -2.03502E+01 -3.56555E+01 -2.94618E+01 -1.41884E+01 -2.34359E+00  1.47880E+01  2.77809E+01  3.77867E+01  3.99898E+01  4.29224E+01
   4.32176E+01  4.05994E+01  3.50100E+01  2.63709E+01  1.92037E+01  1.01641E+01  5.64784E+00  7.84465E+00  2.18511E+00 -9.81761E+00
   3.40631E-02  1.34720E+01  9.89380E+00  2.43606E+01  4.39863E+01  4.66229E+01  4.54039E+01  3.83629E+01  2.07941E+01 -1.62025E+00
  -8.00417E+00  5.27540E+00  8.91301E+00  1.10470E+01  2.83635E+01  4.02845E+01  4.49078E+01  5.07629E+01  5.32739E+01  5.75673E+01
   5.40458E+01  4.67181E+01  2.98811E+01  1.53832E+01 -8.65354E-01 -4.07522E+00  3.80648E+00  1.05873E+01  2.75034E+01  3.36952E+01
   4.00441E+01  4.54777E+01  4.90900E+01  5.29410E+01  5.72187E+01  6.05001E+01  6.25352E+01  6.58027E+01  6.66808E+01  6.70165E+01
   6.78647E+01  7.37788E+01  6.41541E+01  5.24907E+01  3.89168E+01  3.51987E+01  2.50534E+01  2.35389E+01  1.38432E+01 -2.88510E+01
  -9.02349E+01 -1.19644E+02 -8.53459E+01 -6.52402E+01 -5.14999E+01 -3.60537E+01 -2.64415E+01 -1.86249E+01 -1.18107E+01 -5.93369E+00
  -3.05331E-01  5.40755E+00  1.13860E+01  1.82123E+01  2.66885E+01  3.50714E+01  4.20173E+01  5.24309E+01  8.21692E+01  1.04221E+02
   1.27976E+02  1.31862E+02  8.52864E+01 -2.56683E+01 -7.79962E+01 -5.60768E+01 -6.20253E+01 -5.69786E+01 -5.02949E+01 -4.78176E+01
  -4.62310E+01 -4.42262E+01 -4.38803E+01 -4.40429E+01 -4.30524E+01 -4.18861E+01 -4.04620E+01 -3.75589E+01 -3.47639E+01 -3.23024E+01
  -3.04428E+01 -2.88524E+01 -2.72753E+01 -2.52736E+01 -2.22394E+01 -1.92936E+01 -1.67671E+01 -1.61659E+01 -1.67009E+01 -1.60627E+01
  -1.35727E+01 -9.96754E+00 -8.46896E+00 -1.01733E+01 -1.36969E+01 -1.36135E+01 -1.20748E+01 -1.29121E+01 -1.50115E+01 -1.40184E+01
  -6.74793E+00  4.46375E+00  1.67274E+01  2.01841E+01  1.21396E+01  7.13995E+00  1.41649E+01  2.34872E+01  2.31754E+01  1.30726E+01
  -1.90187E+00 -8.65802E+00 -1.25523E+01 -1.80947E+01 -1.91143E+01 -1.97391E+01 -2.01465E+01 -2.00646E+01 -1.90081E+01 -1.88617E+01
  -1.93664E+01 -1.66761E+01 -1.38540E+01 -1.32215E+01 -6.04762E+00  4.71227E+00  3.44092E+00  7.67483E-01  9.24326E+00  1.14321E+01
   1.04540E+01  1.01025E+01  1.08511E+01  1.98531E+01  2.02633E+01  1.49600E+01  1.07360E+01  5.42872E+00 -2.62849E+00 -1.23376E+01
  -1.70213E+01 -2.50642E+01 -2.44267E+01 -1.74596E+01 -1.29292E+00  1.63808E+01  4.15403E+01  5.19560E+01  4.75369E+01  5.16792E+01
   3.78121E+01  2.93748E+01  3.00755E+01  2.91735E+01  3.04699E+01  3.13360E+01  2.82214E+01  2.39305E+01  1.71126E+01  7.97990E+00
  -5.09922E-01 -1.04161E+01 -2.01166E+01 -2.81712E+01 -3.48316E+01 -4.09318E+01 -4.33421E+01 -4.22288E+01 -4.29270E+01 -4.05962E+01
  -3.57237E+01 -3.47081E+01 -2.84644E+01 -1.73479E+01 -1.20052E+01 -3.72139E+00 -8.95584E-01 -3.47524E+00 -3.00733E+00 -1.16017E+01
  -1.80420E+01 -2.01619E+01 -2.45761E+01 -4.20697E+01 -4.88703E+01 -5.62987E+01 -7.82116E+01 -6.38070E+01  5.93508E+01  1.44102E+02
   1.26655E+02  1.26735E+02  1.20747E+02  1.09587E+02  1.03903E+02  9.90518E+01  9.41021E+01  8.95568E+01  8.50169E+01  8.14586E+01
   7.87966E+01  7.75670E+01  7.69492E+01  7.65884E+01  7.78566E+01  7.76511E+01  7.81220E+01  7.86777E+01  7.81288E+01  7.78921E+01
   7.65492E+01  7.51256E+01  7.36100E+01  7.21524E+01  7.06458E+01  6.87511E+01  6.71441E+01  6.54047E+01  6.32763E+01  6.08510E+01
   5.78637E+01  5.46633E+01  5.15714E+01  4.82605E+01  4.59315E+01  4.51073E+01  4.51951E+01  4.63030E+01  4.78354E+01  4.95121E+01
   5.12365E+01  5.33796E+01  5.55061E+01  5.72390E+01  5.88551E+01  6.03049E+01  6.16987E+01  6.33869E+01  6.53496E+01  6.72519E+01
   6.86680E+01  7.00193E+01  7.11081E+01  7.22796E+01  7.34734E+01  7.38089E+01  7.37010E+01  7.36336E+01  7.25039E+01  7.08222E+01
   6.93304E+01  6.74161E+01  6.49106E+01  6.24569E+01  5.99038E+01  5.60520E+01  5.11265E+01  4.45135E+01  3.71080E+01  3.03853E+01
   2.43405E+01  1.94690E+01  1.64870E+01  1.59864E+01  1.78448E+01  2.15169E+01  2.61251E+01  3.03655E+01  3.71723E+01  4.74769E+01
   5.48144E+01  6.59155E+01  6.21017E+01  4.43021E+01  1.35820E+01 -1.23578E+00 -1.64545E+01 -1.78264E+01  1.51192E+00  2.61204E+00
   8.28094E+00  9.49709E+00  8.85836E+00  6.69411E+00  3.90508E+00  1.77394E+00  9.14097E-01  8.70276E-01  1.57584E+00  3.43256E+00
   5.52360E+00  8.14777E+00  1.10307E+01  1.37046E+01  1.64760E+01  1.88543E+01  2.10129E+01  2.31425E+01  2.51121E+01  2.73531E+01
   2.94362E+01  3.12503E+01  3.34835E+01  3.56293E+01  3.80310E+01  4.12348E+01  4.47331E+01  4.80684E+01  5.22358E+01  5.73111E+01
   6.18800E+01  6.71322E+01  7.34371E+01  7.98746E+01  8.55971E+01  8.99858E+01  9.17665E+01  8.95583E+01  8.39520E+01  7.54800E+01
   6.65080E+01  5.87396E+01  5.24013E+01  4.68806E+01  4.21891E+01  3.76163E+01  3.14954E+01  2.43826E+01  1.70654E+01  1.01152E+01
   3.34015E+00 -1.56405E+00 -5.28129E+00 -8.37205E+00 -1.05013E+01 -1.19401E+01 -1.28190E+01 -1.38699E+01 -1.48556E+01 -1.57558E+01
  -1.65591E+01 -1.69930E+01 -1.71746E+01 -1.72059E+01 -1.74282E+01 -1.76046E+01 -1.74886E+01 -1.77063E+01 -1.80944E+01 -1.81511E+01
  -1.76033E+01 -1.76155E+01 -1.79999E+01 -1.79462E+01 -1.78846E+01 -1.79029E+01 -1.81628E+01 -1.82026E+01 -1.78873E+01 -1.75104E+01
  -1.75223E+01 -1.77423E+01 -1.78037E+01 -1.81199E+01 -1.80750E+01 -1.80051E+01 -1.77433E+01 -1.76188E+01 -1.74001E+01 -1.71525E+01
  -1.72065E+01 -1.70563E+01 -1.70748E+01 -1.71927E+01 -1.75537E+01 -1.76189E+01 -1.74129E+01 -1.72480E+01 -1.71272E+01 -1.71018E+01
  -1.70293E+01 -1.71760E+01 -1.72204E+01 -1.68435E+01 -1.66673E+01 -1.65865E+01 -1.63614E+01 -1.62796E+01 -1.61859E+01 -1.60291E+01
  -1.59537E+01 -1.59527E+01 -1.61117E+01 -1.62682E+01 -1.62295E+01 -1.59986E+01 -1.58278E+01 -1.52227E+01 -1.48357E+01 -1.47238E+01
  -1.48481E+01 -1.50846E+01 -1.52026E+01 -1.51269E+01 -1.48083E+01 -1.48199E+01 -1.47131E+01 -1.43825E+01 -1.45147E+01 -1.46442E+01
 NY background values follow
     9.602E+00    9.686E+00    9.770E+00    9.854E+00    9.939E+00    1.002E+01    1.011E+01    1.019E+01    1.028E+01    1.036E+01
     1.045E+01    1.053E+01    1.062E+01    1.071E+01    1.079E+01    1.088E+01    1.097E+01    1.105E+01    1.114E+01    1.123E+01
     1.131E+01    1.140E+01    1.149E+01    1.158E+01    1.166E+01    1.175E+01    1.184E+01    1.193E+01    1.202E+01    1.211E+01
     1.219E+01    1.228E+01    1.237E+01    1.246E+01    1.255E+01    1.264E+01    1.273E+01    1.282E+01    1.291E+01    1.300E+01
     1.308E+01    1.317E+01    1.326E+01    1.334E+01    1.343E+01    1.351E+01    1.360E+01    1.368E+01    1.376E+01    1.384E+01
     1.392E+01    1.400E+01    1.407E+01    1.415E+01    1.422E+01    1.429E+01    1.436E+01    1.443E+01    1.450E+01    1.457E+01
     1.463E+01    1.469E+01    1.475E+01    1.481E+01    1.486E+01    1.492E+01    1.497E+01    1.502E+01    1.506E+01    1.511E+01
     1.515E+01    1.519E+01    1.523E+01    1.527E+01    1.531E+01    1.534E+01    1.537E+01    1.540E+01    1.543E+01    1.546E+01
     1.548E+01    1.550E+01    1.552E+01    1.554E+01    1.556E+01    1.557E+01    1.559E+01    1.560E+01    1.561E+01    1.561E+01
     1.562E+01    1.562E+01    1.562E+01    1.562E+01    1.562E+01    1.562E+01    1.561E+01    1.561E+01    1.560E+01    1.559E+01
     1.558E+01    1.557E+01    1.555E+01    1.554E+01    1.552E+01    1.551E+01    1.549E+01    1.547E+01    1.546E+01    1.544E+01
     1.542E+01    1.540E+01    1.538E+01    1.536E+01    1.534E+01    1.531E+01    1.529E+01    1.527E+01    1.525E+01    1.523E+01
     1.521E+01    1.519E+01    1.517E+01    1.514E+01    1.512E+01    1.510E+01    1.508E+01    1.506E+01    1.504E+01    1.502E+01
     1.501E+01    1.499E+01    1.497E+01    1.495E+01    1.493E+01    1.492E+01    1.490E+01    1.488E+01    1.487E+01    1.485E+01
     1.484E+01    1.482E+01    1.481E+01    1.480E+01    1.479E+01    1.477E+01    1.476E+01    1.475E+01    1.474E+01    1.473E+01
     1.472E+01    1.472E+01    1.471E+01    1.470E+01    1.470E+01    1.469E+01    1.469E+01    1.468E+01    1.468E+01    1.468E+01
     1.468E+01    1.468E+01    1.468E+01    1.468E+01    1.469E+01    1.469E+01    1.470E+01    1.471E+01    1.471E+01    1.472E+01
     1.473E+01    1.474E+01    1.476E+01    1.477E+01    1.479E+01    1.480E+01    1.482E+01    1.484E+01    1.486E+01    1.488E+01
     1.491E+01    1.493E+01    1.496E+01    1.499E+01    1.502E+01    1.505E+01    1.508E+01    1.512E+01    1.515E+01    1.519E+01
     1.523E+01    1.527E+01    1.531E+01    1.536E+01    1.540E+01    1.545E+01    1.550E+01    1.555E+01    1.560E+01    1.566E+01
     1.572E+01    1.577E+01    1.583E+01    1.590E+01    1.596E+01    1.603E+01    1.610E+01    1.617E+01    1.624E+01    1.631E+01
     1.639E+01    1.647E+01    1.655E+01    1.663E+01    1.671E+01    1.680E+01    1.688E+01    1.697E+01    1.706E+01    1.715E+01
     1.724E+01    1.734E+01    1.743E+01    1.752E+01    1.762E+01    1.771E+01    1.781E+01    1.791E+01    1.800E+01    1.810E+01
     1.820E+01    1.829E+01    1.839E+01    1.849E+01    1.858E+01    1.868E+01    1.878E+01    1.887E+01    1.896E+01    1.906E+01
     1.915E+01    1.924E+01    1.933E+01    1.942E+01    1.951E+01    1.960E+01    1.968E+01    1.977E+01    1.985E+01    1.993E+01
     2.001E+01    2.009E+01    2.017E+01    2.024E+01    2.031E+01    2.038E+01    2.045E+01    2.052E+01    2.058E+01    2.065E+01
     2.071E+01    2.076E+01    2.082E+01    2.087E+01    2.092E+01    2.097E+01    2.101E+01    2.106E+01    2.110E+01    2.113E+01
     2.117E+01    2.120E+01    2.123E+01    2.125E+01    2.127E+01    2.129E+01    2.131E+01    2.132E+01    2.133E+01    2.133E+01
     2.134E+01    2.133E+01    2.133E+01    2.132E+01    2.131E+01    2.130E+01    2.128E+01    2.126E+01    2.124E+01    2.121E+01
     2.118E+01    2.115E+01    2.111E+01    2.107E+01    2.103E+01    2.098E+01    2.093E+01    2.087E+01    2.081E+01    2.075E+01
     2.068E+01    2.061E+01    2.054E+01    2.046E+01    2.038E+01    2.030E+01    2.021E+01    2.011E+01    2.002E+01    1.991E+01
     1.981E+01    1.970E+01    1.958E+01    1.946E+01    1.933E+01    1.921E+01    1.907E+01    1.893E+01    1.879E+01    1.864E+01
     1.848E+01    1.832E+01    1.816E+01    1.799E+01    1.781E+01    1.763E+01    1.744E+01    1.725E+01    1.705E+01    1.685E+01
     1.664E+01    1.642E+01    1.620E+01    1.597E+01    1.574E+01    1.550E+01    1.526E+01    1.502E+01    1.476E+01    1.451E+01
     1.425E+01    1.399E+01    1.372E+01    1.345E+01    1.317E+01    1.290E+01    1.262E+01    1.233E+01    1.205E+01    1.176E+01
     1.147E+01    1.118E+01    1.088E+01    1.059E+01    1.029E+01    9.990E+00    9.690E+00    9.389E+00    9.087E+00    8.785E+00
     8.483E+00    8.180E+00    7.877E+00    7.574E+00    7.271E+00    6.969E+00    6.666E+00    6.364E+00    6.062E+00    5.761E+00
     5.461E+00    5.162E+00    4.863E+00    4.565E+00    4.268E+00    3.973E+00    3.679E+00    3.386E+00    3.095E+00    2.805E+00
     2.517E+00    2.230E+00    1.946E+00    1.663E+00    1.383E+00    1.105E+00    8.291E-01    5.556E-01    2.846E-01    1.621E-02
    -2.497E-01   -5.127E-01   -7.729E-01   -1.031E+00   -1.285E+00   -1.538E+00   -1.787E+00   -2.034E+00   -2.278E+00   -2.519E+00
    -2.758E+00   -2.994E+00   -3.227E+00   -3.457E+00   -3.685E+00   -3.910E+00   -4.133E+00   -4.353E+00   -4.570E+00   -4.784E+00
    -4.996E+00   -5.205E+00   -5.411E+00   -5.614E+00   -5.815E+00   -6.014E+00   -6.209E+00   -6.402E+00   -6.592E+00   -6.780E+00
    -6.965E+00   -7.147E+00   -7.326E+00   -7.504E+00   -7.678E+00   -7.850E+00   -8.020E+00   -8.187E+00   -8.352E+00   -8.515E+00
    -8.675E+00   -8.834E+00   -8.990E+00   -9.144E+00   -9.296E+00   -9.446E+00   -9.594E+00   -9.740E+00   -9.884E+00   -1.003E+01
    -1.017E+01   -1.031E+01   -1.044E+01   -1.058E+01   -1.071E+01   -1.084E+01   -1.097E+01   -1.110E+01   -1.123E+01   -1.136E+01
    -1.148E+01   -1.161E+01   -1.173E+01   -1.185E+01   -1.197E+01   -1.209E+01   -1.221E+01   -1.233E+01   -1.244E+01   -1.256E+01
    -1.267E+01   -1.279E+01   -1.290E+01   -1.301E+01   -1.312E+01   -1.323E+01   -1.334E+01   -1.345E+01   -1.356E+01   -1.367E+01
    -1.378E+01   -1.389E+01   -1.400E+01   -1.411E+01   -1.422E+01   -1.433E+01   -1.443E+01   -1.454E+01   -1.465E+01   -1.476E+01
 Mac      Conc. = 2.09E-04
  -5.49994E+00 -5.56654E+00 -5.44190E+00 -5.45545E+00 -5.72906E+00 -6.53216E+00 -7.72696E+00 -9.08376E+00 -1.04539E+01 -1.12603E+01
  -1.15432E+01 -1.12288E+01 -1.11564E+01 -1.18047E+01 -1.30053E+01 -1.48663E+01 -1.58417E+01 -1.46853E+01 -1.06732E+01 -6.66199E+00
  -4.23006E+00 -1.31129E+00  1.40918E+00  2.21089E+00  2.88156E+00  3.88006E+00  5.19765E+00  6.67451E+00  8.20937E+00  9.99748E+00
   1.11306E+01  1.20677E+01  1.25805E+01  1.26941E+01  1.22000E+01  1.19419E+01  1.27831E+01  1.45266E+01  1.68128E+01  1.80690E+01
   1.79938E+01  1.76411E+01  1.80716E+01  1.92346E+01  2.04199E+01  2.16077E+01  2.17077E+01  2.13295E+01  2.07467E+01  1.97069E+01
   1.86224E+01  1.77166E+01  1.73585E+01  1.66435E+01  1.62970E+01  1.63108E+01  1.65437E+01  1.76473E+01  1.90617E+01  1.99241E+01
   2.10260E+01  2.23582E+01  2.27612E+01  2.21993E+01  2.17924E+01  2.09194E+01  2.01972E+01  1.98618E+01  1.94317E+01  1.94241E+01
   2.03986E+01  2.27668E+01  2.47937E+01  2.60775E+01  2.67880E+01  2.72093E+01  2.68538E+01  2.62769E+01  2.56910E+01  2.49301E+01
   2.46496E+01  2.41735E+01  2.40429E+01  2.43430E+01  2.51891E+01  2.57040E+01  2.63926E+01  2.69766E+01  2.74466E+01  2.78380E+01
   2.81364E+01  2.87013E+01  2.88005E+01  2.88072E+01  2.84231E+01  2.71200E+01  2.52204E+01  2.34954E+01  2.15145E+01  2.00442E+01
   1.91518E+01  1.79428E+01  1.61358E+01  1.36945E+01  1.03904E+01  5.50965E+00 -1.40268E-01 -5.28879E+00 -8.37850E+00 -8.78655E+00
