 
 $NMID
 ID=''
 FMTDAT='(2E13.5)'
 TRAMP=   1.00000E+0
 VOLUME=   1.00000E+0
 $END
  -8.21439E+3  -1.89865E+4
  -1.75729E+4  -6.48395E+3
  -2.66178E+3   1.13490E+4
   1.86813E+4  -5.67751E+3
   3.93000E+2  -1.48320E+4
  -1.26401E+4   3.45824E+3
   4.37656E+3   3.89116E+3
   5.53059E+3  -8.95370E+3
  -4.65596E+3  -2.92263E+3
   1.66479E+3   4.10258E+3
   4.20378E+3  -9.25827E+1
  -2.05140E+3   8.70795E+2
   8.03129E+2   9.88824E+2
   2.42932E+3  -8.35146E+2
  -2.80592E+3   3.46920E+3
  -1.33271E+3   2.49940E+3
   1.89459E+3  -4.47566E+3
  -2.84295E+2  -1.09162E+3
  -4.20876E+2   3.88636E+3
   1.55274E+3   5.36877E+1
   7.99019E+2  -2.64626E+3
  -9.23308E+2  -3.20048E+2
  -3.13336E+2   6.13818E+2
   1.90730E+3   7.50812E+2
   4.16914E+2  -2.24752E+0
  -1.80281E+3  -1.28575E+3
   3.17906E+2  -4.22007E+2
   2.85500E+3   5.82922E+2
  -5.24938E+2  -1.85957E+2
  -2.22582E+3   5.48165E+1
   1.50336E+3   3.30112E+2
   1.67966E+3  -1.17440E+3
  -1.21931E+3  -7.22937E+2
  -9.21350E+2   2.06531E+3
   2.56680E+2   2.03381E+3
  -8.66018E+2  -1.83402E+3
  -9.73105E+2  -2.23435E+3
   9.94317E+2   8.12826E+2
   1.37613E+3   1.00050E+3
  -5.87225E+2  -9.53191E+2
  -8.47549E+2   6.38017E+2
   1.01006E+3   1.80174E+3
  -2.67159E+2  -7.07760E+2
  -2.33687E+3  -1.12973E+3
  -1.23976E+3   4.04083E+2
   1.16286E+3  -5.94818E+2
   1.42560E+3  -1.45500E+3
   3.43149E+2   8.43623E+2
  -2.97817E+2   1.82315E+3
  -4.43617E+2   5.52894E+1
  -4.53457E+2  -5.01074E+2
  -3.96478E+2   3.98689E+2
  -3.50643E+2   3.90609E+2
  -1.52717E+2  -7.43900E+2
  -1.72595E+0  -3.98462E+2
   2.02057E+2   2.26797E+2
   1.10432E+2   6.24798E+2
   1.32008E+2   5.62711E+2
  -3.73141E+2   1.55472E+2
  -8.61483E+2  -1.43260E+2
  -5.83651E+2   7.19592E+0
   2.05097E+2  -8.60854E+2
   9.51163E+2  -6.54407E+2
   1.20596E+3   6.14755E+1
   6.78674E+2   6.29017E+2
   8.53718E+1   7.34223E+2
  -1.18410E+2   5.85986E+2
  -6.20885E+2   3.10056E+2
  -7.74216E+2  -1.87884E+2
   2.87698E+2  -6.95699E+2
   5.16068E+2   1.38106E+2
  -4.95064E+2   8.19472E+2
  -8.15864E+2   7.74224E+1
   2.79714E+2  -6.19982E+2
   4.59652E+2  -4.80141E+2
  -6.97487E+1   3.26818E+2
  -9.79317E+1   5.95273E+0
   3.82502E+2  -4.82162E+2
   1.69136E+2  -4.67266E+2
   2.36696E+2   3.00956E+2
   4.28157E+2   3.10037E+2
  -4.42138E+0   1.96987E+1
  -1.16277E+2  -2.86660E+2
  -1.31552E+2   8.18643E+1
   8.08927E+1  -7.44369E+0
  -2.59481E+2  -2.28105E+2
  -7.23361E+2  -3.84872E+2
  -2.21782E+1  -2.31550E+2
   4.25674E+2  -2.25119E+2
  -4.18585E+2  -1.03475E+2
  -4.30068E+2  -3.29077E+2
   4.59021E+1  -2.28399E+2
   5.24220E+2  -5.12545E+2
   3.45192E+2  -3.55560E+2
   2.38343E+2   1.93829E+2
  -2.87649E+2   2.77287E+2
  -1.36854E+2  -7.55905E+1
  -2.43483E+2  -2.39243E+2
  -9.99802E+1  -1.41787E+2
  -4.80406E+2   2.14605E+2
  -3.97170E+2  -1.91025E+2
  -1.77584E+2  -2.13433E+2
   3.76249E+2  -6.60145E+1
   2.85028E+2   3.45079E+2
  -1.81085E+2  -2.50847E+0
  -4.64034E+2  -2.35502E+2
  -1.31745E+1  -3.93449E+2
   2.62827E+2   1.69713E+1
   4.40355E+2   4.39820E+2
  -2.32263E+2   2.72364E+2
  -3.35183E+2  -2.08228E+2
  -3.09546E+2  -1.94525E+2
  -5.90321E+0   2.59407E+1
   6.78918E+1   8.87118E+0
   5.33687E+1  -1.76219E+1
  -3.04371E+1  -4.44948E+2
   3.84026E+2   1.39698E+2
   2.64982E+2   2.59762E+2
  -2.63295E+1   5.06496E+2
   1.27171E+2   2.27171E+2
  -7.33884E+1   2.69178E+2
  -5.85782E+1   5.02846E+1
   4.72220E+1  -2.20356E+2
   1.30867E+2   1.96685E+1
   1.86415E+2   2.37590E+2
   1.07311E+2  -8.37623E+1
   1.14337E+2  -1.30765E+2
   1.44868E+2  -2.16533E+2
  -2.19143E+2   1.84440E+1
  -8.08931E+1  -2.05915E+2
  -9.49531E+1  -2.57580E+2
   4.88840E+2   1.59132E+2
  -1.07468E+2   2.49707E+2
  -9.16531E+0  -2.51335E+1
  -6.51591E+1  -1.46717E+2
   1.47419E+1  -1.32362E+2
   1.49067E+2   1.55025E+2
  -1.45030E+2   2.21610E+1
  -1.57840E+1  -2.73409E+2
   1.64959E+2  -1.63926E+2
   1.64139E+2  -5.99698E+1
   1.08616E+2   1.92503E+2
  -9.14957E+1   2.67782E+1
  -1.96579E+2  -6.29260E+1
   1.40150E+2  -2.65234E+2
   9.85333E+1  -9.54013E+1
   1.99779E+2  -4.15237E+1
  -1.14079E+2  -8.70516E+1
   6.61299E+1   1.05054E+2
   2.48495E+2   1.57353E+1
  -8.93194E+1  -4.85819E+1
  -1.11217E+2   1.61360E+2
  -8.30899E+1   1.24866E+2
  -1.75531E+2  -1.00729E+2
  -1.26449E+2  -2.07803E+2
   8.93871E+1  -5.22637E+1
  -1.28793E+1  -1.07464E+2
   1.21138E+2   3.88820E+1
  -6.97286E+1  -7.40496E+0
  -1.48202E+2  -6.58937E+1
   7.65934E+1  -2.08207E+2
   3.50817E+1  -2.07441E+1
  -2.86471E+2   1.15662E+1
  -7.14875E+1  -1.72771E+2
   3.32412E+2   1.63434E+2
  -2.10449E+2   4.58818E+1
  -4.67390E+2   1.72821E+2
   4.71793E+1   5.25636E+1
  -1.33353E+2  -2.80496E+1
  -1.45012E+1   2.20802E+2
  -1.00104E+2  -4.77148E+1
  -8.36964E+0  -1.78832E+2
   4.01513E+1  -3.79733E+1
   3.02976E+1  -2.78869E+1
   4.56864E+1   1.14413E+2
   1.48780E+2   1.13020E+1
   2.38321E+2  -1.90245E+2
   7.62016E+1   8.33627E+1
   1.31775E+2   1.87673E+2
   7.45583E+0  -9.37141E+1
   6.56731E+1  -1.11675E+2
   1.33979E+1   1.61095E+2
   1.14849E+2  -1.51088E+2
   1.20776E+2  -6.79465E+1
   2.67389E+2   2.00953E+2
  -9.43907E+1   2.58527E+1
   1.81332E+2   1.34127E+2
  -3.15771E+1   1.26076E+2
  -2.66823E+2   6.67735E+1
   1.49998E+1  -4.84362E+1
  -7.88469E+1   2.05680E+2
   3.09768E+2  -2.73322E+2
   8.18087E+1  -5.22490E+1
   1.46609E+2  -2.01710E+2
   2.46575E+1   1.84605E+2
  -1.81070E+2  -1.67413E+2
   1.05717E+2  -3.47621E+0
   2.30942E+2   1.42081E+1
   8.77185E+1   3.39074E+1
  -2.06708E+2  -4.09099E+1
   2.64733E+2  -1.44740E+2
   1.30059E+2   3.59308E+1
   1.48734E+2   1.22238E+1
   1.48750E+2  -1.81518E+2
   1.37659E+2   1.72204E+2
   1.20254E+2   3.80310E+1
   2.41326E+2   1.48979E+1
   1.24148E+2  -1.45733E+2
   1.55518E+2  -1.03022E+2
   2.02125E+1  -6.87151E+1
  -2.98670E+1   2.84103E+1
   1.06681E+2   4.93185E+1
   1.01229E+2  -4.72332E+0
  -1.37648E+2  -8.34646E+1
   1.06477E+2  -1.01409E+2
   5.90730E+1  -1.34479E+2
   2.36489E+2  -2.04657E+2
   2.69507E+2   1.00526E+2
   9.66893E+1   2.03934E+2
  -9.20102E-1  -2.04548E+2
   4.59544E+1   4.85356E+1
  -8.35735E+1  -1.09760E+1
  -1.96796E+1  -2.00965E+2
  -4.66909E+1   5.79800E+1
   1.32211E+2  -1.23357E+1
   1.18117E+2   5.28199E+1
   7.55015E+1  -2.17368E+1
  -4.60472E+1  -1.30099E+2
  -1.34496E+0  -3.43330E+2
   2.62487E+2   7.32575E+1
  -1.71971E+1  -1.52560E+2
  -1.56859E+2   8.20003E+0
  -9.20770E+1  -8.12502E+1
   1.27236E+2  -7.92199E+1
   5.24084E+1   1.19932E+2
   4.34334E+1   7.86183E+0
  -2.14429E+2   1.72290E+2
  -1.22881E+2  -1.52354E+2
  -1.28606E+1  -2.38729E+2
  -2.09935E+2   1.91137E+2
  -1.81099E+2   1.24900E+2
  -1.56822E+1  -3.82996E+0
   2.69081E+1  -1.86867E+2
   2.16353E+1  -2.48049E+2
   2.08796E+2   1.14193E+0
  -4.41091E+1   6.27077E+1
   8.69326E+1  -1.13918E+2
   3.07471E+0  -3.07418E+1
   1.06926E+1  -4.03599E+1
   1.54390E+1  -1.45073E+2
   2.20249E+1  -1.49214E+2
  -7.43683E+1  -8.19967E+1
   1.73854E+2  -1.70817E+2
  -4.21358E+1   8.95569E+0
   3.29409E+1   1.12858E+2
  -8.96131E+1   1.07333E+2
   6.86164E+0   1.68349E+2
  -7.51443E+1   8.10039E+1
  -6.92466E+1   4.82807E+1
   2.51037E+2  -2.32507E+1
  -9.41113E+0  -1.47531E+2
   4.21794E+2  -2.81527E+2
  -1.03060E+2   6.44434E+1
   2.25081E+2   1.17958E+2
   1.27434E+2   1.51085E+2
   1.58487E+2  -1.49858E+2
  -6.58880E+1  -4.97688E+1
   1.65153E+2  -7.59381E+1
   1.30307E+2   2.02814E+2
   3.50915E+1   1.60779E+2
  -8.63129E+1   4.33216E+1
  -8.97894E+1  -1.43509E+1
   2.86508E+1   2.82445E+2
   1.67702E+2  -3.67125E-1
  -1.02330E+2  -2.40174E+2
   2.52738E+1  -3.19110E+1
   3.79896E+2   8.22101E+1
  -1.48470E+2  -1.21607E+2
   1.20794E+2  -4.95954E+1
  -4.37631E+1  -1.16664E+2
   1.96803E+1  -2.93822E+1
   2.16034E+2   4.61517E+1
   2.84581E+2   1.29745E+1
  -1.28916E+2   7.47661E+1
   8.11809E+1  -8.97023E+1
   6.33026E+1   3.98043E+1
   1.03447E+2  -1.50353E+2
   8.48405E+1   2.24580E+2
   1.06813E+1  -8.16189E+0
   8.97777E+1  -2.71217E+2
  -4.79830E+1   1.80692E+2
  -1.99247E+1  -1.35656E+2
   1.56511E+2   1.34181E+1
   8.63822E+1  -1.71815E+2
  -3.81202E+1  -6.01165E+1
   2.16391E+2   5.32576E+1
   1.48389E+1   3.79827E+1
   2.06263E+2  -9.51180E+1
  -8.52572E+1  -1.59115E+2
  -1.48671E+2  -4.50795E+1
   5.77756E+1   9.77688E+1
  -1.60115E+2   1.54082E+1
  -1.63576E+1   3.88517E+1
   1.50013E+2  -1.82939E+2
  -7.14021E+0  -8.33927E+0
   1.58545E+2   1.74565E+0
   1.75427E+2  -2.94122E+0
   1.23522E+2   6.35680E+1
   4.71497E+1   2.29404E+2
   3.94578E+1   6.64650E+0
   1.30540E+1  -3.00193E+1
  -4.17453E+1  -2.01152E+1
   1.30738E+2   2.71463E+1
   3.27382E+2  -1.73872E+2
  -6.87460E-1   7.44940E+1
   4.21413E+1  -4.86181E+1
  -8.53251E+1   7.15571E+1
   2.76656E+1  -9.44388E+1
   1.84569E+2  -8.25267E+1
   1.09323E+2   9.72933E+1
   2.72648E+1   6.44760E+1
  -4.47507E+1   8.44965E+1
   8.83281E+1   2.94918E+1
   2.33353E+2   9.31535E+1
   8.49673E+1   3.46032E+1
  -1.72379E+2  -8.82826E+1
  -2.13842E+2  -8.24542E+1
   1.48566E+2   6.37264E+1
   2.49887E+2  -4.13647E+0
   2.11788E+2  -1.31381E+2
   7.19419E+1  -7.14855E+1
   2.55120E+2  -1.44384E+2
  -6.01240E+1  -5.22077E+1
  -3.01990E+2  -1.47125E+1
  -1.10463E+2   1.38444E+2
   2.89924E+2  -1.13848E+2
  -4.33311E+1   5.15945E+1
   1.51599E+2  -5.52706E+1
   3.85361E+2  -4.43253E+1
   1.06519E+1   1.39258E+2
  -1.41872E+1   1.04354E+2
  -5.22747E+1  -2.75524E+2
   1.16604E+2  -2.30642E+2
   1.88903E+2   3.60622E+1
   1.00095E+2   1.13108E+2
  -6.99128E-1   1.40932E+1
   1.24497E+2   1.00725E+2
  -1.50230E+1   1.90501E+1
  -8.65851E+1  -4.74757E+1
  -2.71074E+2   1.34982E+2
  -1.58810E+2   1.03220E+2
   1.55164E+2  -1.27146E+2
   1.07576E+2  -5.87521E+0
  -3.52538E+0  -2.59470E+1
   3.33193E+1  -6.15142E+1
   6.50561E+1  -1.10137E+2
  -1.98596E+2   5.02253E+1
  -6.00356E-1   2.68756E+1
  -2.18595E+2  -6.34826E+0
   1.04720E+2  -2.15762E+2
   3.75698E+1  -3.02120E+2
   7.46100E+1   1.65970E+1
  -3.10754E+1  -6.49681E+1
   1.87544E+2   4.28068E+1
   8.63509E+1   5.37437E+1
   4.85187E+1  -5.77081E-1
  -1.14539E+2  -1.65895E+2
