 
 $NMID
 ID=''
 FMTDAT='(2E13.5)'
 TRAMP=   1.00000E+0
 VOLUME=   1.00000E+0
 $END
  -6.80551E+3   2.18868E+4
   1.04589E+4   3.73704E+4
   4.49388E+4   1.60162E+2
   6.52942E+3  -3.72210E+4
  -4.22812E+4  -1.30812E+4
  -1.88862E+4   2.83185E+4
   2.70345E+4   2.31650E+4
   2.46976E+4  -1.11819E+4
  -9.94464E+3  -2.34276E+4
  -2.60200E+4  -3.58087E+2
  -6.71291E+3   2.10076E+4
   1.67058E+4   9.93284E+3
   9.43463E+3  -1.31971E+4
  -1.09839E+4  -1.43985E+4
  -1.04985E+4   1.95784E+3
   2.84955E+3   1.13270E+4
   7.30636E+3   4.67841E+3
   3.13001E+3  -7.00558E+3
  -2.42786E+3  -6.54339E+3
  -4.49300E+3   3.51731E+3
  -1.73896E+3   4.93955E+3
   3.12591E+3   7.37292E+1
   3.48999E+3  -6.31867E+2
  -1.49163E+3  -7.87443E+2
  -3.45332E+3  -2.38974E+3
   4.44146E+2   1.01437E+3
   2.03222E+3   3.50806E+3
  -4.32475E+2  -3.88419E+1
  -1.26183E+3  -3.85110E+3
   2.08636E+2  -1.62015E+3
  -3.94952E+2   1.92783E+3
  -1.22906E+3   2.02470E+3
  -7.90029E+2  -1.15033E+3
   6.84449E+2  -3.20906E+3
   1.96349E+3  -1.79725E+3
   8.42440E+2   1.77140E+3
  -1.62313E+3   2.05546E+3
  -6.59363E+2   6.15593E+1
   1.35937E+3  -5.92047E+2
  -2.55366E+2  -3.33033E+2
  -1.71764E+3  -1.17912E+3
  -7.36653E+1  -1.29431E+3
   2.13941E+3   9.81517E+2
   9.16186E+2   1.18176E+3
  -1.28047E+2  -5.35155E+2
  -3.85945E+2  -2.52228E+2
  -1.31053E+3   1.42201E+3
  -2.12897E+3   1.49369E+2
  -4.63599E+1  -1.94787E+3
   1.60924E+3  -1.64267E+3
   5.93220E+2  -3.22432E+1
  -2.74454E+2   1.00097E+2
   1.24460E+2   3.71122E+2
   8.49329E+2   1.16926E+3
   1.78622E+2   7.44535E+2
  -8.21055E+2  -4.02216E+2
  -9.98671E+2  -1.33828E+3
   3.82506E+2  -4.64029E+2
   1.39814E+3   4.97547E+2
   8.09855E+2   6.95811E+2
  -1.85201E+2   8.15907E+1
  -1.65737E+2   6.53759E+2
  -8.24014E+2   1.44951E+3
  -1.53439E+3   3.95293E+2
  -9.67242E+2  -1.34242E+3
   7.44541E+2  -1.41089E+3
   9.98645E+2  -2.19177E+2
   8.02329E+2   3.06386E+2
   8.68588E+2   5.21892E+2
   1.59003E+2   6.38321E+2
  -1.48502E+1   1.70725E+1
   2.18457E+2   4.46715E+1
   8.90563E+2   9.51237E+2
   1.04731E+2   1.03354E+3
  -3.76353E+2   2.88338E+2
  -7.13675E+1  -3.75405E+2
   3.94676E+2   2.09356E+2
  -1.79744E+2   6.92940E+2
  -3.51894E+2   4.62947E+2
  -1.31246E+1  -2.06905E+2
   2.87388E+2  -1.32053E+2
   4.63932E+2  -3.24037E+1
   2.23671E+2   1.87028E+2
   2.25038E+2   4.16808E+1
   5.29614E+2  -3.87350E+2
   9.65958E+2  -9.33146E+1
   6.45199E+2   4.02146E+2
   1.58163E+2   6.93442E+2
   1.82396E+2   2.18294E+2
   6.51061E+2   1.98202E+2
   6.20458E+2   5.69908E+2
  -2.80916E+2   6.13701E+2
  -6.17660E+2   1.61710E+2
  -2.79671E+2  -4.67927E+2
   7.00269E+2  -4.83190E+2
   1.01847E+3  -5.87178E+2
   5.37386E+2   3.36848E+1
  -1.73482E+1   1.09729E+2
   4.23602E+2   5.77786E+1
   1.13060E+3   2.41770E+2
   5.45006E+2   7.91816E+2
  -3.44286E+2   2.79844E+2
  -2.03825E+2  -5.30349E+2
   3.62822E+2  -6.45292E+2
   7.01992E+2  -1.22625E+2
   4.04152E+2   5.05559E+2
  -3.76681E+2   4.27299E+2
  -6.27316E+2  -4.58102E+2
   8.82435E+1  -1.37461E+3
   1.14800E+3  -3.77990E+2
   9.01200E+2   5.46543E+2
   1.76113E+2   4.95190E+2
  -1.98825E+2  -2.63437E+2
   2.43593E+2   1.34823E+2
  -9.87613E+1   2.90078E+2
  -4.37327E+2   8.80521E+1
  -5.89075E+2  -2.59171E+2
  -1.78326E+2  -1.11134E+3
   4.96580E+2  -1.13579E+3
   8.21286E+2  -1.28911E+2
   5.67637E+2   5.65087E+2
   2.00573E+2   4.31251E+2
  -2.13779E+2   2.86921E+2
  -2.49049E+2   9.50703E+1
  -4.50622E+2  -3.12593E+1
  -1.70380E+2  -5.84131E+2
   1.89876E+2  -6.08190E+2
   4.27407E+2  -1.34519E+2
   3.09196E+2  -6.69550E+1
  -2.65854E+2   3.89579E+2
  -3.73239E+2   4.60571E+1
  -4.48545E+2  -5.56898E+2
   1.01423E+2  -3.50485E+2
  -5.40221E+1   9.51362E+1
  -2.43815E+1  -2.39942E+2
   1.21295E+2  -3.09027E+2
   2.69030E+2   1.29346E+2
   2.81601E+2   3.58372E+2
  -3.39311E+2   3.33785E+2
  -3.68727E+2  -5.66258E+1
  -2.27994E+2  -4.45688E+2
   1.01204E+2  -3.57942E+2
   4.61406E+2   7.63126E+1
   2.43973E+2   7.62849E+2
  -3.74896E+2   5.29930E+2
  -6.19046E+2  -6.56463E+1
  -9.54147E+1  -3.80080E+2
  -1.59965E+2  -2.84516E+2
  -1.85196E+2   1.31940E+2
  -1.60393E+2  -3.11305E+2
   2.71636E+2  -3.29884E+2
   4.80291E+2  -1.11731E+2
   1.51519E+2   3.90464E+2
  -3.20031E+1   5.63881E+2
  -1.40975E+2   2.92793E+2
  -2.46773E+1  -5.45840E+1
  -1.02240E+2   2.73844E+2
  -2.61547E+2   2.95385E+2
  -2.04270E+2  -1.00094E+2
  -2.14757E+1   2.01178E+2
  -4.00935E+2   3.42818E+1
  -4.53172E+2   1.29265E+2
  -2.65053E+2  -1.96188E+2
  -2.74276E+2  -2.51482E+2
   4.88277E+1  -6.19791E+1
   1.31858E+2  -6.10268E+0
  -1.32899E+2   3.72568E+2
  -2.90960E+2   1.55438E+2
  -1.68790E+2  -1.90589E+2
   1.77242E+1  -2.26958E+2
   1.03815E+2   2.61990E+2
  -1.51147E+2   1.60200E+2
  -2.75237E+2  -5.78578E+1
  -6.29048E+1  -3.30937E+2
   2.28255E+2   7.58530E+1
  -2.92558E+1   6.08250E+1
  -2.62135E+2   1.27022E+2
  -3.72347E+2  -2.78812E+2
  -2.23459E+2  -3.23167E+2
   3.82216E+2  -2.88477E+1
   1.82807E+1   4.62141E+2
  -1.81611E+2   5.51958E+2
  -1.47463E+2   1.22236E+1
  -2.92832E+2  -5.87126E+1
  -1.17225E+2  -1.46493E+2
  -1.32987E+2  -9.49192E+1
  -2.42342E+2  -4.06551E+2
   4.28438E+2  -8.77319E+1
   3.91230E+2   2.74203E+2
   2.16365E+2   4.74190E+2
  -3.81593E+2   3.07282E+2
  -6.02813E+2  -1.25138E+2
  -1.52543E+2  -3.86662E+2
   2.28759E+1  -3.07192E+2
   1.14554E+2  -2.51216E+2
   2.89931E+2  -6.45504E+1
  -1.46760E+2   3.67520E+1
  -8.55862E+0  -4.59220E+1
   2.33548E+1   1.21667E+2
  -2.44446E+2   1.79379E+2
  -4.91626E+2  -1.38665E+2
   9.65352E+1  -5.64674E+2
   4.04047E+2  -2.67811E+2
   3.85301E+2   2.72940E+1
  -1.85580E+1   2.41904E+1
  -1.37975E+2  -5.77684E+1
  -2.91665E+2   3.01565E+1
  -1.00453E+2  -1.06076E+2
  -1.72460E+1  -1.04502E+2
   4.25842E+1   6.68278E-1
  -1.85758E+2  -3.56622E+2
   3.93347E+2  -9.29923E+1
   2.02972E+2   3.39986E+2
  -2.00205E+2   3.11735E+2
  -6.53691E+2  -2.21289E+2
  -2.44073E+2  -3.64892E+2
   6.69691E+1  -4.59072E+2
   4.90759E+1  -6.88164E+1
   2.02637E+2  -1.84750E+2
  -1.16792E+2  -8.99742E+1
   6.95516E+1   3.12095E+1
   1.34296E+2   1.42083E+2
  -2.96645E+2   4.48850E+2
  -1.37591E+2   5.95625E+1
  -5.39260E+2  -2.55145E+2
   3.79206E+1  -4.93622E+2
   1.74287E+2  -8.72992E+1
   2.70321E+1   1.44406E+2
  -2.47057E+1   1.87290E+2
  -1.64187E+2  -8.90150E+1
   1.09459E+2  -9.39234E+1
   1.08066E+0  -8.17535E+1
  -7.49667E+1   1.14838E+2
  -1.74809E+2  -2.14424E+2
   8.66466E+1  -1.07454E+2
  -1.26383E+2  -1.09186E+2
  -1.33952E+2   6.85722E+1
  -1.21738E+2  -2.79447E+1
  -1.31939E+2  -3.67944E+2
   9.82937E+0  -3.70967E+1
   1.23542E+2  -1.88267E+1
   1.88860E+1   2.75448E+2
  -2.92261E+2   4.15010E+1
  -2.98030E+2   1.02353E+1
  -5.23194E+1  -2.77460E+2
   4.21084E+1  -6.79026E+1
   1.62597E+1  -1.03248E+2
  -8.38473E+1  -2.25453E+2
  -2.81097E+1  -7.84253E+1
   1.37597E+2  -1.11344E+2
  -3.81056E+0  -1.80044E+2
  -1.69523E+2   2.42802E+2
  -2.66006E+2  -7.86030E+1
   8.97969E+1  -2.47682E+2
   2.18552E+2  -1.88735E+2
   2.54161E+2   1.47125E+2
  -1.37087E+2   1.52836E+2
  -3.17404E+1   3.72062E+1
  -1.16019E+2   1.13770E+2
  -1.96271E+2   4.74935E+1
  -3.23797E+2  -1.77092E+2
  -3.03010E+2  -2.91186E+2
  -8.06212E+1  -2.42387E+2
   2.64597E+2  -1.99436E+2
   4.07559E+2   8.99135E+0
  -3.25564E+1   1.76669E+2
  -1.53557E+2   2.81923E+2
  -2.77411E+2  -3.80582E+2
   1.19265E+2  -2.19285E+2
  -9.96945E+1  -1.61511E+2
   9.50981E+0  -1.04692E+2
   3.73509E+2  -9.93792E+1
   1.66032E+2  -1.59196E+2
   8.85803E+1   1.04074E+2
  -1.77070E+2   1.52170E+2
  -2.20424E+2   1.08053E+2
  -3.32911E+2  -2.91245E+2
  -1.73768E+2  -2.81640E+2
   1.39740E+2  -2.28384E+2
  -5.96991E+1   8.70855E+1
  -1.58210E+2  -3.70198E+1
   1.83507E+1  -4.27579E+1
   1.87251E+2  -1.93380E+2
  -2.93208E+2   2.13357E+1
  -3.60366E+2   9.80740E+1
  -1.77659E+2  -1.10813E+2
   2.73335E+2  -3.73252E+2
   2.41946E+2  -1.67274E+2
   5.99631E+1   1.33898E+2
  -4.73925E+1   1.36092E+2
  -1.08067E+2   1.21573E+2
  -1.60806E+2  -1.24481E+2
   1.57247E+1  -1.84871E+2
   2.65885E+1  -1.32722E+2
  -1.50586E+2  -4.74453E+1
   3.28769E+1  -3.61459E+2
   2.00405E+2  -1.08558E+2
  -2.29909E+2   8.26914E+1
   1.06513E+2  -2.98368E+0
  -8.79079E+1   2.94410E+0
  -7.13032E+1  -1.37838E+2
  -6.53228E+1  -1.20092E+2
  -1.31280E+2   2.12153E+2
  -2.76098E+2   4.37302E+1
  -1.92204E+2  -1.28678E+2
  -4.96708E+1  -1.82792E+2
   2.51152E+2   1.25871E+2
  -1.80322E+1  -1.55156E+2
  -1.25834E+2  -3.74668E+1
  -1.64765E+2   4.25659E+1
   1.18568E+1  -1.45438E+2
  -3.61269E+1   2.47901E+1
  -1.80998E+2   3.60671E+1
  -1.00919E+2  -1.53755E+2
  -1.26820E+1  -1.04065E+2
  -1.21394E+1   4.28429E+1
  -1.31159E+2  -4.99701E+1
   1.98304E+1  -1.50491E+2
  -3.85686E+1  -1.61769E+1
   9.08363E+1  -1.30319E+2
   2.85305E+2  -2.11159E+2
   2.91525E+1  -9.05814E+1
  -7.86049E+1  -1.02548E+2
  -3.41940E+1   4.05744E+1
   1.79818E+2  -1.46448E+2
   2.81519E+2   1.77486E+2
  -6.18355E+1   1.18517E+1
  -3.51198E+2  -9.79462E+1
  -1.37257E+2  -2.04259E+2
   1.41181E+2  -2.77993E+2
   2.34542E+1  -1.65493E+2
   8.44400E+1   4.13142E+0
  -1.34184E+2   2.27725E+2
   2.03527E+2   1.23958E+2
  -2.18601E+1   1.39451E+2
  -2.07142E+2   1.80589E+2
  -9.79188E+1  -6.57841E+1
  -2.19315E+2  -3.57756E+2
   3.52127E+1  -6.31459E+1
   2.19015E+2  -3.31464E+1
   1.01740E+1   7.90977E+1
   9.21427E+1   7.41633E+1
  -6.77533E+1  -8.94643E+1
  -3.24905E+1  -5.55192E+1
   1.21995E+2  -1.61103E+2
   1.07525E+1  -1.79437E+2
   3.42019E+2  -2.16343E+2
   2.91081E+1  -3.69765E+2
   3.41818E+2   1.21065E+2
   3.40588E+1  -1.13394E+2
   1.56698E+1  -1.62577E+1
   1.40638E+2  -1.99320E+2
  -4.81750E+1  -1.01955E+2
   9.33051E+1  -1.38901E+2
  -1.90447E+2   9.98114E+1
   8.56157E+1  -3.40820E+1
   9.64095E+1  -5.84655E+1
   8.63955E+1  -2.27921E+2
   3.44543E+2   1.25619E+2
  -1.62211E+2  -1.57825E+2
  -3.39847E+2  -1.09734E+2
   1.00325E+2  -2.91959E+2
  -4.17746E+1  -1.05218E+2
   1.76734E+2   1.07266E+2
   6.62009E+1   3.52076E+1
   5.45822E+0  -8.49622E+1
   1.16344E+2  -7.82037E+1
