 
 $NMID
 ID=''
 FMTDAT='(2E13.5)'
 TRAMP=   1.00000E+0
 VOLUME=   1.00000E+0
 $END
  -3.49738E+3  -2.36518E+4
  -2.52044E+4  -1.16843E+4
  -5.99276E+3   2.63965E+4
   2.66398E+4   1.05150E+4
  -2.08182E+3  -2.19258E+4
  -2.04758E+4   9.13904E+2
   1.14292E+4   1.68010E+4
   1.35726E+4  -7.20692E+3
  -1.04316E+4  -6.21587E+3
  -3.84293E+3   1.06099E+4
   5.27029E+3  -3.52320E+2
  -3.99397E+3  -7.64201E+3
  -3.20699E+3   2.20191E+3
   2.01268E+2   1.73930E+3
  -2.31218E+3  -3.90201E+3
   1.79127E+3  -1.83409E+3
   2.61068E+3   1.30050E+3
  -3.10939E+3   1.79389E+3
  -7.28556E+2   5.72164E+2
   2.20963E+3  -1.25284E+3
  -1.15721E+2  -5.42031E+1
   8.62711E+2   7.13554E+2
   1.46161E+3   3.93040E+1
  -1.20161E+3   1.02926E+2
  -1.05986E+2  -7.47917E+2
   2.44805E+3  -3.89084E+2
   2.33516E+2   2.32266E+3
  -1.81523E+3   7.20149E+2
  -4.87325E+2  -2.25425E+3
   7.05660E+2   9.68975E+1
  -1.52007E+2   1.45512E+3
  -8.65826E+2  -2.86470E+2
  -6.84132E+2  -1.05515E+3
  -5.25069E+2  -1.56070E+3
   7.57658E+2  -2.49007E+3
   2.84167E+3  -1.61033E+2
   1.25800E+3   2.38586E+3
  -1.69075E+3   7.02871E+2
  -9.31217E+2  -1.11689E+3
   5.08101E+2  -1.74530E+2
  -9.29157E+2   7.17723E+1
  -5.22168E+2  -1.23430E+3
   1.81963E+3  -9.82781E+2
   2.15664E+3   3.96235E+2
   5.84575E+2   1.17363E+3
   3.61787E+2   1.06109E+3
  -9.84116E+2   1.48411E+3
  -1.81836E+3   1.95423E+2
  -7.08523E+2  -1.80519E+3
   7.14946E+2  -1.73536E+3
   6.19629E+2  -2.16783E+2
   8.13407E+2  -3.10302E+2
   1.04132E+3  -1.89105E+2
   3.52015E+2   5.91134E+2
   2.95888E+2   5.92527E+2
  -5.36727E+2   1.63216E+2
  -8.55080E+2  -6.76016E+2
  -2.62768E-1  -1.15282E+3
   1.83177E+3  -8.36928E+2
   1.88064E+3   3.21411E+2
   4.89329E+2   1.16687E+3
   4.38767E+1   8.60555E+2
  -3.31570E+2   1.07414E+3
  -1.55394E+3   6.96239E+2
  -1.80746E+3  -8.47223E+2
  -5.64775E+2  -2.36839E+3
   9.87409E+2  -2.03886E+3
   1.49818E+3  -8.68867E+2
   1.14401E+3   7.31328E+2
  -1.62696E+2   6.09964E+2
  -4.98725E+2  -5.12542E+2
   1.02798E+3  -5.53771E+2
   9.39118E+2   4.62035E+2
  -2.65665E+2   1.27932E+3
  -7.35768E+2   1.33823E+2
  -1.22632E+2  -4.75610E+2
  -8.90233E+1   8.34298E+1
  -6.43619E+2   6.56451E+2
  -2.56464E+2   1.73257E+2
  -3.31355E+2  -4.04020E+2
  -4.01654E+2  -7.98368E+2
  -3.45791E+1  -7.42507E+2
   4.36315E+2   1.07720E+2
   1.27663E+2   2.37972E+1
   9.92893E+1  -3.71538E+2
   1.01821E+3  -5.31732E+2
   7.96469E+2   3.19082E+2
   1.87494E+2   8.45317E+2
  -1.74747E+2   1.85066E+2
   4.30437E+2   1.30187E+1
   6.58909E+2   6.58604E+2
  -1.55230E+2   1.17765E+3
  -1.11219E+3   3.81038E+2
  -1.22060E+3  -2.69026E+2
  -1.86470E+2  -1.14502E+3
   8.34159E+2  -9.58703E+2
   7.88561E+2   2.89499E+1
   2.00678E+2   8.01500E+1
  -5.89723E+1  -3.81935E+2
   8.23097E+2   6.11029E+1
   6.27493E+2   9.62837E+2
  -6.14187E+2   1.02009E+3
  -1.22228E+3  -1.45718E+2
  -3.65173E+2  -8.89839E+2
   7.57437E+2  -5.50874E+2
   8.57700E+2   5.87497E+2
  -3.97882E+2   9.69992E+2
  -9.37778E+2  -3.23925E+2
  -3.33816E+2  -1.34501E+3
   1.16271E+3  -8.26474E+2
   1.38559E+3   5.23604E+2
   5.26353E+2   1.16189E+3
  -1.15804E+2   6.01997E+2
  -1.34849E+2   1.35954E+2
  -1.09479E+0   1.20613E+0
  -4.29448E+2   2.55364E+2
  -8.94439E+2  -1.30973E+2
  -4.94201E+2  -1.23336E+3
   6.35011E+2  -1.66876E+3
   1.38588E+3  -7.21325E+2
   7.92968E+2   4.09116E+2
   1.77244E+2   4.99659E+2
   2.92899E+2   5.50733E+2
  -3.70990E+2   5.31770E+2
  -6.31251E+2   2.66058E+2
  -5.35476E+2  -2.87961E+2
   1.83373E+2  -4.42977E+2
   4.51554E+2  -2.54381E+2
   1.86954E+2   2.35618E+2
  -9.25798E-1   4.96742E+2
  -4.72030E+2   4.80149E+2
  -8.23283E+2  -4.05034E+2
  -8.41035E+1  -7.38986E+2
   9.67520E+1  -1.21847E+2
  -2.90755E+2   1.29553E+2
  -3.05162E+2  -5.76133E+2
   4.80427E+2  -3.48293E+2
   5.03617E+2   1.84504E+2
  -1.16391E+2   6.66299E+2
  -7.88573E+2   2.11631E+2
  -5.13899E+2  -4.66048E+2
   2.18360E+2  -1.04183E+3
   9.65090E+2   7.16704E+1
   1.98167E+2   1.01880E+3
  -8.24931E+2   8.11852E+2
  -1.07680E+3   7.16736E+1
  -6.29780E+2  -3.08816E+2
  -3.13610E+2  -2.76987E+2
  -1.58449E+2  -4.35559E+2
  -2.76600E+2  -3.86229E+2
   2.08416E+2  -5.30343E+2
   6.33552E+2  -3.53103E+2
   7.37048E+2   4.67245E+2
  -4.01802E+1   1.00006E+3
  -7.03618E+2   3.77470E+2
  -1.48749E+2  -2.96468E+2
   1.31557E+2   1.02322E+2
  -2.71334E+2   5.19346E+2
  -4.94678E+2   1.65361E+2
   3.07334E+1  -8.08209E+0
  -2.26124E+2   1.49927E+2
  -4.77330E+2   3.76402E+2
  -5.18965E+2  -9.14884E+1
  -2.75993E+2  -4.93927E+2
   4.99606E+1  -5.56093E+2
   5.68460E+2  -3.03683E+2
   2.56592E+2   3.39825E+2
  -5.21466E+2   3.85142E+2
  -3.82155E+2   9.12836E+1
   2.23806E+2  -5.73385E+1
   4.55729E+2   3.39384E+2
   2.95526E+0   3.38346E+2
  -2.59533E+2   4.24836E+2
  -3.01749E+2  -3.66237E+1
   2.02829E+2   3.10305E+1
   1.77511E+2   2.79112E+2
  -3.81268E+2   5.67785E+2
  -5.30161E+2  -1.14262E+2
   2.31401E+2  -5.74355E+2
   6.91218E+2  -7.01089E+1
   1.28983E+2   7.84139E+2
  -1.76929E+2   7.51721E+2
  -5.04603E+2   4.17643E+1
  -2.76829E+2  -4.60540E+2
   4.73558E+1  -1.87971E+2
  -6.66367E+1  -3.33037E+2
  -8.30974E+1  -3.55070E+2
   3.15927E+2  -4.86888E+2
   6.48843E+2  -8.22283E+1
   5.72649E+2   5.87147E+2
  -3.43590E+2   7.83480E+2
  -8.31743E+2   3.31934E+2
  -6.56803E+2  -4.23983E+2
  -3.52638E+1  -4.84864E+2
   1.57828E+2  -4.15205E+1
   3.10325E+2   1.59765E+1
  -9.48140E+1   6.15010E+1
   6.52221E+0   3.01647E+2
  -6.22305E+1   3.25382E+2
  -5.98594E+2   1.80535E+2
  -4.57038E+2  -8.58422E+1
  -1.25188E+2  -6.65297E+2
   3.60039E+2  -6.62872E+2
   3.23957E+2   5.27638E+1
   9.64495E+1   2.78957E+2
  -3.12520E+2  -2.07950E+1
  -2.66718E+2  -2.47695E+1
  -1.20383E+2  -2.40897E+2
   2.27632E+2   8.11730E+1
  -4.71751E+1   1.73811E+2
  -3.11083E+2  -2.44822E+2
   2.53925E+2  -7.54827E+1
   3.62806E+2   2.71319E+2
  -2.32842E+2   7.29813E+2
  -1.05134E+3   2.64969E+2
  -4.51044E+2  -2.69806E+2
  -7.83560E+1  -5.62667E+2
   3.89749E+2  -3.09611E+2
   2.69778E+2  -4.35428E+1
   1.12638E+2   1.45681E+2
   4.84202E+0   1.92410E+0
   3.70626E+2   7.12310E+1
   1.37877E+2   6.46342E+2
  -3.52773E+2   4.93476E+2
  -5.85162E+2  -1.92645E+2
  -2.59158E+2  -3.03054E+2
   2.12336E+2  -2.47223E+2
   1.77855E+2   5.23025E+2
  -2.42113E+2   4.85861E+2
  -3.96509E+2  -1.20926E+2
  -3.62893E+2  -2.28600E+2
   1.04079E+2  -1.33107E+2
   2.46014E+1   4.93804E+1
   1.22036E+1  -1.94210E+2
  -1.28720E+2  -1.28396E+2
   1.38693E+2  -7.65790E+0
   1.96464E+2   2.01129E+2
  -1.29031E+2   1.77882E+2
  -6.56797E+1  -1.89946E+2
   5.39213E+1  -2.65891E+2
   1.48796E+2   3.03181E+1
  -4.73651E+1   3.19506E+2
  -1.93927E+2   2.03910E+2
  -2.96871E+2   1.59326E+1
   1.54639E+2  -3.64386E+2
   1.90708E+2  -8.22348E+1
  -8.51203E+0   2.13168E+2
  -3.78110E+2  -1.34867E+2
  -6.35534E+1  -5.07410E+2
   3.41021E+2  -1.78472E+2
   1.78937E+2   1.94308E+2
  -1.15277E+2   2.92495E+2
  -3.99349E+2  -8.39125E+1
  -1.92826E+2  -5.96148E+2
   3.64500E+2  -1.56273E+2
   4.90674E+2   1.17796E+2
   2.16633E+2   3.60622E+2
  -1.19417E+2   2.61567E+2
  -4.94588E+1   1.33824E+2
  -3.09642E+1   6.07541E+1
  -4.51886E+2   1.40139E+2
  -5.45058E+2  -1.05163E+1
   3.43703E+1  -5.86699E+2
   5.36391E+2  -4.95625E+2
   5.11441E+2   1.78204E+2
  -2.77386E+1   4.30228E+2
  -4.57711E+2   1.62455E+2
  -3.01750E+2  -2.06747E+2
   2.36065E+1  -2.37404E+2
   2.46622E+1  -1.27466E+2
  -3.48540E+2  -8.66312E+1
  -8.25241E+1  -4.21323E+1
   2.55143E+2  -1.89005E+2
   3.18169E+2   2.03475E+2
  -5.05773E+1   4.02365E+2
  -3.94169E+2   1.66727E+2
  -3.35294E+2  -3.59498E+2
   2.22553E+2  -1.90304E+2
   3.37661E+2  -6.13508E+0
  -1.20147E+2   3.64252E+1
  -7.74420E+1  -1.64096E+2
  -1.08178E+2  -1.15979E+2
  -1.38005E+1  -8.96126E+1
  -1.98781E+2   5.15492E+2
  -3.23792E+2   1.10753E+2
  -4.23997E+2  -2.89640E+2
   7.66383E+1  -3.92467E+2
   5.36417E+2  -7.61761E+1
   3.79206E+2   7.02768E+1
   7.30076E+1   5.65129E+2
  -1.79251E+2   4.55716E+1
  -8.90854E+1  -1.10523E+2
  -1.19727E+2  -2.42637E+2
  -1.30831E+2  -3.13927E+1
  -2.16684E+2  -1.27030E+2
  -2.23990E+1  -1.84524E+2
   1.49532E+2   1.61403E+0
   2.45676E+2   3.23521E+2
  -1.94420E+2   3.03196E+2
  -4.73299E+2   7.79411E+1
  -9.52186E+1  -2.29247E+2
   2.56878E+2  -8.03599E+1
   1.51209E+2   3.01925E+2
  -2.84389E+2   2.15151E+2
  -1.60637E+2  -7.84089E+1
  -1.73669E+2  -2.36283E+2
   1.11270E+2  -6.28951E+1
  -3.24844E+1   1.52590E+2
  -1.93287E+2   7.26476E+1
  -9.03037E+1  -2.57624E+2
   5.16514E+2  -6.56101E+0
   1.45456E+2   2.01488E+2
  -9.18156E+1   2.54683E+2
  -1.46520E+2   3.65950E+1
  -2.16714E+2  -4.43305E+1
   2.11432E+2  -3.02665E+1
   2.81927E+2   1.84451E+2
  -2.75300E+2   1.93624E+2
  -2.16644E+2  -1.50164E+2
  -5.48872E-1  -1.94619E+2
   2.59079E+1   5.82354E+1
   2.15145E-1   1.29778E+2
  -2.27771E+2   2.53038E+2
  -4.40200E+0  -2.27454E+2
   8.35079E+1  -1.66089E+2
   2.27082E+2   2.57536E+2
  -1.61586E+2   5.57592E+2
  -2.06596E+2   8.15489E+1
  -1.93174E+2  -1.57624E+2
  -1.48137E+2  -3.19645E+2
   6.56862E+1  -1.18142E+2
   4.45899E+1   5.45452E+1
  -3.34073E+1  -1.82964E+2
   3.33487E+1   1.67713E+2
   1.56892E+2   3.84730E+2
  -2.27384E+2   4.81530E+2
  -2.74531E+2   5.84639E+0
  -5.05714E+2  -4.77493E+2
   9.73874E+1  -4.64761E+2
   3.00869E+2   1.42330E+2
   2.94698E+1   3.07709E+2
  -2.08779E+2   1.89907E+2
   8.46875E+0  -5.36153E+1
  -4.74719E+1  -1.11504E+2
   4.98538E+1  -2.03997E+1
   4.30478E+1   2.85687E+1
   7.75709E+1  -2.04079E+2
   1.96903E+2   9.01587E+0
   1.43327E+2   3.28005E+2
   8.20707E+1   2.74032E+2
  -4.00695E+2   1.40365E+2
  -3.24507E+2  -5.90337E+1
   1.85761E+2  -2.59907E+1
   7.22303E+1  -2.24645E+2
   8.57786E+1   1.77144E+2
  -1.40454E+1   1.46915E+2
   2.73301E+2  -1.19547E+2
   1.96475E+2   1.65019E+1
   1.38102E+2   2.90409E+2
  -1.94726E+2   1.16933E+2
  -3.77567E+2   6.99332E+1
  -3.92543E+2  -2.24546E+2
   1.84551E+2  -3.56839E+2
   1.61838E+2   1.83318E+2
   1.87448E+1   1.92649E+2
  -1.38404E+2   1.07856E+2
  -9.78728E+1  -6.45790E-1
