 
 $NMID
 ID=''
 FMTDAT='(2E13.5)'
 TRAMP=   1.00000E+0
 VOLUME=   1.00000E+0
 $END
  -4.41119E+2   2.12269E+4
   4.40440E+3   2.97885E+4
  -1.45796E+3   5.67109E+3
  -2.38617E+4   4.23926E+3
  -1.91192E+4   1.09191E+4
  -3.61421E+3  -9.03750E+3
  -7.14022E+3  -1.64266E+4
  -6.95647E+3  -4.70550E+3
   4.09480E+3  -8.14756E+3
   3.72941E+3  -1.19631E+4
   4.57730E+3  -2.93972E+3
   1.13887E+4  -1.99549E+3
   7.22436E+3  -1.99280E+3
   2.18251E+3   6.12153E+3
   6.12062E+3   6.53861E+3
   3.58322E+3   3.67203E+3
  -3.85932E+3   8.51824E+3
  -4.07505E+3   7.77062E+3
  -5.25695E+3   8.07564E+2
  -6.31316E+3  -3.61108E+2
  -4.18112E+3  -1.42305E+3
  -2.92360E+3  -5.53008E+3
  -1.37570E+3  -3.68435E+3
   8.25862E+2  -2.86378E+3
   2.41753E+3  -6.62169E+3
   5.82195E+3  -3.17679E+3
   5.38789E+3   3.03924E+3
   4.16687E+2   1.19668E+3
   1.34295E+3   5.98713E+1
   3.92569E+3   4.07564E+3
  -7.16965E+2   5.15455E+3
  -4.66076E+3   2.86351E+3
  -3.61870E+3   1.38210E+2
  -3.04115E+3  -2.05807E+3
  -1.82475E+3  -1.79378E+3
   4.71786E+2  -7.64630E+2
  -9.18206E+2  -1.36475E+3
  -1.54044E+3  -2.06879E+3
   2.10873E+3  -1.95845E+3
   2.26297E+3  -1.28523E+3
   7.22540E+2  -7.93688E+1
   2.38552E+3   1.19200E+2
   2.93418E+3   1.18354E+3
   1.11316E+3   2.92050E+3
   1.44271E+2   2.41561E+3
  -9.83173E+2   2.06286E+3
  -3.00707E+3   2.31370E+3
  -3.20055E+3  -2.87924E+2
  -1.62154E+3  -3.10622E+3
  -3.61494E+2  -2.07158E+3
   7.62234E+2  -1.10860E+3
   3.77784E+2  -1.77081E+3
   7.59880E+2  -1.01109E+3
   1.41299E+3  -2.46792E+1
   1.26916E+3  -2.37797E+0
   2.12632E+2   6.40136E+2
   5.83059E+2  -1.59488E+2
   9.37517E+2  -2.07558E+2
   1.14186E+3   8.39054E+2
   6.96938E+2   1.84456E+3
  -8.61657E+2   1.01349E+3
  -1.44627E+3   7.24274E+2
  -1.46320E+3   7.71678E+2
  -2.05356E+3  -7.75275E+2
  -1.91938E+3  -2.14877E+3
   1.39929E+2  -2.41059E+3
   1.56208E+3  -1.68469E+3
   1.68780E+3  -6.42902E+2
   1.09544E+3   4.82666E+2
   3.25984E+2   1.88840E+2
   3.25804E+2   6.84739E+1
   1.18236E+3   1.73502E+2
   4.09006E+2   1.21101E+3
  -1.18255E+3   1.24795E+3
  -8.86038E+2   4.75799E+2
  -3.09007E+2  -6.11466E+0
  -8.98452E+2   4.72145E+2
  -9.90078E+2   1.04769E+2
  -5.27471E+2  -7.24512E+2
  -3.80601E+2  -6.49565E+2
  -2.32190E+2  -8.88899E+2
   2.36887E+2  -8.39587E+2
   4.24801E+2  -3.77738E+2
   3.85322E+2   1.94011E+1
   3.40603E+2  -5.73514E+2
   8.18008E+2   1.44297E+2
   7.29924E+2   8.12903E+2
  -1.88759E+2   8.63856E+2
  -5.50660E+2   2.69187E+2
  -2.25062E+1   4.12181E+2
   1.50044E+2   5.18802E+2
  -9.13483E+2   5.36744E+2
  -1.56604E+3  -1.36273E+2
  -9.48822E+2  -8.88985E+2
   1.13249E+2  -1.09521E+3
   5.78519E+2  -4.02516E+2
   2.01067E+2  -3.38914E+2
   2.03358E+2  -2.06132E+2
   5.17790E+2  -1.68416E+2
   6.71697E+2   1.74793E+2
   2.45443E+2   7.51777E+2
  -5.39697E+2   5.15250E+2
  -4.72825E+2   2.65701E+0
  -2.52103E+1  -2.66589E+2
   4.51837E+2   2.12114E+2
   1.48632E+2   8.20249E+2
  -9.14650E+2   7.85622E+2
  -8.42152E+2  -5.07052E+2
  -1.10791E+2  -1.09962E+3
   8.44753E+2  -3.45747E+2
   2.84502E+2   4.31946E+2
   3.74767E-1   3.08192E+2
  -5.26327E+2  -8.25505E+1
   1.14933E+2   1.24345E+2
   8.44313E+1   2.30468E+2
  -3.69573E+2   1.28772E+2
  -4.16303E+2  -1.14117E+2
   8.98262E+1  -6.30799E+2
   3.17715E+2  -1.23603E+2
   7.38919E+2   2.72762E+2
   3.69009E+2   4.76121E+2
  -9.76200E+1   5.21751E+2
  -3.61824E+2   4.13190E+2
  -3.04916E+2   2.06484E+2
  -3.98386E+2  -1.49201E+2
  -1.86760E+2  -4.88624E+2
   3.13936E+2  -1.70973E+2
   2.98745E+2  -1.43355E+2
   3.95152E+2   1.55787E+2
   1.24528E+2   3.49593E+2
  -3.20541E+2   2.40255E+1
  -2.10252E+2  -3.37576E+2
   3.74414E+2  -2.93401E+2
   2.15695E+2  -5.18586E+1
  -1.88878E+2   1.35888E+2
   2.04985E+2  -1.27877E+2
   2.99987E+2   2.65368E+2
   1.82597E+2   5.23354E+2
  -3.00055E+2   6.73006E+2
  -5.68541E+2  -8.73079E+1
  -1.74612E+2  -4.17384E+2
   1.76318E+2  -3.48883E+2
   5.43609E+2   3.63442E+2
  -1.66493E+1   5.57803E+2
  -3.11438E+2   3.89792E+1
  -5.62575E+2  -4.38826E+2
  -3.78497E+2  -2.44226E+2
   1.41678E+2   3.99693E+1
  -1.70998E+2  -7.49231E+1
  -2.21131E+2  -5.25291E+2
   1.74408E+2  -3.03368E+2
   5.10831E+2  -2.52707E+1
   1.17934E+2   4.75994E+2
  -2.11258E+2   3.72065E+2
  -2.81792E+2  -2.90020E+2
  -7.55294E+1  -1.94040E+2
   1.30710E+2   1.90604E+2
  -9.84683E+1   2.94421E+2
  -1.69324E+1   1.28110E+2
   1.58558E+1  -1.25456E+2
  -4.52209E+1   8.82192E+1
  -1.39418E+2  -5.36281E+0
  -1.67505E+2   2.03133E+2
   2.59260E+2  -4.94117E+2
   2.39630E+2  -3.11616E+2
   4.29372E+2   4.63447E+1
   5.77336E+1   2.91153E+2
  -2.16652E+2   3.25256E+1
  -1.54493E+2  -3.64451E+1
   6.21716E+1  -6.89170E+1
   1.23627E+2   7.32148E+1
  -1.21631E+2   1.36874E+2
  -2.44534E+2   5.36709E+1
  -1.37920E+2   6.01733E+1
   1.27363E+2  -8.69616E+1
  -1.11995E+2   4.72510E+2
  -4.41360E+2   3.17483E+2
  -3.29039E+2  -3.74792E+2
   3.93181E+1  -4.88694E+2
   2.00757E+2   7.30618E+0
   3.27227E+1   5.95190E+2
  -2.48875E+2   2.85707E+2
  -2.06484E+2  -2.54138E+2
  -9.70407E+1  -1.00099E+2
  -9.07864E+1  -1.24801E+2
   1.46391E+2  -2.94719E+1
   6.91822E+1  -1.00903E+2
   1.61279E+2  -3.36760E+2
   1.47248E+2   2.10461E+2
  -1.63392E+1   6.06699E+2
  -2.46686E+2   5.61396E+2
  -6.99302E+2   1.57840E+2
  -1.18325E+2  -2.69270E+2
   6.94068E+1  -9.47067E+1
   1.34845E+2  -9.72053E+1
  -2.47204E+2   2.77924E+0
  -1.17679E+2  -1.35592E+2
  -1.65623E+2   2.26580E+2
  -2.97356E+2   4.88194E+2
  -5.09044E+1   1.07825E+2
  -1.97930E+2  -1.47875E+2
  -6.99848E+1  -1.26032E+2
   3.50809E+2   3.29175E+2
   3.91436E+2   2.80802E+1
  -1.22628E+2   1.63738E+2
  -4.41627E+2   1.38535E+2
  -4.77532E+1  -4.03539E+0
   1.58958E+1   3.64936E+1
  -6.81190E+1   1.84758E+2
  -9.20143E+1  -1.04849E+2
  -2.11369E+2   1.90656E+1
   1.52511E+1   1.70338E+2
  -5.81360E+1   5.27343E+2
  -3.16162E+2   3.69379E+2
  -3.66039E+2   5.45673E+1
  -9.47992E+1  -4.19209E+2
   2.45706E+2  -2.66961E+2
   2.53664E+2   6.83086E+1
   1.87400E+2   1.75310E+2
   3.53263E+1   1.04835E+2
  -2.19542E+1   5.80265E+1
   2.81937E+2   3.42800E+2
  -1.40255E+2   2.55841E+2
  -6.45250E+1   5.21842E+1
  -6.54697E+1  -2.62806E+2
   8.60892E+1  -5.34078E+1
   1.49221E+2   2.11688E+1
   1.50800E+2   4.25971E+2
  -2.69490E+2  -7.53446E+0
  -3.83789E+2   2.71533E+1
   8.70243E+1  -4.13929E+1
  -6.67940E+1   1.98050E+2
   1.43022E+2   2.39750E+2
  -1.86553E+2  -9.75447E+1
   3.68837E+1  -1.20006E+2
   3.23887E+2   1.83881E+2
   7.41853E+1   1.35675E+2
  -1.58735E+2   6.36996E+1
  -2.17105E+2  -2.77014E+2
   1.59160E+1  -2.61319E+0
   1.22975E+2  -5.70526E+1
  -9.73802E+0   1.15178E+2
  -3.21106E+2   6.03395E+1
  -6.49599E+0  -6.42208E+1
   1.77700E+2  -9.97052E+1
   1.50399E+2   1.16425E+2
  -9.62852E+1   2.55267E+2
  -7.25705E+1   4.60159E+0
   2.60523E+2  -3.51120E+2
  -5.83728E+1   2.50902E+2
   6.66914E+0   2.93114E+2
  -1.52012E+2   2.66138E+2
  -2.26689E+2  -1.12736E+2
  -4.06155E+2  -2.26794E+2
   1.26478E+2   1.40273E+2
   1.35164E+2   9.88424E+1
   3.51603E+1   1.55590E+2
   4.04437E+1   8.43393E+1
  -8.93723E+1   5.40194E+1
  -7.44574E+1   3.55960E+0
  -3.95622E+2  -7.35121E+1
  -3.30729E+2  -4.00980E+2
  -2.59695E+1  -3.18422E+2
   3.82633E+2  -2.29978E+1
   2.34831E+2   7.61206E+1
  -2.17966E+2   3.44965E+2
  -2.31265E+2   7.57322E+1
  -6.06385E+1  -4.52651E+0
  -8.12961E+1  -1.02255E+2
  -1.19621E+2  -1.32285E+2
  -1.37612E+2  -4.76650E+1
  -4.45338E+1   1.23895E+2
   9.00737E+1  -2.91037E+1
   1.13474E+2   2.28401E+2
  -1.15401E+2   3.03836E+2
  -2.10536E+2   6.20064E+1
  -1.70014E+2  -2.01966E+2
   4.65905E+1  -2.25132E+1
   8.76820E+1   1.54036E+1
   1.78906E+2   2.25499E+2
   3.31269E+1  -2.42395E+2
   1.54450E+2  -1.08011E+2
  -1.87918E+2  -1.40724E+1
  -1.43691E+2   2.61140E+2
  -1.49481E+2   1.10993E+2
  -4.17198E+1  -9.90044E+1
   2.33427E+1  -8.75639E+1
   3.01677E+1   1.43368E+2
   1.41305E+2   2.63513E+2
  -1.07732E+2   2.84754E+2
  -1.64666E+2   8.88452E+1
   3.06714E+1   2.05549E+0
  -2.98452E+1  -5.97064E+1
   1.18158E+2   8.07496E+1
   1.81775E+1  -1.57439E+2
   4.63010E+1   9.67377E+1
   1.75668E+2  -5.70500E+1
   2.34136E+0   6.57865E+1
  -1.16451E+2   7.78628E+1
  -1.64945E+1   1.51532E+1
   1.85376E+2  -1.32119E+2
   1.80132E+2   1.31984E+2
   1.72349E+1   1.13624E+2
  -3.86964E+0  -5.98622E+1
  -1.37175E+2  -1.63472E+2
  -4.43775E+1  -1.00264E+2
  -3.14699E+1   8.09816E+1
   8.50924E+1   4.05426E+1
  -1.06653E+2   1.43349E+1
   7.13811E+1  -2.33774E+2
   1.68970E+2  -1.29097E+2
  -1.07449E+2  -4.52676E+1
  -1.22711E+2  -3.06006E-1
  -1.44830E+2   9.35095E+1
  -3.57187E+1   2.92071E+1
   1.95790E+2   2.42101E+1
   4.22727E+1   1.63148E+2
   7.49635E+0  -4.24674E+1
  -1.88453E+2   6.51512E+1
   1.30733E+1  -8.08642E+1
   2.05928E+2   3.98686E+1
   6.03205E+1   2.36535E+2
  -1.77217E+2  -1.65375E+2
   8.99303E+1  -7.43407E+1
   1.83980E+2  -3.38102E+1
   2.12849E+1   2.11755E+1
  -1.56081E+1   1.72275E+2
   7.83147E+1  -1.69197E+2
  -1.38834E+2  -6.35629E+1
   6.22615E+1  -9.52615E+1
   1.70645E+2  -6.31924E+1
   1.68832E+2  -5.28570E+1
   1.21944E+2  -9.26866E+1
   8.61320E+1   2.11879E+1
   6.57803E+1   3.88169E+2
  -1.79928E+2   4.20485E+1
  -3.04406E+1  -1.47730E+1
  -5.23346E+1  -6.98698E+1
  -1.62654E+2  -1.64096E+2
   1.23102E+2   1.89082E+2
  -4.16695E+1   1.79897E+2
   1.37085E+2   1.74578E+2
   2.26057E+1  -9.94016E+0
   1.43188E+2  -1.41393E+2
   9.81710E+1  -5.04803E+1
  -5.93800E+0  -2.05913E+2
  -8.22815E+0  -7.13504E+1
   1.76734E+2  -9.76371E-1
   1.31418E+2   1.76994E+2
  -9.68949E+1   6.31516E+1
  -1.63652E+1  -6.22766E+1
  -1.46984E+2  -6.52080E+1
   8.90421E+0   6.96440E+1
  -6.00955E+1   8.12876E+1
   1.46737E+2   9.34545E+1
   6.61093E+1  -2.64679E+2
   2.44397E+2  -2.21950E+2
  -4.74107E+1   1.54483E+2
  -2.23907E+2  -1.51627E+2
  -2.60416E+2   1.01934E+2
  -1.98250E+2  -2.51380E+2
   3.10081E+1  -2.80914E+2
   2.06364E+2  -9.24483E+1
   2.32770E+2   1.22679E+1
  -7.15424E+1   4.38499E+1
  -1.67992E+1   4.83588E-1
   5.40007E+1  -1.76247E+2
