 
 $NMID
 ID=''
 FMTDAT='(2E13.5)'
 TRAMP=   1.00000E+0
 VOLUME=   1.00000E+0
 $END
   4.30793E+4   2.55634E+4
   1.83050E+4  -4.80587E+4
  -3.24705E+4  -2.51248E+4
  -2.92840E+4   1.88520E+4
   2.88807E+3   2.45658E+4
   2.15962E+4   7.68273E+3
   1.55120E+4  -1.09318E+4
  -6.06001E+3  -1.66561E+4
  -1.80710E+4  -1.44168E+3
  -7.62495E+3   1.26522E+4
   7.29781E+3   8.22159E+3
   1.10446E+4  -2.66775E+3
   3.19684E+3  -9.54410E+3
  -7.03036E+3  -7.97949E+3
  -6.42632E+3   1.87889E+3
   1.98437E+3   8.72474E+3
   5.08725E+3   3.31765E+3
   2.92171E+3  -4.51330E+3
  -5.55992E+2  -4.60842E+3
  -4.29574E+3   1.89322E+2
  -2.11320E+3   3.73946E+3
   2.56954E+3   3.18003E+3
   2.65461E+3  -9.27801E+2
  -3.88764E+2  -3.25432E+3
  -6.54974E+2  -1.86038E+3
  -1.57248E+3   1.68383E+3
  -1.51012E+3   2.87691E+3
   1.19171E+3  -9.03503E+2
   2.83147E+3  -2.21795E+3
  -2.06216E+1  -1.63155E+2
  -2.34114E+3   3.52875E+2
  -1.10505E+3  -4.66530E+2
   1.58946E+3  -7.27448E+2
   2.11065E+3  -4.93353E+1
   4.60924E+2   3.94300E+2
  -1.30105E+3   5.56094E+2
  -9.82166E+2   1.14911E+2
   2.27615E+2  -7.59643E+1
   5.91437E+2  -6.70598E+1
   1.15236E+2  -7.53445E+2
  -1.17175E+2  -9.09533E+2
   3.47449E+2   3.77813E+2
  -1.32982E+2   6.94259E+2
  -8.53361E+1   9.12656E+1
   1.55658E+2   7.48535E+1
  -9.56607E+2   2.01885E+2
  -1.42405E+3  -1.08970E+3
   6.73758E+2  -1.53801E+3
   1.79117E+3   3.91235E+2
   1.63651E+2   1.16698E+3
  -5.79419E+2  -2.89641E+2
  -3.37307E+1  -5.26487E+2
  -2.92529E+1   4.67546E+2
  -7.01878E+2   7.98515E+2
  -5.59328E+2  -3.28102E+1
   4.25689E+2  -5.84731E+2
   4.23330E+2   1.81929E+2
  -2.43705E+2   7.98160E+2
  -6.25187E+2   5.37803E+2
  -3.62142E+2   4.32604E+2
  -3.39876E+2   3.06848E+2
  -6.49308E+2  -7.41674E+1
  -5.67363E+2  -8.33908E+2
   6.45125E+2  -1.06297E+3
   9.59840E+2  -1.80846E+2
   3.17828E+2   4.63848E+2
  -2.42973E+2   3.83188E+2
   3.03368E+1   1.07652E+3
  -3.36662E+2   6.89406E+2
  -1.33411E+2  -1.80254E+2
   4.67257E+2  -4.85514E+2
   4.38385E+2   7.59554E+2
  -8.84578E+2   8.76068E+2
  -1.18933E+3  -1.47985E+2
   1.74932E+2  -3.48850E+2
   8.16027E+2   3.35779E+2
   3.07218E+2   1.16634E+2
  -4.42400E+2  -4.22297E+2
   1.50468E+2  -6.28117E+2
   4.45692E+2   1.87555E+2
   1.14462E+2   5.54654E+2
  -3.17318E+1   3.49856E+2
   6.26845E+1   2.51072E+2
   2.93680E+2   2.18951E+2
  -7.79359E+1   2.36755E+2
  -5.11729E+2   1.67065E+2
  -4.21274E+2  -9.20618E+1
  -1.12979E-1   2.70072E+1
   1.13262E+2   4.81856E+1
  -1.17417E+2   2.10814E+2
  -6.48703E+1   7.67496E+1
  -7.34387E+1  -3.71235E+2
   2.40423E+2  -6.30843E+2
   4.05489E+2  -2.23989E+2
   3.26022E+2   3.33511E+2
  -4.58395E+1   8.34189E+2
  -3.80632E+2   1.44634E+2
   5.18918E+0  -3.67551E+2
   4.38121E+2  -4.76644E+1
  -1.16826E+2   3.10343E+2
  -8.30209E+2  -1.53996E+2
   3.71294E+1  -5.36764E+2
   4.10091E+2  -2.62147E+2
   3.98378E+2   7.71847E+2
  -3.22217E+2   4.07507E+2
  -3.52306E+2  -1.45444E+2
   2.70974E+2  -4.76741E+2
   3.60920E+2  -2.63783E+2
   3.32149E+1   4.81235E+2
  -1.35036E+2   5.38060E+2
  -3.32256E+2  -3.20055E+0
   1.33170E+2  -2.79939E+2
   2.50530E+2  -2.59546E+2
   1.41775E+1  -2.26117E+2
  -2.24363E+2  -1.99202E+2
  -2.35239E+2  -1.33310E+2
   5.46847E+2   2.66550E+1
   6.90229E+2   1.74769E+2
   1.02426E+2   3.48612E+2
  -2.88881E+2  -9.72740E+1
  -2.93671E+2  -2.95388E+2
  -1.25052E+2  -6.67447E+1
  -1.08517E+2  -8.43720E+1
   7.51609E+1  -1.92495E+2
   2.71537E+2   7.26480E+1
   2.84257E+2   1.63318E+1
  -1.74890E+2  -3.41978E+1
   4.54177E+1   4.91941E+1
   1.08674E+2  -6.20130E+1
   2.01034E+2  -5.49096E+2
   1.47535E+2  -5.59589E+2
   3.52474E+2   2.04155E+2
   1.41701E+1   2.62084E+2
  -2.11622E+2  -3.67558E+1
   3.61502E+2  -2.44016E+2
   1.43078E+2  -1.61871E+2
  -1.49253E+2   2.34734E+1
  -5.34367E+2  -2.63289E+2
  -3.37422E+1  -3.71404E+2
   2.11519E+2  -1.31934E+2
   6.73512E+1   1.66486E+2
  -1.53914E+2   1.92538E+2
  -2.00340E+2  -3.19781E+2
   1.37004E+2  -4.26683E+2
   6.08080E+1  -7.89113E+1
   2.71719E+2  -1.36202E+1
  -1.51193E+1   2.36784E+2
  -4.91378E+0  -2.52585E+1
   1.54435E+0  -2.69170E+2
  -7.53326E+1   3.95666E+1
  -4.23233E+2   2.86661E+2
  -2.19459E+2   9.00330E+1
  -4.52414E+2  -4.28935E+2
   1.35024E+2  -5.34487E+2
   3.46485E+2   1.08896E+2
  -2.05695E+2   2.83189E+2
  -5.81856E+1  -2.48021E+2
  -5.44205E+1  -1.57177E+2
   2.49681E+2  -1.04888E+2
   5.90433E+1  -1.58757E+1
  -9.11484E+0  -1.46062E+2
   2.14571E+2  -9.61540E+1
   1.65831E+2   5.35869E+2
   3.03335E+1   2.35983E+2
  -2.11982E+2   2.99608E+1
  -2.69556E+2  -2.14759E+2
   1.33573E+2  -2.37304E+2
   2.85968E+2  -6.28561E+1
  -8.37497E+1  -1.99594E+2
  -1.64526E+1   7.19623E+1
  -1.29020E+2   3.84169E+1
   5.96263E+1   1.25884E+2
   1.75119E+2   2.47949E+1
  -1.71988E+2  -4.00687E+1
  -1.86217E+2  -1.59755E+2
  -7.58232E+1  -6.60386E+1
   2.11432E+2   1.89017E+2
   1.06957E+2   4.93627E+2
  -7.39915E+1   4.75966E+2
  -7.23279E+1  -9.89114E+1
   1.90930E+2  -2.26189E+2
   8.28658E+1  -6.48515E+1
   2.34938E+2   3.63359E+1
  -1.15576E+2   2.16825E+2
  -1.03324E+2   3.07670E+2
  -1.82565E+0   1.90061E+1
   5.02681E+1   1.76892E+2
  -1.30457E+2   2.07281E+2
  -4.20561E+2   1.85141E+2
  -2.21901E+2  -5.97484E+2
   4.98598E+2  -9.58384E+1
   3.98554E+2   1.61886E+1
  -2.63866E+0   1.07763E+2
  -1.70145E+2   2.17234E+1
  -2.06092E+2  -1.92887E+2
   2.53562E+1   5.52410E+1
  -1.41737E+2   3.08548E+1
   9.15293E+1  -6.24882E+1
   1.22498E+2  -7.26623E+1
   1.34976E+2   1.50991E+2
   2.70685E+2   9.58368E+1
  -2.68538E+2   1.58014E+2
  -3.15435E+2   1.10343E+2
  -1.01121E+2  -2.13183E+2
   1.74603E+1  -2.89108E+1
   1.05975E+2   1.48164E+2
  -2.28943E+2  -9.25595E+0
  -2.26701E+2  -2.36791E+2
   2.45486E+1  -2.80390E+1
   1.68399E+2   6.07666E+1
  -4.20408E+1   1.61700E+2
  -2.26046E+2  -6.22099E+1
  -1.22007E+2  -3.23285E+2
   2.34901E+2  -1.65442E+2
   1.34791E+2  -2.15606E+1
   1.14551E+2   2.59287E+2
  -1.37924E+2  -2.00434E+1
  -3.03271E+2  -5.30305E+0
  -7.94817E+1  -6.84788E+0
  -1.23045E+2   2.21770E+2
  -2.25921E+2   4.35462E+1
  -8.68103E+1  -1.71293E+2
  -1.14244E+0  -1.21386E+1
   9.60630E+1   1.01182E+2
  -8.99784E+1   1.37534E+2
  -1.58365E+2   5.49734E+1
   1.28232E+2  -2.45348E+2
   4.74439E+1  -1.52924E+2
   4.50212E+1  -7.28577E+1
  -9.26482E+1   4.59308E+1
   1.21468E+2   2.76488E+2
  -1.53256E+2  -1.79413E+2
   5.52583E+1  -2.36688E+2
   6.48996E+1   2.02444E+2
   4.96365E+0   1.24471E+2
  -1.05415E+2   2.10174E+2
  -2.50315E+1  -1.75769E+2
   9.61500E+1   6.44351E+1
  -1.00562E+2   1.74629E+2
  -2.38205E+2   1.17140E+2
  -4.20140E+1  -2.77553E+2
   2.26804E+2  -1.31427E+2
   7.62217E+0   7.20395E+1
   9.65109E+1   1.15490E+2
  -1.26749E+2   6.90654E+1
   2.42469E+2  -1.87252E+2
   1.82189E+2   1.46453E+2
  -6.94510E+1   3.33586E+2
  -6.47114E+1  -6.08813E+1
  -9.50300E+1  -1.24795E+2
   7.25269E+1   1.99842E+1
  -9.35313E+1   7.31160E+1
   1.37548E+2   9.60934E+1
  -6.80957E+1  -8.34865E+0
  -3.05732E+2  -7.40238E+1
   9.82070E+1  -2.36004E+2
  -4.94666E+0   1.05227E+1
   1.18562E+2   2.08397E+2
   3.41304E+1   2.18385E+1
   3.36892E+1  -8.88273E+1
   8.27867E+1   1.54536E+2
   7.22943E+1   1.17739E+2
  -1.03183E+2  -3.87739E+1
   1.12511E+2  -2.63786E+2
   1.78530E+2  -5.14949E+1
   3.27403E+1   2.49502E+1
   6.83825E+1  -4.31631E+1
  -8.01014E+1   2.87385E+1
  -9.09716E+1  -4.57323E+1
   2.65687E+1   1.41884E+2
   9.65244E+1  -6.99336E+1
   1.07553E+2   1.25271E+2
  -5.09500E+1  -3.52601E+1
   8.96932E+1   1.14292E+2
   6.33458E+1   4.81011E+0
  -8.45628E+1   2.76297E+2
  -3.02788E+1   1.42970E+2
   7.47143E+1  -5.23392E+1
  -9.31969E+1  -2.67058E+1
   1.45963E+2  -6.11168E+1
  -7.81758E+0   5.91587E+1
   2.94902E+2   1.00238E+2
  -5.82148E+1   4.52603E+1
   4.87052E+1  -8.06127E+0
   2.00190E+2   5.60039E+1
  -2.57579E+2   4.00213E+1
  -1.74859E+2   5.17299E+1
  -4.05952E+1  -1.32779E+2
  -1.59284E+2   1.59203E+2
  -3.65870E+1  -6.22481E+1
   1.49850E+2   3.12441E+2
  -1.41919E+1   2.90355E+1
   2.30227E+2  -5.14344E+1
   1.27095E+2   5.13387E+1
   6.99261E+0   1.16774E+2
   1.25338E+2   1.47558E+2
   1.59156E+2  -1.11721E+2
  -5.85073E+1  -4.84189E+1
   4.07917E+1   7.57578E+1
  -1.82776E+2  -7.76585E+1
   3.43393E+1  -2.54508E+2
   1.18849E+2  -1.28560E+2
   9.52217E+1  -2.13385E+1
  -1.33716E+2   2.03128E+2
   2.19181E+2  -3.13578E+1
  -9.60278E+1  -4.85698E+1
   1.06574E+2  -1.70148E+2
  -3.42007E+1  -1.32302E+1
   8.74349E+0  -1.35505E+2
  -6.30606E+1  -1.70306E+2
  -1.32387E+2  -4.76591E+1
   2.32244E+2  -1.55277E+2
   3.45250E+2   1.02037E+2
  -2.08466E+2   2.45382E+2
   1.38840E+2  -8.86529E+1
  -1.13698E+2  -8.90940E+1
   6.77417E+0   1.67516E+1
   1.32604E+2   3.36060E+1
  -1.99191E+2  -2.71362E+1
   7.33254E+1   1.41379E+2
  -4.73847E+1   1.88769E+1
   1.50973E+1   2.31391E+2
   2.84504E+2  -1.64544E+2
  -1.83231E+2  -2.58383E+2
   7.59055E+1  -1.50844E+2
   4.69569E+1  -2.28466E+1
  -5.96481E+1   7.38194E+1
   3.06523E+2   4.57878E+1
   7.56090E+1  -3.04510E+0
   1.18996E+2   1.10210E+2
  -7.49677E+1  -8.32053E+1
   1.49453E+2  -1.30170E+2
  -6.05512E+1   5.31349E+1
   1.88334E+2  -1.78174E+1
   1.09601E+2  -9.97721E+1
   3.50065E+1   4.08529E+0
  -8.66642E+1  -5.61911E+1
   1.61927E+2  -2.53609E+1
   1.31024E+2  -4.28533E+1
  -9.47604E+0   1.16920E+2
  -7.36253E+1   1.68219E+2
  -1.26227E+2   1.60779E+2
   9.78876E+1  -8.48683E+1
  -6.15860E+1  -3.56330E+2
   1.81231E+2   5.16165E+1
  -1.48164E+1   5.74923E+1
   9.31578E+0   9.17702E+1
  -5.82850E+1  -6.96107E+1
   6.39799E+1  -1.66164E+2
   6.48553E+1  -5.90503E+1
  -7.04633E+1  -2.15686E+0
  -2.01282E+1   6.14021E+1
   1.13853E+2   2.76897E+1
   2.09321E+2   4.88591E+1
  -1.03714E+2   6.62589E+1
  -1.23943E+1   1.89254E+2
   2.35866E+1  -2.02488E+2
  -4.37305E+1   6.95125E+1
  -3.10352E+2  -7.81690E+0
  -1.75299E+2  -1.25059E+2
   9.47106E+1  -2.36420E+2
   2.69544E+2  -8.35668E+1
   1.62665E+1   3.96789E+1
   1.07244E+2  -5.97180E+1
   1.45018E+2  -3.13044E+1
  -2.45986E+1  -1.09239E+2
   1.88654E+1  -2.31854E+1
