 LCModel (Version 6.3-1N) Copyright: S.W. Provencher.          Ref.: Magn. Reson. Med. 30:672-679 (1993).                
 Slice_N1@14_22  28-Feb-2025 11:39:32
 27 lines in following concentration table = NCONC+1
    Conc.  %SD /Cr+PCr  Metabolite                                         
 2.50E-04   4% 2.7E-04 Mac                                                 
    3.472  33%   3.723 Cr                                                  
    3.987  28%   4.277 PCr                                                 
    5.975  13%   6.408 Ins                                                 
    9.892   7%  10.609 NAA                                                 
    4.905  15%   5.261 Tau                                                 
    0.648 120%   0.695 PCho                                                
    0.978  75%   1.049 GPC                                                 
    9.654   9%  10.354 Glu                                                 
    3.899  18%   4.182 Gln                                                 
    0.000 999%   0.000 Ala                                                 
    2.049  51%   2.198 Asc                                                 
    2.382  36%   2.555 Asp                                                 
    0.611  75%   0.655 GABA                                                
    0.683  90%   0.733 Glc                                                 
    1.172  36%   1.257 GSH                                                 
    1.673  34%   1.794 Lac                                                 
    3.005  17%   3.223 NAAG                                                
    0.758 125%   0.813 PE                                                  
    1.626  16%   1.744 GPC+PCho                                            
   12.897   5%  13.832 NAA+NAAG                                            
   13.553   8%  14.536 Glu+Gln                                             
    7.459   8%   8.000 Cr+PCr                                              
   12.897   5%  13.832 NAA+NAAG                                            
    7.459   8%   8.000 Cr+PCr                                              
   13.553   8%  14.536 Glu+Gln                                             
   6 lines in following misc. output table
  FWHM = 0.024 ppm    S/N =   5                                            
  Data shift = 0.016 ppm                                                   
  Ph: -66 deg       0.0 deg/ppm                                            
  alphaB,S = 4.8E-01,   5.3E+00                                            
   19 spline knots.   Ns = 5(1)                                            
  ( 3) 2 infls.   ( 2) 1 extrs.                                            
  480 points on ppm-axis = NY
      4.100000     4.091866     4.083733     4.075600     4.067466     4.059333     4.051199     4.043066     4.034933     4.026799
      4.018666     4.010532     4.002399     3.994265     3.986132     3.977998     3.969864     3.961731     3.953597     3.945463
      3.937330     3.929196     3.921062     3.912929     3.904795     3.896662     3.888528     3.880394     3.872261     3.864127
      3.855993     3.847860     3.839726     3.831592     3.823459     3.815325     3.807191     3.799058     3.790924     3.782790
      3.774657     3.766523     3.758389     3.750256     3.742122     3.733989     3.725855     3.717721     3.709588     3.701454
      3.693320     3.685187     3.677053     3.668919     3.660786     3.652652     3.644518     3.636385     3.628251     3.620117
      3.611984     3.603850     3.595716     3.587583     3.579449     3.571316     3.563182     3.555048     3.546915     3.538781
      3.530647     3.522514     3.514380     3.506246     3.498113     3.489979     3.481845     3.473712     3.465578     3.457444
      3.449311     3.441177     3.433043     3.424910     3.416776     3.408643     3.400509     3.392375     3.384242     3.376108
      3.367974     3.359841     3.351707     3.343573     3.335440     3.327306     3.319172     3.311039     3.302905     3.294771
      3.286638     3.278504     3.270370     3.262237     3.254103     3.245970     3.237836     3.229702     3.221569     3.213435
      3.205301     3.197168     3.189034     3.180900     3.172767     3.164633     3.156499     3.148366     3.140232     3.132098
      3.123965     3.115831     3.107697     3.099564     3.091430     3.083297     3.075163     3.067029     3.058896     3.050762
      3.042628     3.034495     3.026361     3.018227     3.010094     3.001960     2.993826     2.985693     2.977559     2.969425
      2.961292     2.953158     2.945024     2.936891     2.928757     2.920624     2.912490     2.904356     2.896223     2.888089
      2.879955     2.871822     2.863688     2.855554     2.847421     2.839287     2.831153     2.823020     2.814886     2.806752
      2.798619     2.790485     2.782351     2.774218     2.766084     2.757951     2.749817     2.741683     2.733550     2.725416
      2.717282     2.709149     2.701015     2.692881     2.684748     2.676614     2.668480     2.660347     2.652213     2.644079
      2.635946     2.627812     2.619678     2.611545     2.603411     2.595278     2.587144     2.579010     2.570877     2.562743
      2.554609     2.546476     2.538342     2.530208     2.522075     2.513941     2.505807     2.497674     2.489540     2.481406
      2.473273     2.465139     2.457006     2.448872     2.440738     2.432605     2.424471     2.416337     2.408204     2.400070
      2.391936     2.383803     2.375669     2.367535     2.359402     2.351268     2.343134     2.335001     2.326867     2.318733
      2.310600     2.302466     2.294333     2.286199     2.278065     2.269932     2.261798     2.253664     2.245531     2.237397
      2.229263     2.221130     2.212996     2.204862     2.196729     2.188595     2.180461     2.172328     2.164194     2.156060
      2.147927     2.139793     2.131660     2.123526     2.115392     2.107259     2.099125     2.090991     2.082858     2.074724
      2.066590     2.058457     2.050323     2.042189     2.034056     2.025922     2.017788     2.009655     2.001521     1.993387
      1.985254     1.977120     1.968987     1.960853     1.952719     1.944586     1.936452     1.928318     1.920185     1.912051
      1.903917     1.895784     1.887650     1.879516     1.871383     1.863249     1.855115     1.846982     1.838848     1.830714
      1.822581     1.814447     1.806314     1.798180     1.790046     1.781913     1.773779     1.765645     1.757512     1.749378
      1.741244     1.733111     1.724977     1.716843     1.708710     1.700576     1.692442     1.684309     1.676175     1.668041
      1.659908     1.651774     1.643641     1.635507     1.627373     1.619240     1.611106     1.602972     1.594839     1.586705
      1.578571     1.570438     1.562304     1.554170     1.546037     1.537903     1.529769     1.521636     1.513502     1.505368
      1.497235     1.489101     1.480968     1.472834     1.464700     1.456567     1.448433     1.440299     1.432166     1.424032
      1.415898     1.407765     1.399631     1.391497     1.383364     1.375230     1.367096     1.358963     1.350829     1.342695
      1.334562     1.326428     1.318295     1.310161     1.302027     1.293894     1.285760     1.277626     1.269493     1.261359
      1.253225     1.245092     1.236958     1.228824     1.220691     1.212557     1.204423     1.196290     1.188156     1.180022
      1.171889     1.163755     1.155622     1.147488     1.139354     1.131221     1.123087     1.114953     1.106820     1.098686
      1.090552     1.082419     1.074285     1.066151     1.058018     1.049884     1.041750     1.033617     1.025483     1.017349
      1.009216     1.001082     0.992949     0.984815     0.976681     0.968548     0.960414     0.952280     0.944147     0.936013
      0.927879     0.919746     0.911612     0.903478     0.895345     0.887211     0.879077     0.870944     0.862810     0.854676
      0.846543     0.838409     0.830276     0.822142     0.814008     0.805875     0.797741     0.789607     0.781474     0.773340
      0.765206     0.757073     0.748939     0.740805     0.732672     0.724538     0.716404     0.708271     0.700137     0.692003
      0.683870     0.675736     0.667603     0.659469     0.651335     0.643202     0.635068     0.626934     0.618801     0.610667
      0.602533     0.594400     0.586266     0.578132     0.569999     0.561865     0.553731     0.545598     0.537464     0.529330
      0.521197     0.513063     0.504930     0.496796     0.488662     0.480529     0.472395     0.464261     0.456128     0.447994
      0.439861     0.431727     0.423593     0.415460     0.407326     0.399192     0.391059     0.382925     0.374792     0.366658
      0.358524     0.350391     0.342257     0.334124     0.325990     0.317856     0.309723     0.301589     0.293455     0.285322
      0.277188     0.269055     0.260921     0.252787     0.244654     0.236520     0.228386     0.220253     0.212119     0.203986
 NY phased data points follow
   5.36202E+01  4.38184E+01  3.43762E+01  1.44276E+01  1.47043E+01  2.79062E+01  3.11520E+01  2.78620E+01  3.34844E+01  3.03730E+01
   2.40153E+01  1.87071E+01  1.85964E+01  2.12062E+01  3.01886E+00  6.95678E+00  8.15395E+00  3.95587E+00 -1.48907E+00 -1.74815E+01
  -1.50596E+01 -2.56349E+01 -1.55094E+01  1.80474E+01  3.11975E+01  3.91338E+01  5.81941E+01  6.76213E+01  5.88433E+01  6.22690E+01
   6.64023E+01  6.69165E+01  4.55191E+01  3.78400E+01  5.93011E+01  5.14517E+01  5.06963E+01  4.14566E+01  2.81935E+01  2.51347E+01
   1.26167E+01  5.10847E+00 -3.11931E+00  1.72623E+01  2.27490E+01  2.82756E+01  5.80011E+01  7.40803E+01  8.23681E+01  6.91311E+01
   8.19293E+01  8.12769E+01  6.07857E+01  5.95228E+01  5.10267E+01  5.39145E+01  4.67725E+01  4.02732E+01  3.19731E+01  2.76829E+01
   2.57173E+01  3.41664E+01  6.84784E+01  6.64156E+01  7.06077E+01  7.46130E+01  7.00594E+01  7.33057E+01  3.34178E+01  1.77554E+01
   1.86229E+01  1.41973E+01  4.85262E+01  4.77585E+01  4.27081E+01  7.58100E+01  7.64574E+01  7.63238E+01  8.22344E+01  7.40839E+01
   7.78230E+01  7.42595E+01  5.47846E+01  4.19413E+01  3.77338E+01  4.29827E+01  3.94085E+01  3.69211E+01  6.43477E+01  7.07098E+01
   8.46423E+01  9.13021E+01  8.51054E+01  1.02772E+02  8.75044E+01  9.26182E+01  1.02540E+02  1.04375E+02  1.09460E+02  1.06842E+02
   9.48364E+01  7.32240E+01  8.67575E+01  6.46596E+01  5.37014E+01  4.68151E+01  3.22051E+01  5.14768E+01  1.39344E+01 -1.15169E+01
  -2.36916E+01 -6.70092E+01 -7.09536E+01 -3.92853E+01 -2.02182E+01 -9.93414E+00  2.65023E-01  1.87081E+01  2.83646E+01  2.26785E+01
   2.53701E+01  2.53026E+01  4.54382E+01  5.17603E+01  5.29924E+01  6.74924E+01  8.23689E+01  9.24303E+01  9.75417E+01  1.13488E+02
   1.15513E+02  1.23121E+02  1.00627E+02  4.85878E+01 -3.29953E+01 -6.59303E+01 -3.08178E+01 -2.82400E+01 -2.93240E+01 -3.42936E+01
  -1.16480E+01 -2.69029E+01 -4.56779E+01 -2.80124E+01 -2.85015E+01 -2.59483E+01 -3.85713E+01 -2.76114E+01 -2.58416E+01 -2.16623E+01
  -4.63630E+00 -7.84287E+00 -1.99249E+01 -7.47017E-01  1.04033E+01  3.84537E-01  7.31688E+00 -4.71717E+00  1.96600E+01  1.46907E+01
   1.32084E+01  2.33521E+01  9.11384E+00  1.58629E+01  4.41220E+00  1.06706E+01  3.63733E+00  8.38573E+00  1.47669E+01  2.07145E+01
   2.33204E+01  2.53792E+01  4.79297E+01  4.30611E+01  5.73557E+01  4.41086E+01  2.89108E+01  3.99963E+01  3.89440E+01  2.40189E+01
   7.38310E+00 -4.82413E+00 -1.27558E+01 -2.24588E+00 -4.67368E+00 -7.10185E+00 -1.73942E+01 -1.01933E+01 -6.24162E+00 -5.02700E+00
   4.19754E+00  5.58057E-01 -3.67889E+00 -2.51746E+00  1.59639E+01  8.65843E+00  3.41706E+01  2.67310E+01  5.62903E-01  2.29118E+01
   2.74433E+01  3.57841E+01  1.00637E+01  1.04736E+01  4.24928E+01  3.35089E+01  5.30530E+00  3.97886E+00  2.28368E+00 -1.87867E+01
  -8.04356E+00  2.97860E+00 -8.00658E+00 -9.34260E+00  2.40898E+01  3.56277E+01  4.04256E+01  7.26729E+01  7.87824E+01  5.93329E+01
   4.81711E+01  2.93516E+01  9.51781E+00  7.17708E+00  1.01163E+00  1.24928E+01  1.14285E+01  2.33036E+01  3.02158E+01  2.67617E+01
   2.93331E+01 -2.63095E+00  6.65064E+00  5.44020E+00 -2.00782E+01 -2.41359E+01 -2.87957E+01 -3.06143E+01 -3.11422E+01 -3.80415E+01
  -3.77341E+01 -3.38800E+01 -3.54496E+01 -1.86422E+01 -1.34361E+01  9.37344E+00  1.38364E+01 -4.17571E+00 -1.04654E+01 -1.73412E+01
  -1.70193E+01 -3.38097E+01 -2.87889E+01 -4.08932E+01 -5.22436E+01 -4.40595E+01 -2.90607E+01 -9.26648E+00  2.85426E+01  1.38139E+02
   1.86803E+02  1.61058E+02  1.59708E+02  1.49103E+02  1.21555E+02  1.14664E+02  9.80832E+01  9.95791E+01  1.05525E+02  9.10551E+01
   1.04147E+02  9.67952E+01  1.02911E+02  1.00945E+02  9.54535E+01  1.05149E+02  9.72225E+01  1.00594E+02  9.22546E+01  9.52286E+01
   9.62753E+01  9.26544E+01  8.91867E+01  1.03662E+02  1.01832E+02  6.99272E+01  8.66043E+01  7.36758E+01  6.28475E+01  8.63868E+01
   7.24943E+01  7.10746E+01  8.22444E+01  7.18954E+01  6.29007E+01  5.99418E+01  5.65377E+01  5.51552E+01  6.36189E+01  6.94336E+01
   6.27572E+01  7.34927E+01  7.51648E+01  6.24116E+01  6.73106E+01  7.04402E+01  7.59225E+01  7.25086E+01  5.98015E+01  6.42924E+01
   6.44985E+01  6.69966E+01  5.45711E+01  3.50613E+01  4.56472E+01  4.20893E+01  5.06422E+01  6.21256E+01  5.57533E+01  4.84140E+01
   4.30770E+01  6.15970E+01  5.21817E+01  5.59001E+01  7.33324E+01  5.29727E+01  5.78891E+01  6.47530E+01  5.50345E+01  4.95818E+01
   3.54867E+01  3.71657E+01  2.26583E+01 -2.05982E+00  1.25228E+01  9.81785E+00  6.47989E+00  9.96217E+00 -2.50876E+00  1.63525E+00
   4.55844E+00  6.14581E+00  2.56189E+01  2.80115E+01  9.35502E+00  1.13224E+01  7.85963E+00  1.86608E+01  2.48716E+01  1.50467E+01
   3.04737E+01  2.39834E+01  1.85968E+01  2.10526E+01  1.31920E+01  3.75272E-01 -2.36932E+00  2.52324E+00 -1.03492E+01 -1.64577E+01
  -6.75341E+00 -8.73856E+00 -2.25772E+01 -4.96143E+00  1.27809E+01  4.99962E+00  4.84392E+00  1.50473E+01  1.69401E+01  2.31769E+01
   2.77082E+01  3.18558E+01  3.13795E+01  3.11045E+01  6.36034E+01  5.33629E+01  5.49911E+01  6.83915E+01  6.19719E+01  6.71525E+01
   5.00006E+01  6.60448E+01  7.53376E+01  7.85372E+01  8.00139E+01  8.07881E+01  1.09524E+02  1.28135E+02  1.22359E+02  1.20645E+02
   1.28429E+02  1.04031E+02  9.30374E+01  8.12250E+01  8.29853E+01  7.13412E+01  5.38799E+01  5.76824E+01  4.37819E+01  5.18899E+01
   3.59891E+01  2.94785E+01  1.61723E+01  7.85589E+00  1.21134E+01  9.13313E+00  1.80149E+01  1.05938E+01  1.55195E+01 -6.36504E+00
  -8.17184E+00 -4.55714E-01  9.36568E+00  1.03008E+01 -3.65003E+00 -6.22770E+00 -2.34449E+01 -1.91700E+00 -1.75135E+00 -2.87991E+00
  -1.01065E+01 -6.50754E+00  6.33281E+00 -1.22807E+01  3.67035E+00 -1.92960E+00 -1.04817E+01 -8.78401E+00 -6.63434E+00 -1.54345E+00
   4.50855E+00 -1.09959E+01 -1.42278E+01  6.82924E+00 -9.57868E+00 -3.93771E-01  3.26837E+00  6.20863E+00  3.05187E+00 -3.12915E+00
   4.80029E+00 -1.01261E+01  4.19347E+00 -5.47168E+00 -1.59909E+01 -1.34152E-01 -3.38578E+00  6.99605E-01 -9.45730E+00 -1.11626E+01
   9.09157E-01 -1.06537E+01 -9.34060E+00  3.64888E+00  3.32241E+00 -1.06295E+01 -7.36408E+00 -5.89050E+00 -5.56250E+00  1.51935E+01
  -9.05706E+00  2.08662E+00 -4.21435E+00 -1.90339E+01  2.76847E+01 -4.10029E+00 -1.32077E+01 -3.94200E+00 -1.75099E+01  3.91786E+00
   9.84321E+00  8.41310E+00  6.10801E+00 -3.49207E-02  1.41325E+01  1.77369E+01 -2.14474E+00  1.43091E+01  5.70499E+00  1.05620E+01
 NY points of the fit to the data follow
   2.71468E+01  2.50577E+01  2.03418E+01  1.62467E+01  1.66667E+01  2.12425E+01  3.09773E+01  4.11845E+01  4.12743E+01  3.25958E+01
   2.45684E+01  1.98775E+01  1.70404E+01  1.52555E+01  1.40148E+01  1.19062E+01  8.77111E+00  3.58502E+00 -5.12990E+00 -1.42712E+01
  -1.98258E+01 -2.19903E+01 -1.17861E+01  1.45847E+01  3.49489E+01  4.93018E+01  6.52536E+01  6.81512E+01  6.70049E+01  6.94322E+01
   7.08795E+01  7.06509E+01  6.90057E+01  6.67230E+01  6.41510E+01  6.03411E+01  5.53800E+01  4.89527E+01  3.93943E+01  2.61546E+01
   1.21192E+01  1.45994E-01 -3.16830E+00  8.59647E+00  2.62706E+01  4.12529E+01  5.51365E+01  6.67206E+01  7.30924E+01  7.39143E+01
   7.38932E+01  7.19234E+01  6.74603E+01  6.07334E+01  5.28542E+01  4.59847E+01  3.95053E+01  3.46970E+01  3.44927E+01  3.25068E+01
   2.87324E+01  3.71249E+01  4.88501E+01  5.25754E+01  6.14174E+01  7.22825E+01  7.26557E+01  6.50468E+01  5.37651E+01  4.00585E+01
   2.64757E+01  2.47562E+01  3.65141E+01  4.51005E+01  5.13804E+01  6.39882E+01  7.41241E+01  7.79634E+01  7.89513E+01  7.86131E+01
   7.62249E+01  7.01315E+01  5.95899E+01  4.82260E+01  3.87541E+01  3.35239E+01  3.82719E+01  4.70178E+01  5.62190E+01  6.63833E+01
   7.11888E+01  7.52554E+01  7.90394E+01  8.25702E+01  8.58876E+01  8.92906E+01  9.21828E+01  9.34850E+01  9.36402E+01  9.30754E+01
   8.98524E+01  8.65812E+01  8.37912E+01  7.43022E+01  5.88899E+01  4.82521E+01  4.09314E+01  3.22668E+01  2.22633E+01  3.57092E+00
  -2.88604E+01 -6.42409E+01 -6.96784E+01 -4.09045E+01 -1.91968E+01 -8.55853E+00  3.87061E-01  7.78835E+00  1.44965E+01  2.07964E+01
   2.68219E+01  3.26784E+01  3.87272E+01  4.55216E+01  5.32679E+01  6.25851E+01  7.39052E+01  8.46878E+01  9.81525E+01  1.17109E+02
   1.31234E+02  1.25699E+02  1.01958E+02  4.96782E+01 -2.56861E+01 -5.50408E+01 -3.64673E+01 -2.82479E+01 -2.62952E+01 -2.39837E+01
  -2.30009E+01 -2.31637E+01 -2.31892E+01 -2.32714E+01 -2.32268E+01 -2.25204E+01 -2.17649E+01 -2.02851E+01 -1.75885E+01 -1.49097E+01
  -1.23247E+01 -9.93901E+00 -7.76618E+00 -5.59835E+00 -3.45841E+00 -1.14961E+00  1.24067E+00  2.95522E+00  3.41452E+00  3.75256E+00
   5.32112E+00  7.66071E+00  9.28302E+00  8.99572E+00  7.03143E+00  6.11335E+00  8.05698E+00  1.07657E+01  1.21347E+01  1.26051E+01
   1.55680E+01  2.33447E+01  3.34850E+01  4.10136E+01  4.01555E+01  3.22573E+01  2.85128E+01  3.36055E+01  3.77929E+01  3.24663E+01
   1.90758E+01  6.26896E+00  1.05067E+00 -9.62913E-01 -3.89653E+00 -5.64573E+00 -6.36124E+00 -6.42574E+00 -5.83381E+00 -4.05863E+00
  -1.88510E+00  1.87595E-01  4.15445E+00  9.16160E+00  1.22804E+01  1.78076E+01  2.42855E+01  2.30240E+01  2.18044E+01  2.59602E+01
   2.75813E+01  2.74466E+01  2.69435E+01  2.88113E+01  3.25610E+01  2.97415E+01  2.17832E+01  1.40448E+01  7.27280E+00 -5.36201E-01
  -7.61769E+00 -1.04130E+01 -9.26911E+00 -2.05286E+00  1.37336E+01  3.14249E+01  5.01641E+01  6.92929E+01  7.14953E+01  6.41780E+01
   5.81037E+01  4.53735E+01  3.79092E+01  3.72335E+01  3.71960E+01  3.75379E+01  3.61688E+01  3.22585E+01  2.65546E+01  1.81359E+01
   7.88366E+00 -2.51982E+00 -1.31830E+01 -2.35526E+01 -3.14010E+01 -3.68406E+01 -4.18700E+01 -4.29248E+01 -4.08469E+01 -4.02835E+01
  -3.65745E+01 -3.12092E+01 -2.76336E+01 -2.01478E+01 -1.18746E+01 -6.74091E+00 -2.96027E+00 -4.86844E+00 -9.97074E+00 -1.57510E+01
  -2.61753E+01 -3.73866E+01 -4.38960E+01 -4.64478E+01 -5.07900E+01 -4.74531E+01 -2.94110E+01 -1.65962E+01  2.69801E+01  1.24839E+02
   1.77395E+02  1.57304E+02  1.38518E+02  1.29465E+02  1.21607E+02  1.15273E+02  1.09992E+02  1.04872E+02  9.97082E+01  9.51659E+01
   9.19131E+01  8.98116E+01  8.89792E+01  8.90043E+01  8.95623E+01  9.01937E+01  9.03306E+01  9.03887E+01  8.97092E+01  8.87943E+01
   8.78039E+01  8.61746E+01  8.42503E+01  8.20072E+01  7.98481E+01  7.78623E+01  7.57427E+01  7.32833E+01  7.08572E+01  6.83364E+01
   6.53976E+01  6.21994E+01  5.86766E+01  5.50808E+01  5.19148E+01  4.91194E+01  4.72689E+01  4.68563E+01  4.75903E+01  4.91752E+01
   5.11912E+01  5.32292E+01  5.52150E+01  5.74221E+01  5.96421E+01  6.15340E+01  6.31896E+01  6.48394E+01  6.65435E+01  6.83791E+01
   7.04018E+01  7.23038E+01  7.37337E+01  7.48504E+01  7.57424E+01  7.65114E+01  7.70998E+01  7.69681E+01  7.62207E+01  7.51287E+01
   7.33263E+01  7.07991E+01  6.81135E+01  6.51757E+01  6.15796E+01  5.75872E+01  5.30909E+01  4.75613E+01  4.10002E+01  3.32751E+01
   2.51748E+01  1.81479E+01  1.26336E+01  8.77237E+00  7.05658E+00  7.86012E+00  1.07149E+01  1.50227E+01  2.02014E+01  2.47272E+01
   2.75586E+01  2.81180E+01  2.57532E+01  1.96162E+01  1.44392E+01  1.38356E+01  1.46242E+01  1.88963E+01  2.43808E+01  2.57223E+01
   2.63793E+01  2.62368E+01  2.49699E+01  2.24782E+01  1.93190E+01  1.57968E+01  1.23190E+01  1.00584E+01  9.40304E+00  9.80895E+00
   1.11592E+01  1.33889E+01  1.60634E+01  1.91424E+01  2.23514E+01  2.55265E+01  2.85945E+01  3.12491E+01  3.38122E+01  3.64283E+01
   3.89790E+01  4.17661E+01  4.44680E+01  4.71129E+01  5.00644E+01  5.33791E+01  5.70574E+01  6.12587E+01  6.59262E+01  7.07888E+01
   7.62726E+01  8.23971E+01  8.84247E+01  9.45298E+01  1.00892E+02  1.06857E+02  1.11281E+02  1.13442E+02  1.12436E+02  1.07815E+02
   1.00088E+02  9.03405E+01  8.04887E+01  7.20236E+01  6.50553E+01  5.88818E+01  5.28996E+01  4.68268E+01  3.97405E+01  3.16533E+01
   2.37049E+01  1.65568E+01  1.03142E+01  5.46903E+00  2.11862E+00 -4.03503E-01 -2.37759E+00 -3.67619E+00 -4.50404E+00 -5.33608E+00
  -6.16523E+00 -6.87985E+00 -7.28945E+00 -7.47678E+00 -7.42601E+00 -7.32183E+00 -7.33955E+00 -7.36113E+00 -7.18530E+00 -7.05732E+00
  -7.16082E+00 -7.10356E+00 -6.64838E+00 -6.37070E+00 -6.51690E+00 -6.47982E+00 -6.22848E+00 -6.11006E+00 -6.09631E+00 -5.94482E+00
  -5.54156E+00 -5.12134E+00 -4.94489E+00 -5.00730E+00 -5.10068E+00 -5.07627E+00 -4.91597E+00 -4.64241E+00 -4.21278E+00 -3.90510E+00
  -3.70675E+00 -3.46167E+00 -3.34386E+00 -3.20182E+00 -3.06624E+00 -3.06312E+00 -3.14138E+00 -3.06392E+00 -2.87184E+00 -2.54948E+00
  -2.22798E+00 -2.15060E+00 -1.98944E+00 -1.87273E+00 -1.80392E+00 -1.44882E+00 -1.03919E+00 -7.99290E-01 -5.82099E-01 -3.61809E-01
  -1.71264E-01  2.63711E-02  2.22235E-01  3.20555E-01  2.76705E-01  2.75350E-01  5.28579E-01  8.05607E-01  1.23224E+00  1.80028E+00
   2.31544E+00  2.54076E+00  2.45121E+00  2.30880E+00  2.31279E+00  2.56161E+00  3.00704E+00  3.32944E+00  3.59487E+00  3.92431E+00
 NY background values follow
     5.046E+01    5.040E+01    5.034E+01    5.027E+01    5.021E+01    5.015E+01    5.008E+01    5.002E+01    4.996E+01    4.989E+01
     4.983E+01    4.977E+01    4.970E+01    4.964E+01    4.958E+01    4.952E+01    4.945E+01    4.939E+01    4.933E+01    4.927E+01
     4.920E+01    4.914E+01    4.908E+01    4.902E+01    4.896E+01    4.889E+01    4.883E+01    4.877E+01    4.871E+01    4.865E+01
     4.859E+01    4.853E+01    4.847E+01    4.841E+01    4.835E+01    4.829E+01    4.823E+01    4.817E+01    4.811E+01    4.805E+01
     4.799E+01    4.793E+01    4.787E+01    4.781E+01    4.775E+01    4.769E+01    4.764E+01    4.758E+01    4.752E+01    4.746E+01
     4.740E+01    4.734E+01    4.728E+01    4.722E+01    4.716E+01    4.710E+01    4.704E+01    4.698E+01    4.692E+01    4.686E+01
     4.680E+01    4.673E+01    4.667E+01    4.661E+01    4.655E+01    4.649E+01    4.642E+01    4.636E+01    4.630E+01    4.624E+01
     4.617E+01    4.611E+01    4.604E+01    4.598E+01    4.591E+01    4.585E+01    4.578E+01    4.572E+01    4.565E+01    4.558E+01
     4.551E+01    4.545E+01    4.538E+01    4.531E+01    4.524E+01    4.517E+01    4.510E+01    4.503E+01    4.496E+01    4.488E+01
     4.481E+01    4.474E+01    4.466E+01    4.459E+01    4.451E+01    4.444E+01    4.436E+01    4.429E+01    4.421E+01    4.413E+01
     4.405E+01    4.398E+01    4.390E+01    4.382E+01    4.374E+01    4.366E+01    4.357E+01    4.349E+01    4.341E+01    4.333E+01
     4.324E+01    4.316E+01    4.308E+01    4.299E+01    4.291E+01    4.282E+01    4.273E+01    4.265E+01    4.256E+01    4.247E+01
     4.239E+01    4.230E+01    4.221E+01    4.212E+01    4.203E+01    4.194E+01    4.185E+01    4.176E+01    4.167E+01    4.157E+01
     4.148E+01    4.139E+01    4.130E+01    4.120E+01    4.111E+01    4.101E+01    4.092E+01    4.082E+01    4.073E+01    4.063E+01
     4.053E+01    4.044E+01    4.034E+01    4.024E+01    4.014E+01    4.005E+01    3.995E+01    3.985E+01    3.975E+01    3.965E+01
     3.955E+01    3.945E+01    3.935E+01    3.924E+01    3.914E+01    3.904E+01    3.894E+01    3.883E+01    3.873E+01    3.863E+01
     3.852E+01    3.842E+01    3.831E+01    3.821E+01    3.810E+01    3.800E+01    3.789E+01    3.778E+01    3.768E+01    3.757E+01
     3.746E+01    3.735E+01    3.725E+01    3.714E+01    3.703E+01    3.692E+01    3.681E+01    3.670E+01    3.659E+01    3.648E+01
     3.637E+01    3.625E+01    3.614E+01    3.603E+01    3.592E+01    3.580E+01    3.569E+01    3.558E+01    3.546E+01    3.535E+01
     3.524E+01    3.512E+01    3.501E+01    3.489E+01    3.478E+01    3.466E+01    3.454E+01    3.443E+01    3.431E+01    3.420E+01
     3.408E+01    3.396E+01    3.384E+01    3.373E+01    3.361E+01    3.349E+01    3.337E+01    3.326E+01    3.314E+01    3.302E+01
     3.290E+01    3.278E+01    3.266E+01    3.254E+01    3.242E+01    3.230E+01    3.218E+01    3.206E+01    3.194E+01    3.182E+01
     3.170E+01    3.158E+01    3.146E+01    3.133E+01    3.121E+01    3.109E+01    3.096E+01    3.084E+01    3.071E+01    3.059E+01
     3.046E+01    3.033E+01    3.020E+01    3.008E+01    2.995E+01    2.982E+01    2.969E+01    2.955E+01    2.942E+01    2.929E+01
     2.916E+01    2.902E+01    2.889E+01    2.875E+01    2.861E+01    2.847E+01    2.834E+01    2.820E+01    2.806E+01    2.791E+01
     2.777E+01    2.763E+01    2.748E+01    2.734E+01    2.719E+01    2.704E+01    2.690E+01    2.675E+01    2.660E+01    2.645E+01
     2.629E+01    2.614E+01    2.599E+01    2.583E+01    2.567E+01    2.552E+01    2.536E+01    2.520E+01    2.504E+01    2.488E+01
     2.471E+01    2.455E+01    2.438E+01    2.422E+01    2.405E+01    2.388E+01    2.371E+01    2.354E+01    2.337E+01    2.320E+01
     2.303E+01    2.286E+01    2.268E+01    2.251E+01    2.233E+01    2.216E+01    2.198E+01    2.180E+01    2.162E+01    2.145E+01
     2.127E+01    2.109E+01    2.091E+01    2.073E+01    2.055E+01    2.037E+01    2.019E+01    2.001E+01    1.983E+01    1.964E+01
     1.946E+01    1.928E+01    1.910E+01    1.892E+01    1.873E+01    1.855E+01    1.837E+01    1.819E+01    1.801E+01    1.783E+01
     1.765E+01    1.747E+01    1.729E+01    1.711E+01    1.693E+01    1.675E+01    1.657E+01    1.640E+01    1.622E+01    1.604E+01
     1.587E+01    1.570E+01    1.552E+01    1.535E+01    1.518E+01    1.501E+01    1.484E+01    1.468E+01    1.451E+01    1.435E+01
     1.418E+01    1.402E+01    1.386E+01    1.370E+01    1.354E+01    1.339E+01    1.323E+01    1.308E+01    1.293E+01    1.278E+01
     1.263E+01    1.248E+01    1.233E+01    1.219E+01    1.205E+01    1.191E+01    1.177E+01    1.163E+01    1.150E+01    1.136E+01
     1.123E+01    1.110E+01    1.097E+01    1.085E+01    1.072E+01    1.060E+01    1.048E+01    1.036E+01    1.025E+01    1.013E+01
     1.002E+01    9.908E+00    9.799E+00    9.693E+00    9.588E+00    9.485E+00    9.384E+00    9.285E+00    9.187E+00    9.091E+00
     8.997E+00    8.904E+00    8.813E+00    8.723E+00    8.635E+00    8.548E+00    8.463E+00    8.379E+00    8.297E+00    8.216E+00
     8.136E+00    8.057E+00    7.979E+00    7.903E+00    7.828E+00    7.753E+00    7.680E+00    7.608E+00    7.537E+00    7.467E+00
     7.397E+00    7.328E+00    7.261E+00    7.194E+00    7.128E+00    7.062E+00    6.997E+00    6.933E+00    6.870E+00    6.807E+00
     6.745E+00    6.683E+00    6.622E+00    6.562E+00    6.502E+00    6.442E+00    6.383E+00    6.324E+00    6.266E+00    6.208E+00
     6.150E+00    6.093E+00    6.036E+00    5.979E+00    5.923E+00    5.866E+00    5.810E+00    5.754E+00    5.698E+00    5.642E+00
     5.586E+00    5.530E+00    5.474E+00    5.419E+00    5.363E+00    5.308E+00    5.252E+00    5.197E+00    5.141E+00    5.086E+00
     5.031E+00    4.976E+00    4.921E+00    4.866E+00    4.811E+00    4.756E+00    4.702E+00    4.647E+00    4.592E+00    4.538E+00
     4.484E+00    4.430E+00    4.376E+00    4.322E+00    4.268E+00    4.214E+00    4.161E+00    4.107E+00    4.054E+00    4.001E+00
     3.948E+00    3.895E+00    3.842E+00    3.790E+00    3.737E+00    3.685E+00    3.632E+00    3.580E+00    3.528E+00    3.476E+00
     3.424E+00    3.373E+00    3.321E+00    3.269E+00    3.218E+00    3.166E+00    3.115E+00    3.063E+00    3.012E+00    2.961E+00
     2.909E+00    2.858E+00    2.807E+00    2.756E+00    2.705E+00    2.654E+00    2.603E+00    2.552E+00    2.501E+00    2.450E+00
 Mac      Conc. = 2.50E-04
   3.31847E+01  3.24875E+01  3.17943E+01  3.14425E+01  3.11971E+01  3.06984E+01  2.98925E+01  2.87186E+01  2.72232E+01  2.55856E+01
   2.42306E+01  2.33325E+01  2.29582E+01  2.29066E+01  2.26702E+01  2.19496E+01  2.08433E+01  1.99502E+01  2.01555E+01  2.21973E+01
   2.63240E+01  3.07014E+01  3.34451E+01  3.57279E+01  3.80670E+01  3.93195E+01  3.99747E+01  4.09589E+01  4.24185E+01  4.39586E+01
   4.54768E+01  4.69503E+01  4.79280E+01  4.84732E+01  4.88574E+01  4.89742E+01  4.87498E+01  4.88228E+01  4.97440E+01  5.14704E+01
   5.33670E+01  5.44174E+01  5.43279E+01  5.39315E+01  5.43099E+01  5.52966E+01  5.62585E+01  5.68161E+01  5.65197E+01  5.56520E+01
   5.46030E+01  5.33885E+01  5.21750E+01  5.12690E+01  5.07267E+01  5.02017E+01  5.00230E+01  5.03065E+01  5.08045E+01  5.17790E+01
   5.30452E+01  5.39900E+01  5.46940E+01  5.54689E+01  5.56243E+01  5.48729E+01  5.40076E+01  5.32467E+01  5.26642E+01  5.24623E+01
   5.25001E+01  5.29069E+01  5.40924E+01  5.61957E+01  5.82695E+01  5.92693E+01  5.95088E+01  5.93544E+01  5.86761E+01  5.79151E+01
   5.71316E+01  5.64322E+01  5.61626E+01  5.59912E+01  5.59912E+01  5.63918E+01  5.71196E+01  5.77934E+01  5.82581E+01  5.87350E+01
   5.91994E+01  5.93972E+01  5.94980E+01  5.96021E+01  5.93358E+01  5.86994E+01  5.76302E+01  5.58111E+01  5.34428E+01  5.11117E+01
   4.89372E+01  4.69172E+01  4.50665E+01  4.29256E+01  4.00296E+01  3.64003E+01  3.20329E+01  2.68338E+01  2.14735E+01  1.70639E+01
