 
 $NMID
 ID=''
 FMTDAT='(2E13.5)'
 TRAMP=   1.00000E+0
 VOLUME=   1.00000E+0
 $END
  -2.60934E+4   4.16382E+3
  -4.16113E+4   3.01564E+4
   1.47351E+4   5.68838E+4
   5.42073E+4   6.67939E+3
   2.00046E+4  -5.12058E+4
  -3.20502E+4  -3.50314E+4
  -3.89584E+4   1.97849E+4
  -2.37809E+3   4.35668E+4
   3.43665E+4   1.67717E+4
   2.56155E+4  -2.65133E+4
  -1.57129E+4  -3.36728E+4
  -3.25625E+4   6.29283E+2
  -1.01441E+4   2.77245E+4
   1.82207E+4   1.57876E+4
   2.28636E+4  -1.20192E+4
   1.67720E+3  -2.08432E+4
  -2.00741E+4  -4.40473E+3
  -1.29606E+4   1.41692E+4
   9.05001E+3   1.42822E+4
   1.50405E+4  -4.01580E+2
   3.52536E+3  -1.21475E+4
  -8.54744E+3  -7.56348E+3
  -1.04010E+4   5.91587E+3
  -3.29700E+2   9.54130E+3
   9.39405E+3   1.55190E+3
   5.82546E+3  -4.85197E+3
  -4.59631E+3  -4.31418E+3
  -7.10726E+3  -1.21239E+3
  -4.92017E+2   3.67153E+3
   4.82182E+3   4.66022E+3
   3.06592E+3  -6.52078E+2
  -1.11683E+3  -5.06698E+3
  -2.91184E+3  -2.76575E+3
  -8.41974E+2   1.71980E+3
   2.20273E+3   3.69125E+3
   3.02620E+3   1.70721E+3
   3.74556E+2  -2.25527E+3
  -2.34447E+3  -2.75856E+3
  -1.86498E+3   7.33567E+2
  -1.56542E+2   2.33664E+3
   1.80333E+3   3.51083E+2
   2.39129E+3  -1.68611E+3
   3.02419E+2  -1.24202E+3
  -1.72454E+3   4.90772E+2
  -1.09767E+3   1.81939E+3
  -6.18084E+1   1.80630E+3
   4.01287E+2  -8.73002E+2
   6.13890E+2  -3.58907E+3
   2.13823E+2  -1.77666E+3
  -6.44015E+2   1.37367E+3
   3.02035E+2   1.83329E+3
   1.65814E+3   8.07211E+0
   1.25900E+3  -7.41183E+2
  -1.08200E+3  -6.25868E+2
  -2.04218E+3   2.74720E+2
  -6.58773E+2   4.46743E+2
   1.44183E+3   1.16494E+2
   1.64350E+3  -5.44768E+2
   1.46263E+2  -5.54106E+2
  -1.22987E+3   1.33118E+2
  -1.19947E+3   6.72719E+2
  -3.81331E+0   9.83240E+2
   2.65241E+2  -4.36172E+2
  -6.18504E+1  -2.23867E+3
  -5.75939E+2  -2.00366E+3
   2.43360E+2  -4.40677E+1
   8.84925E+2   1.40271E+3
   1.01880E+3   1.07864E+3
  -1.16378E+2  -1.88622E+2
  -1.02675E+3  -7.93983E+2
  -3.81399E+2  -1.64801E+2
   1.16798E+2   1.05888E+3
   1.16910E+2   9.87783E+2
  -6.51390E+2  -5.86204E+2
  -4.59271E+2  -1.08761E+3
  -3.90709E+2  -3.26202E+2
  -2.92372E+2   3.93452E+2
  -1.39688E+2   2.23779E+2
   2.36829E+2  -5.16694E+2
  -1.11751E+1  -8.05973E+2
  -1.13116E+2  -2.34749E+2
   2.87923E+2   4.84497E+2
   1.03158E+2   4.46037E+2
   3.45750E+2  -2.85436E+2
   3.00736E+2  -2.58780E+2
  -2.06197E+2   4.53121E+2
  -5.76401E+2   8.39669E+2
   7.98748E+1   2.12072E+2
   3.37799E+2  -2.41400E+2
  -5.00841E+1  -1.57845E+2
  -6.78252E+2   3.03119E+2
  -8.43192E+2   3.46393E+2
   4.70142E+1  -3.88060E+2
   7.08773E+2  -3.72135E+2
   4.84788E+2  -2.95467E+2
   1.85536E+2   3.23689E+2
  -3.74977E+2   6.05200E+2
  -8.32479E+1   2.09164E+2
   1.39803E+2  -9.05533E+1
   8.64928E+1   1.58029E+2
  -7.10576E+2   1.35538E+2
  -5.47394E+2  -4.26495E+2
   1.90290E+2  -3.71190E+2
   7.54979E+2   3.05362E+2
   1.08258E+2   5.71649E+2
  -5.80598E+2   2.67881E+2
  -6.58374E+2  -1.90543E+2
   3.16032E+2  -5.14766E+2
   5.92514E+2   3.38159E+2
   1.75738E+2   5.50405E+2
  -5.05355E+2   1.79575E+2
  -6.30568E+2  -2.24768E+2
  -1.23557E+2  -9.49242E+1
  -1.34096E+2   1.97578E+2
  -1.72571E+2  -1.69153E+2
  -4.76641E+1  -4.09384E+2
   2.79154E+2  -4.06523E+2
   6.65233E+2  -3.38843E+0
   4.42227E+2   5.23764E+2
   1.45189E+2   4.32350E+2
  -1.88023E+2   2.27619E+2
  -2.51141E+2   4.52614E+0
  -2.84059E+2   1.04984E+2
  -1.97123E+2  -1.39213E+1
  -4.90506E+1  -5.83112E+1
   1.13250E+2   1.01361E+2
   1.65240E+2   1.38730E+1
  -8.86773E+1   2.67027E+2
  -1.04688E+1   2.69774E+2
  -4.21862E+2  -4.05144E+1
   8.13106E+1  -3.96841E+2
   3.14507E+2  -3.54115E+2
  -6.12012E+1   2.48706E+2
  -3.44489E+2   2.02641E+2
   1.91072E+1  -2.44822E+1
   4.81670E+1   1.99251E+2
   5.03658E+1   3.95327E+2
  -5.28955E+2   3.47855E+2
  -1.02859E+2  -3.03563E+2
  -4.40231E+1  -3.98942E+2
   2.22176E+2   9.35243E+1
  -8.29616E+1   3.51545E+2
  -3.26744E+2   1.04600E+2
  -4.61552E+2  -1.50904E+2
  -1.36714E+2  -4.00424E+2
   2.33192E+2  -9.47317E+1
   2.39812E+2   2.92783E+2
   3.36754E+2  -2.95567E+1
  -2.90619E+1  -2.47389E+2
  -2.75908E+1  -5.38434E+1
   1.07038E+2   4.68283E+2
   1.29941E+2   4.20693E+2
  -2.17516E+2  -5.37997E+1
   5.49959E+1  -3.48416E+2
  -8.53438E+0   3.12924E+1
   8.35280E+1   2.32362E+2
   9.48811E+1   1.95408E+2
   2.18788E+2  -3.04545E+1
  -1.39201E+1  -6.36229E+1
   4.54499E+1  -4.38258E+1
   5.22795E+1  -1.73918E+2
  -2.13301E+2   1.42803E+2
   4.12237E+2  -1.13363E+2
   3.27612E+2  -2.68683E+1
   1.07392E+2   1.25056E+2
  -1.43476E+2   2.11373E+2
  -1.91269E+2   1.85457E+2
   1.20595E+2  -3.66545E+2
   1.78223E+2  -1.98612E+1
   7.80251E+1   2.03707E+2
  -2.02891E+2   2.01603E+2
  -6.29341E+1  -7.57323E+1
   2.26465E+2  -2.03646E+2
   2.51544E+2  -1.22631E+2
   9.96688E+1  -6.41052E+1
  -2.12188E+2  -7.30756E+1
   2.38602E+2  -1.63670E+2
   4.91187E+2   1.16544E+2
   2.43676E+2   3.85104E+2
  -3.60636E+2  -2.66988E+1
  -4.55351E+1  -4.62751E+1
   5.29445E+0   4.04975E+1
   2.19306E+2  -1.64496E+2
   1.16337E+2   5.70761E+1
   2.33756E+2  -2.03887E+1
  -2.69185E+1  -8.59811E+1
  -1.13756E+2  -2.86797E+1
   2.25310E+2   1.13410E+2
   4.19299E+1   1.30510E+2
  -3.32110E+2  -3.06320E+2
  -1.20479E+2  -3.64062E+2
   1.03709E+2  -3.34390E+2
   2.96492E+2   1.00588E+2
  -2.02382E+1   2.56023E+2
  -2.17043E+2  -1.41052E+2
   2.40545E+1  -5.60012E+1
  -1.35713E+2  -1.93102E+2
  -1.43578E+1   3.17675E+0
   9.81177E+0   1.41156E+2
   2.39454E+2  -8.09215E+1
   3.18040E+2  -1.13301E+2
   3.54612E+2   1.78204E+2
  -4.25488E+2   2.36315E+2
  -1.59121E+2  -3.71374E+1
   1.33302E+2  -1.65958E+2
   1.64988E+2   1.24419E+2
  -1.31538E+2  -2.59661E+2
  -4.40832E+0   6.41708E+1
   3.36973E+0  -6.81777E+1
   7.26345E+1  -1.33541E+2
   1.12444E+2   1.44909E+2
   1.07290E+2  -1.28839E+2
  -2.32572E+2   2.56962E+1
   9.65373E+1  -2.50937E+2
   1.27746E+2  -1.84241E+1
   4.51716E+2   1.57085E+2
  -1.05780E+2   2.47669E+2
  -8.92324E-2   6.09957E+1
  -1.39079E+2  -8.39379E+1
  -1.42490E+2   1.07442E+2
  -1.43303E+2   3.26736E+2
  -5.71452E+1  -1.07799E+2
   1.22398E+2  -1.59385E+2
   1.00002E+2  -2.09054E+2
   2.30204E+2  -5.92437E+1
  -9.11742E+0   6.80388E+1
  -8.12428E+1   1.73967E+2
  -1.31730E+2  -2.92559E+2
   2.35409E+2  -2.43871E+2
   5.50575E+1   2.38554E+1
  -1.19131E+2   1.36610E+2
  -6.08014E+1   1.90273E+1
  -5.91631E+0  -2.67315E+2
   7.22480E+1   8.57258E+1
   2.92871E-1   2.00056E+2
  -1.98730E+2  -4.55434E+1
   1.32802E+2  -2.32033E+1
   1.29607E+2  -1.62079E+2
  -2.43442E+2  -1.99095E+2
   3.24207E+1   2.79559E+1
  -1.70961E+2   1.14026E+0
   2.97536E+1  -1.28798E+2
   1.36590E+2  -2.06151E+2
   2.01886E+1  -7.65119E+1
  -6.89923E+1  -1.06617E+2
  -1.76428E+1   7.09033E+1
  -5.90148E+1   7.55043E+1
   1.45951E+2   2.83177E+2
   1.87775E+2   2.70408E+1
  -1.52539E+2  -8.42275E+1
   2.86961E+1  -1.66213E+2
   1.25919E+2  -1.59698E+2
   3.29100E+2  -3.84959E+1
  -7.04016E+0   8.56672E+1
  -2.68780E+2   7.38805E+1
   2.47207E+1  -1.64406E+2
  -1.51640E+2   7.70934E-1
   2.25391E+2  -4.27565E+1
   2.63701E+0   1.18597E+2
   1.55421E+1   8.56687E+1
   2.56004E+2  -3.32033E+2
   8.23407E+1   6.94310E+1
  -1.89113E+2   7.20672E+1
  -2.93729E+2   2.98957E+1
   2.16618E+2  -1.75593E+1
   2.47381E+2  -2.82234E+2
   2.28146E+2  -3.27562E+2
  -1.74124E+2  -1.26694E+2
  -1.35567E+2  -9.39837E+1
  -7.14811E+1   1.00928E+2
  -7.47845E+1  -2.99677E+1
   4.88500E+1   3.79549E+1
   4.23911E+1  -1.01891E+2
  -1.96719E+2  -1.80917E+2
   1.89148E+0  -6.59455E+1
   2.13106E+1   2.27575E+2
   1.86775E+2   1.01297E+2
  -1.76955E+2   1.25330E+2
  -1.09960E+2  -3.60552E+1
  -8.81075E+1  -1.92660E+1
   4.92978E+1  -1.17234E+2
  -5.54900E+1   7.38832E+1
  -1.45509E+2   4.13755E+1
   1.91193E+1  -9.55713E+1
  -7.99238E+1  -8.78916E+1
  -2.20504E+1  -7.13717E+1
  -3.24611E+1   2.25185E+2
  -9.98942E+1   7.36889E-1
  -4.41921E+1  -1.28838E+2
   1.09517E+2  -1.07662E+2
   9.32021E+1   8.65744E+1
   1.38351E+2   1.14756E+2
   1.46895E+2  -1.58040E+2
  -2.86961E+2   7.72276E+1
  -8.07449E+1  -7.16376E+0
  -6.35867E+1   8.45253E+1
  -1.22938E+2  -3.25000E+2
   5.72866E+1   3.13390E+1
  -8.80856E-1   1.78513E+2
  -1.18543E+2   1.33634E+2
  -1.80835E+2   5.18589E+1
  -1.46419E+2  -2.14963E+2
  -1.15953E+2  -1.12240E+2
  -1.41449E+1  -3.48579E+1
   8.56113E+0   7.28929E+1
  -1.64716E+2   1.73341E+2
   7.55455E+1  -7.16067E+0
  -5.53810E+1  -1.47517E+2
   1.57777E+2   1.74033E+1
   1.22884E+2  -2.17407E+2
  -9.33819E+1  -1.24107E+2
  -2.80515E+1  -1.83117E+2
   2.85456E+2   1.30309E+2
   2.36744E+2  -3.27474E+1
  -5.31028E+1   3.81570E+1
   9.67682E+1   1.63147E+2
  -9.36835E+1  -6.12281E+0
   1.26806E+2  -1.50349E+2
   2.72844E+1  -2.72942E+1
   4.96465E+1   6.52522E+1
  -1.32560E+2  -1.74793E+2
   1.52012E+1   7.26196E+1
   1.80857E+2  -1.08586E+2
  -1.40073E+2  -3.75398E+0
  -7.41059E+1  -2.01832E+2
   3.00394E+1  -6.90505E+1
  -4.00666E+1  -9.54457E+1
   2.16558E+2   5.32649E+1
   1.81442E+2   5.48021E-1
   1.12296E+2   2.54408E+1
   4.68288E+1   8.29627E+1
  -7.13616E+1  -8.68231E+1
   2.24215E+2   2.14230E+1
  -1.87783E+2  -2.33417E+2
   8.07985E+0  -1.20725E+2
  -2.59008E+1  -1.63583E+2
   2.33319E+2   1.02904E+2
   7.20473E+1   2.43319E+2
  -2.08079E+2   6.39938E+1
   1.27991E+2  -8.14632E+1
   5.55613E+1  -9.10630E+1
   9.71668E+1   1.38061E+2
  -3.82546E+1   2.78650E+1
  -6.07114E+1  -1.16111E+2
   2.57055E+2  -3.38501E+1
  -2.16197E+1  -6.25380E+1
  -1.69566E+2  -1.27045E+2
  -6.74915E+1  -1.70295E+2
  -2.58710E+2   1.51054E+2
   1.16323E+2  -1.78139E+2
   1.11471E+2  -1.08273E+2
  -4.13867E+0  -3.09211E+1
   9.00153E+1  -1.83671E+1
  -7.16186E+1  -1.91357E+2
  -1.93765E+2  -3.92435E+1
   2.92866E+1   1.31940E+2
   6.38943E+1   1.19566E+1
   2.98063E+1  -4.42584E+1
   1.12036E+1   7.46981E+0
   2.29398E+2   1.12832E+2
  -2.50102E+1   1.08450E+2
   9.00853E+1  -4.38099E+1
  -1.71599E+2  -2.34559E+0
  -4.06742E+1  -1.19725E+2
  -1.09359E+2   1.09685E+2
   7.53468E+1  -9.88506E+1
  -8.59743E+1  -1.57684E+2
