 LCModel (Version 6.3-1N) Copyright: S.W. Provencher.          Ref.: Magn. Reson. Med. 30:672-679 (1993).                
 Slice_N1@9_17  28-Feb-2025 11:44:46
 27 lines in following concentration table = NCONC+1
    Conc.  %SD /Cr+PCr  Metabolite                                         
 2.78E-04   5% 2.6E-04 Mac                                                 
    5.336  37%   5.013 Cr                                                  
    3.180  60%   2.987 PCr                                                 
    7.516  14%   7.061 Ins                                                 
   10.146   8%   9.532 NAA                                                 
    8.651  12%   8.127 Tau                                                 
    2.217  66%   2.083 PCho                                                
    0.455 303%   0.428 GPC                                                 
   11.017  11%  10.350 Glu                                                 
    6.401  15%   6.014 Gln                                                 
    0.000 999%   0.000 Ala                                                 
    2.854  54%   2.681 Asc                                                 
    2.920  36%   2.743 Asp                                                 
    1.641  36%   1.542 GABA                                                
    0.499 147%   0.469 Glc                                                 
    2.251  28%   2.114 GSH                                                 
    0.739 108%   0.694 Lac                                                 
    2.106  36%   1.978 NAAG                                                
    1.588  87%   1.492 PE                                                  
    2.672  14%   2.510 GPC+PCho                                            
   12.252   7%  11.510 NAA+NAAG                                            
   17.419   9%  16.364 Glu+Gln                                             
    8.516   9%   8.000 Cr+PCr                                              
   12.252   7%  11.510 NAA+NAAG                                            
    8.516   9%   8.000 Cr+PCr                                              
   17.419   9%  16.364 Glu+Gln                                             
   6 lines in following misc. output table
  FWHM = 0.041 ppm    S/N =   4                                            
  Data shift = 0.008 ppm                                                   
  Ph:-156 deg       0.0 deg/ppm                                            
  alphaB,S = 1.6E-01,   4.5E+01                                            
   19 spline knots.   Ns = 5(1)                                            
  ( 6) 3 infls.   ( 4) 2 extrs.                                            
  480 points on ppm-axis = NY
      4.100000     4.091866     4.083733     4.075600     4.067466     4.059333     4.051199     4.043066     4.034933     4.026799
      4.018666     4.010532     4.002399     3.994265     3.986132     3.977998     3.969864     3.961731     3.953597     3.945463
      3.937330     3.929196     3.921062     3.912929     3.904795     3.896662     3.888528     3.880394     3.872261     3.864127
      3.855993     3.847860     3.839726     3.831592     3.823459     3.815325     3.807191     3.799058     3.790924     3.782790
      3.774657     3.766523     3.758389     3.750256     3.742122     3.733989     3.725855     3.717721     3.709588     3.701454
      3.693320     3.685187     3.677053     3.668919     3.660786     3.652652     3.644518     3.636385     3.628251     3.620117
      3.611984     3.603850     3.595716     3.587583     3.579449     3.571316     3.563182     3.555048     3.546915     3.538781
      3.530647     3.522514     3.514380     3.506246     3.498113     3.489979     3.481845     3.473712     3.465578     3.457444
      3.449311     3.441177     3.433043     3.424910     3.416776     3.408643     3.400509     3.392375     3.384242     3.376108
      3.367974     3.359841     3.351707     3.343573     3.335440     3.327306     3.319172     3.311039     3.302905     3.294771
      3.286638     3.278504     3.270370     3.262237     3.254103     3.245970     3.237836     3.229702     3.221569     3.213435
      3.205301     3.197168     3.189034     3.180900     3.172767     3.164633     3.156499     3.148366     3.140232     3.132098
      3.123965     3.115831     3.107697     3.099564     3.091430     3.083297     3.075163     3.067029     3.058896     3.050762
      3.042628     3.034495     3.026361     3.018227     3.010094     3.001960     2.993826     2.985693     2.977559     2.969425
      2.961292     2.953158     2.945024     2.936891     2.928757     2.920624     2.912490     2.904356     2.896223     2.888089
      2.879955     2.871822     2.863688     2.855554     2.847421     2.839287     2.831153     2.823020     2.814886     2.806752
      2.798619     2.790485     2.782351     2.774218     2.766084     2.757951     2.749817     2.741683     2.733550     2.725416
      2.717282     2.709149     2.701015     2.692881     2.684748     2.676614     2.668480     2.660347     2.652213     2.644079
      2.635946     2.627812     2.619678     2.611545     2.603411     2.595278     2.587144     2.579010     2.570877     2.562743
      2.554609     2.546476     2.538342     2.530208     2.522075     2.513941     2.505807     2.497674     2.489540     2.481406
      2.473273     2.465139     2.457006     2.448872     2.440738     2.432605     2.424471     2.416337     2.408204     2.400070
      2.391936     2.383803     2.375669     2.367535     2.359402     2.351268     2.343134     2.335001     2.326867     2.318733
      2.310600     2.302466     2.294333     2.286199     2.278065     2.269932     2.261798     2.253664     2.245531     2.237397
      2.229263     2.221130     2.212996     2.204862     2.196729     2.188595     2.180461     2.172328     2.164194     2.156060
      2.147927     2.139793     2.131660     2.123526     2.115392     2.107259     2.099125     2.090991     2.082858     2.074724
      2.066590     2.058457     2.050323     2.042189     2.034056     2.025922     2.017788     2.009655     2.001521     1.993387
      1.985254     1.977120     1.968987     1.960853     1.952719     1.944586     1.936452     1.928318     1.920185     1.912051
      1.903917     1.895784     1.887650     1.879516     1.871383     1.863249     1.855115     1.846982     1.838848     1.830714
      1.822581     1.814447     1.806314     1.798180     1.790046     1.781913     1.773779     1.765645     1.757512     1.749378
      1.741244     1.733111     1.724977     1.716843     1.708710     1.700576     1.692442     1.684309     1.676175     1.668041
      1.659908     1.651774     1.643641     1.635507     1.627373     1.619240     1.611106     1.602972     1.594839     1.586705
      1.578571     1.570438     1.562304     1.554170     1.546037     1.537903     1.529769     1.521636     1.513502     1.505368
      1.497235     1.489101     1.480968     1.472834     1.464700     1.456567     1.448433     1.440299     1.432166     1.424032
      1.415898     1.407765     1.399631     1.391497     1.383364     1.375230     1.367096     1.358963     1.350829     1.342695
      1.334562     1.326428     1.318295     1.310161     1.302027     1.293894     1.285760     1.277626     1.269493     1.261359
      1.253225     1.245092     1.236958     1.228824     1.220691     1.212557     1.204423     1.196290     1.188156     1.180022
      1.171889     1.163755     1.155622     1.147488     1.139354     1.131221     1.123087     1.114953     1.106820     1.098686
      1.090552     1.082419     1.074285     1.066151     1.058018     1.049884     1.041750     1.033617     1.025483     1.017349
      1.009216     1.001082     0.992949     0.984815     0.976681     0.968548     0.960414     0.952280     0.944147     0.936013
      0.927879     0.919746     0.911612     0.903478     0.895345     0.887211     0.879077     0.870944     0.862810     0.854676
      0.846543     0.838409     0.830276     0.822142     0.814008     0.805875     0.797741     0.789607     0.781474     0.773340
      0.765206     0.757073     0.748939     0.740805     0.732672     0.724538     0.716404     0.708271     0.700137     0.692003
      0.683870     0.675736     0.667603     0.659469     0.651335     0.643202     0.635068     0.626934     0.618801     0.610667
      0.602533     0.594400     0.586266     0.578132     0.569999     0.561865     0.553731     0.545598     0.537464     0.529330
      0.521197     0.513063     0.504930     0.496796     0.488662     0.480529     0.472395     0.464261     0.456128     0.447994
      0.439861     0.431727     0.423593     0.415460     0.407326     0.399192     0.391059     0.382925     0.374792     0.366658
      0.358524     0.350391     0.342257     0.334124     0.325990     0.317856     0.309723     0.301589     0.293455     0.285322
      0.277188     0.269055     0.260921     0.252787     0.244654     0.236520     0.228386     0.220253     0.212119     0.203986
 NY phased data points follow
  -1.46900E+01 -7.36726E+00  2.11298E+00 -3.49493E+01 -2.36928E+01 -3.56603E+01 -8.76731E+00 -4.12386E+00 -4.10322E+01 -2.02845E+01
  -1.88252E+01 -3.18970E+01 -4.94643E+01 -4.12282E+01 -4.16605E+01 -4.26078E+01 -4.60409E+01 -5.05842E+01 -5.82206E+01 -6.90070E+01
  -4.39282E+01 -5.08324E+01 -3.78514E+01 -1.12868E+01 -8.08485E+00 -4.15287E+00  9.54106E+00  2.80078E+01  2.43606E+01  1.88343E+01
   3.06405E+01  3.20774E+01  7.59168E+00  1.88846E+01  2.78471E+00 -6.25368E+00  5.94615E-01 -2.66951E+01 -2.76930E+01 -4.19512E+01
  -4.24995E+01 -6.86564E+01 -6.71891E+01 -1.26783E+01  2.29559E+00  3.28915E+01  5.33404E+01  5.45602E+01  7.23928E+01  7.20640E+01
   4.53622E+01  4.40993E+01  3.83055E+01  3.60574E+01  3.90719E+01  2.50769E+01  2.49815E+01  4.97195E+00  7.09012E+00  1.69150E+01
   1.20395E+01  2.99340E+01  5.10911E+01  4.17488E+01  3.31545E+01  5.42566E+01  5.14476E+01  2.56930E+01 -9.83913E-01 -7.85455E+00
  -5.55165E+00 -5.73987E+00  9.92242E+00  5.29940E+01  5.86308E+01  6.64953E+01  8.25847E+01  5.10286E+01  6.92202E+01  5.89409E+01
   6.29057E+01  4.84338E+01  1.37070E+01  4.16572E+01  2.75455E+01  3.19948E+01  1.81785E+01  5.38333E+01  6.17686E+01  4.81854E+01
   1.04889E+02  8.38059E+01  9.24957E+01  1.01667E+02  1.03328E+02  9.85871E+01  7.83488E+01  8.33741E+01  8.45600E+01  8.54546E+01
   6.35315E+01  6.60671E+01  4.09834E+01  2.11958E+01  6.73495E+00 -2.03756E+01 -2.78788E+01 -6.81618E+01 -9.34669E+01 -1.00938E+02
  -1.17025E+02 -1.39836E+02 -1.21826E+02 -8.99777E+01 -6.72954E+01 -3.79420E+01 -2.45067E+01 -1.16587E+01 -8.12634E+00  2.18247E+00
   7.77789E+00  6.49293E+00  1.86455E+01  4.38741E+01  3.84487E+01  3.30587E+01  6.84468E+01  6.81550E+01  6.22116E+01  9.18022E+01
   9.74703E+01  6.23072E+01  3.40606E+01 -2.58033E+01 -9.52421E+01 -9.96890E+01 -6.63963E+01 -5.40492E+01 -6.66501E+01 -5.40794E+01
  -5.68548E+01 -5.80109E+01 -6.06184E+01 -5.45495E+01 -4.84368E+01 -6.58959E+01 -5.29550E+01 -7.06378E+01 -5.62380E+01 -4.11403E+01
  -4.51209E+01 -3.04157E+01 -3.83951E+01 -1.57624E+01 -3.36960E+01 -2.99073E+01 -8.05375E+00 -1.00080E+01  7.54988E-01 -2.28703E+01
  -7.95161E+00 -2.85288E+00 -6.22651E+00 -4.83168E+00 -1.81665E+01 -1.16846E+01 -1.57081E+01 -2.47274E+00 -8.47606E+00 -7.26806E-01
   8.55507E+00 -2.56718E-01  2.76621E+01  1.90959E+01  1.25149E+01  3.99799E+00 -7.65375E+00  1.10833E+01 -3.12141E+00 -9.34772E+00
  -2.39655E+01 -3.77545E+01 -1.92304E+01 -3.17672E+01 -4.85454E+01 -4.45857E+01 -2.64830E+01 -1.97363E+01 -1.01910E+01  2.90082E+00
  -1.98701E+01 -2.80851E+01 -1.91649E+01 -2.56814E+00 -2.30264E+00 -1.43151E+01 -9.73500E+00 -1.44095E+01 -4.62142E+00  4.25132E+00
  -2.02771E+00  1.34755E+01  2.84171E+01  1.06928E+01  2.67866E+01  2.21242E+01 -6.44675E+00  2.97849E+00 -2.39320E+01 -1.81626E+01
  -2.20973E+01 -3.39974E+01  4.84429E+00  2.57703E+01  3.89525E+01  5.73344E+01  8.23274E+01  6.77968E+01  6.41609E+01  5.48031E+01
   2.72566E+01  1.76498E+01 -4.63586E+00  2.18670E+00  9.05779E+00  4.10710E+00  6.39567E-01  1.01853E+01  8.76124E+00 -2.55338E+00
  -1.23902E+01 -2.68517E+01 -2.78103E+01 -2.90341E+01 -2.48832E+01 -4.17986E+01 -5.51435E+01 -6.02776E+01 -6.18711E+01 -7.42862E+01
  -6.60931E+01 -3.38837E+01 -2.07097E+01  5.99669E+00  7.78131E+00  1.56602E+01  3.04463E+00  1.28031E+00 -3.03439E+00 -2.45977E+01
   7.47985E-01 -1.51124E+01 -1.53913E+01 -2.48327E+01 -3.03637E+01 -9.93984E+00  6.06032E+00  6.23550E+01  1.07713E+02  1.75079E+02
   2.04451E+02  1.63109E+02  1.42540E+02  1.13572E+02  9.64611E+01  1.01305E+02  6.76446E+01  8.05403E+01  8.75405E+01  6.16532E+01
   8.56111E+01  5.45908E+01  4.65128E+01  7.48306E+01  6.73247E+01  6.82003E+01  5.71196E+01  5.87966E+01  6.61741E+01  5.51733E+01
   6.21777E+01  7.69229E+01  6.55959E+01  6.40501E+01  6.39880E+01  5.72628E+01  6.60889E+01  7.12740E+01  5.81174E+01  5.99891E+01
   7.68558E+01  6.69262E+01  7.25003E+01  8.13893E+01  7.97224E+01  7.55900E+01  8.20234E+01  9.28118E+01  9.11542E+01  1.16740E+02
   1.15340E+02  9.47024E+01  1.01767E+02  1.02852E+02  9.66320E+01  1.06046E+02  1.00523E+02  1.05653E+02  1.35259E+02  1.17965E+02
   1.10286E+02  1.30310E+02  1.36509E+02  1.25470E+02  1.03882E+02  1.07467E+02  1.15083E+02  9.84624E+01  8.75999E+01  8.01907E+01
   7.86614E+01  9.60925E+01  9.50908E+01  7.80562E+01  7.28705E+01  9.27031E+01  8.60243E+01  7.01051E+01  8.24762E+01  7.49392E+01
   6.15352E+01  6.04400E+01  5.70213E+01  5.34652E+01  5.14690E+01  2.41446E+01  5.08588E+01  6.68399E+01  4.78133E+01  6.50413E+01
   4.63444E+01  8.25209E+01  9.84262E+01  7.83227E+01  7.28612E+01  6.05097E+01  8.00688E+01  7.16956E+01  6.97119E+01  5.83823E+01
   7.62531E+01  8.52625E+01  7.08112E+01  6.27066E+01  3.89330E+01  6.03578E+01  3.97638E+01  4.13161E+01  4.48992E+01  2.51388E+01
   3.67761E+01  3.72132E+01  4.64298E+01  3.07680E+01  4.73053E+01  5.49798E+01  4.63990E+01  5.39111E+01  6.22403E+01  7.29260E+01
   5.79941E+01  7.58933E+01  7.50287E+01  8.27632E+01  8.32132E+01  7.27167E+01  9.82997E+01  9.53043E+01  1.10695E+02  1.11483E+02
   1.13362E+02  1.28212E+02  1.35321E+02  1.33917E+02  1.32214E+02  1.61132E+02  1.60980E+02  1.67792E+02  1.50642E+02  1.14916E+02
   1.21251E+02  1.25570E+02  1.03635E+02  7.86618E+01  7.16544E+01  6.15046E+01  5.88410E+01  4.93132E+01  5.19447E+01  4.36316E+01
   2.52205E+01  5.57583E+00 -1.62129E+01  1.64125E-01 -5.34578E+00 -2.29481E+01 -1.45317E+01  3.23627E+00 -1.87287E+01 -2.60516E+01
  -2.07173E+01 -1.66292E+01 -9.43597E+00 -2.55998E+01  2.86459E+00 -1.75727E+01 -2.20014E+01 -1.40077E+01 -2.75127E+01  5.57296E+00
  -1.06837E+01 -2.12158E+01  4.11371E+00  4.25364E-01 -2.38200E+01 -2.58034E+00 -3.32321E+00  2.69242E+00  6.46850E+00 -1.13970E+01
   8.76851E+00  1.13425E-01  1.82014E+01 -1.33516E+01 -2.10156E+01  1.39217E+00 -5.19146E+00  6.48929E+00 -2.14768E+01 -7.98653E+00
  -1.83576E+01 -3.10444E+01 -1.15420E+01 -5.55892E+00 -2.48116E-01  7.75214E+00 -4.04799E+00 -1.06793E+01 -8.43150E-01 -2.27929E+01
  -6.73838E-01 -6.98417E+00 -2.90356E+00  2.33804E+00 -1.63580E+01 -4.26782E+00 -6.70862E+00  3.21315E+00 -1.70137E+01  4.98624E+00
   2.04969E+01 -5.60686E+00 -1.81726E+01 -3.83741E+00  1.35806E+01  2.57015E-01  8.39626E+00 -4.24522E+00  8.12259E+00  1.69755E+00
  -5.84921E+00  5.62200E+00  2.10528E+00  1.23595E+01 -7.65218E-01  1.25272E+01  6.54473E+00 -4.78382E+00  6.29722E+00  7.14588E+00
 NY points of the fit to the data follow
  -3.17874E+01 -3.54307E+01 -3.73696E+01 -3.64345E+01 -3.22633E+01 -2.57925E+01 -1.94996E+01 -1.61718E+01 -1.75452E+01 -2.28343E+01
  -2.88995E+01 -3.27965E+01 -3.41240E+01 -3.41285E+01 -3.37668E+01 -3.41271E+01 -3.58445E+01 -3.92478E+01 -4.49350E+01 -5.00515E+01
  -5.14885E+01 -4.63134E+01 -3.30297E+01 -1.34134E+01  8.15444E+00  2.68339E+01  3.88341E+01  4.32952E+01  4.19474E+01  3.86747E+01
   3.69014E+01  3.44127E+01  3.10433E+01  2.69361E+01  2.15089E+01  1.32815E+01  8.61196E-01 -1.50844E+01 -3.26015E+01 -4.79354E+01
  -5.59356E+01 -5.25414E+01 -3.72282E+01 -1.38494E+01  1.05163E+01  2.96525E+01  4.14306E+01  4.74770E+01  4.99044E+01  4.89144E+01
   4.53520E+01  3.96459E+01  3.21771E+01  2.35097E+01  1.43104E+01  6.69984E+00  1.97931E+00  1.69829E-01  1.54028E+00  5.43112E+00
   1.14514E+01  1.98262E+01  2.96767E+01  3.88727E+01  4.40970E+01  4.43878E+01  4.00189E+01  2.99233E+01  1.77478E+01  8.99812E+00
   6.40391E+00  1.12297E+01  2.18142E+01  3.43307E+01  4.56378E+01  5.49224E+01  6.19984E+01  6.52426E+01  6.22034E+01  5.42609E+01
   4.19511E+01  2.66092E+01  1.14803E+01  6.39880E-01 -2.56186E+00  2.95209E+00  1.52116E+01  3.03145E+01  4.44790E+01  5.47159E+01
   6.20170E+01  6.66971E+01  7.08828E+01  7.50758E+01  7.89110E+01  8.25313E+01  8.61777E+01  8.91538E+01  9.03634E+01  8.93089E+01
   8.35717E+01  7.31433E+01  5.86818E+01  4.28374E+01  2.51041E+01  5.19018E+00 -1.65060E+01 -4.17208E+01 -7.06270E+01 -9.87424E+01
  -1.18593E+02 -1.22289E+02 -1.05082E+02 -7.63441E+01 -4.99572E+01 -3.48850E+01 -2.56122E+01 -1.70884E+01 -8.85095E+00 -6.20558E-01
   7.93144E+00  1.70579E+01  2.65817E+01  3.59960E+01  4.49582E+01  5.38982E+01  6.48087E+01  7.72070E+01  8.64907E+01  8.90426E+01
   8.03482E+01  5.66953E+01  1.91191E+01 -2.50784E+01 -6.26322E+01 -8.12750E+01 -7.94446E+01 -6.78492E+01 -5.99201E+01 -5.78546E+01
  -5.64597E+01 -5.54723E+01 -5.49881E+01 -5.43853E+01 -5.32541E+01 -5.13088E+01 -4.88356E+01 -4.61086E+01 -4.34589E+01 -4.09979E+01
  -3.86583E+01 -3.63448E+01 -3.36944E+01 -3.08555E+01 -2.81222E+01 -2.58967E+01 -2.41796E+01 -2.28598E+01 -2.17797E+01 -2.06590E+01
  -1.93634E+01 -1.82025E+01 -1.78439E+01 -1.86556E+01 -2.01614E+01 -2.12306E+01 -2.07901E+01 -1.82159E+01 -1.38650E+01 -8.22672E+00
  -1.71923E+00  4.49078E+00  9.08235E+00  1.11590E+01  1.06050E+01  8.84724E+00  7.29957E+00  5.62511E+00  1.77554E+00 -5.77373E+00
  -1.53626E+01 -2.34318E+01 -2.79361E+01 -2.92098E+01 -2.90832E+01 -2.87267E+01 -2.79098E+01 -2.69847E+01 -2.60378E+01 -2.43628E+01
  -2.17181E+01 -1.82978E+01 -1.41262E+01 -9.48808E+00 -4.79614E+00 -8.11741E-01  1.64203E+00  2.78037E+00  3.62743E+00  5.46057E+00
   8.26091E+00  1.10741E+01  1.38948E+01  1.63031E+01  1.65500E+01  1.31056E+01  5.87147E+00 -3.15467E+00 -1.15275E+01 -1.80841E+01
  -2.00763E+01 -1.61220E+01 -5.68450E+00  1.02045E+01  2.82582E+01  4.45675E+01  5.56064E+01  5.93264E+01  5.65347E+01  4.99869E+01
   4.29316E+01  3.85133E+01  3.58948E+01  3.47493E+01  3.28562E+01  2.79291E+01  1.99375E+01  9.40286E+00 -2.62879E+00 -1.50418E+01
  -2.70172E+01 -3.79888E+01 -4.73697E+01 -5.51119E+01 -6.06727E+01 -6.40995E+01 -6.54017E+01 -6.42300E+01 -6.08844E+01 -5.48643E+01
  -4.63790E+01 -3.56534E+01 -2.35284E+01 -1.19575E+01 -2.42929E+00  3.55203E+00  5.06475E+00  3.12288E+00 -9.15169E-01 -4.90837E+00
  -8.09574E+00 -1.37053E+01 -2.01656E+01 -2.31307E+01 -1.94546E+01 -5.18243E+00  2.15011E+01  5.99395E+01  1.04290E+02  1.42111E+02
   1.59716E+02  1.53414E+02  1.36013E+02  1.23593E+02  1.17475E+02  1.12341E+02  1.07489E+02  1.03078E+02  9.95236E+01  9.69584E+01
   9.55750E+01  9.53038E+01  9.59374E+01  9.71120E+01  9.84641E+01  9.95474E+01  1.00161E+02  1.00060E+02  9.93054E+01  9.79983E+01
   9.62243E+01  9.43510E+01  9.23597E+01  9.02954E+01  8.80435E+01  8.55740E+01  8.28378E+01  7.98282E+01  7.65580E+01  7.31737E+01
   6.99826E+01  6.73476E+01  6.55932E+01  6.49472E+01  6.54667E+01  6.70442E+01  6.93891E+01  7.21198E+01  7.49862E+01  7.78293E+01
   8.05861E+01  8.32311E+01  8.57624E+01  8.81667E+01  9.05206E+01  9.29022E+01  9.53201E+01  9.77170E+01  9.99689E+01  1.01933E+02
   1.03558E+02  1.04837E+02  1.05757E+02  1.06233E+02  1.06145E+02  1.05408E+02  1.04007E+02  1.02025E+02  9.95034E+01  9.64971E+01
   9.30117E+01  8.89329E+01  8.40365E+01  7.81758E+01  7.13170E+01  6.35758E+01  5.53412E+01  4.73300E+01  4.03872E+01  3.52492E+01
   3.23394E+01  3.16957E+01  3.31084E+01  3.61084E+01  3.99966E+01  4.40860E+01  4.78689E+01  5.10104E+01  5.36278E+01  5.56989E+01
   5.72142E+01  5.81346E+01  5.84618E+01  5.83907E+01  5.82893E+01  5.84095E+01  5.86653E+01  5.85390E+01  5.74896E+01  5.53364E+01
   5.19699E+01  4.81068E+01  4.43491E+01  4.12572E+01  3.92942E+01  3.87045E+01  3.94409E+01  4.12278E+01  4.37183E+01  4.66617E+01
   4.98575E+01  5.30660E+01  5.61783E+01  5.91214E+01  6.18682E+01  6.44888E+01  6.70503E+01  6.96339E+01  7.23077E+01  7.51106E+01
   7.80900E+01  8.13287E+01  8.49719E+01  8.91324E+01  9.38150E+01  9.90096E+01  1.04703E+02  1.10855E+02  1.17425E+02  1.24255E+02
   1.31004E+02  1.37155E+02  1.42025E+02  1.44708E+02  1.44363E+02  1.40626E+02  1.33725E+02  1.24459E+02  1.14058E+02  1.03817E+02
   9.45666E+01  8.64698E+01  7.91040E+01  7.17424E+01  6.39304E+01  5.55340E+01  4.68300E+01  3.83130E+01  3.06320E+01  2.42191E+01
   1.91907E+01  1.54222E+01  1.26690E+01  1.05997E+01  8.93453E+00  7.55125E+00  6.33750E+00  5.23982E+00  4.24844E+00  3.46332E+00
   2.90684E+00  2.52681E+00  2.20406E+00  1.88542E+00  1.56266E+00  1.25475E+00  9.81936E-01  7.40465E-01  5.30790E-01  3.67831E-01
   2.11897E-01 -1.06666E-02 -2.91417E-01 -5.35653E-01 -6.82803E-01 -7.87139E-01 -8.82180E-01 -9.42153E-01 -1.01644E+00 -1.16261E+00
  -1.42032E+00 -1.70389E+00 -1.90726E+00 -1.97969E+00 -1.95566E+00 -1.87955E+00 -1.81226E+00 -1.81185E+00 -1.88432E+00 -2.03609E+00
  -2.22800E+00 -2.45236E+00 -2.67126E+00 -2.86052E+00 -2.98092E+00 -3.03039E+00 -3.02633E+00 -3.03453E+00 -3.09325E+00 -3.16823E+00
  -3.22663E+00 -3.23179E+00 -3.17804E+00 -3.10085E+00 -3.02340E+00 -3.00017E+00 -3.03077E+00 -3.08405E+00 -3.17009E+00 -3.29580E+00
  -3.44734E+00 -3.59646E+00 -3.67925E+00 -3.64273E+00 -3.48981E+00 -3.28645E+00 -3.13311E+00 -3.08630E+00 -3.18351E+00 -3.42195E+00
  -3.70117E+00 -3.89968E+00 -3.98137E+00 -3.97882E+00 -3.96765E+00 -3.99396E+00 -4.02925E+00 -3.99187E+00 -3.81316E+00 -3.43420E+00
 NY background values follow
     2.393E+00    2.602E+00    2.813E+00    3.023E+00    3.235E+00    3.446E+00    3.659E+00    3.871E+00    4.085E+00    4.299E+00
     4.513E+00    4.729E+00    4.945E+00    5.161E+00    5.379E+00    5.597E+00    5.817E+00    6.037E+00    6.258E+00    6.479E+00
     6.702E+00    6.926E+00    7.151E+00    7.377E+00    7.604E+00    7.832E+00    8.061E+00    8.292E+00    8.523E+00    8.756E+00
     8.990E+00    9.226E+00    9.462E+00    9.700E+00    9.938E+00    1.018E+01    1.042E+01    1.065E+01    1.089E+01    1.113E+01
     1.137E+01    1.161E+01    1.184E+01    1.208E+01    1.231E+01    1.255E+01    1.278E+01    1.301E+01    1.323E+01    1.346E+01
     1.368E+01    1.390E+01    1.412E+01    1.433E+01    1.454E+01    1.475E+01    1.495E+01    1.515E+01    1.534E+01    1.554E+01
     1.572E+01    1.590E+01    1.608E+01    1.625E+01    1.642E+01    1.659E+01    1.674E+01    1.690E+01    1.705E+01    1.719E+01
     1.733E+01    1.747E+01    1.760E+01    1.773E+01    1.785E+01    1.797E+01    1.808E+01    1.819E+01    1.830E+01    1.840E+01
     1.849E+01    1.859E+01    1.867E+01    1.876E+01    1.883E+01    1.891E+01    1.898E+01    1.904E+01    1.910E+01    1.916E+01
     1.921E+01    1.926E+01    1.931E+01    1.935E+01    1.938E+01    1.941E+01    1.944E+01    1.947E+01    1.949E+01    1.951E+01
     1.953E+01    1.955E+01    1.956E+01    1.957E+01    1.958E+01    1.959E+01    1.959E+01    1.960E+01    1.960E+01    1.960E+01
     1.960E+01    1.960E+01    1.960E+01    1.960E+01    1.960E+01    1.960E+01    1.960E+01    1.960E+01    1.961E+01    1.961E+01
     1.961E+01    1.962E+01    1.962E+01    1.963E+01    1.963E+01    1.964E+01    1.965E+01    1.966E+01    1.967E+01    1.968E+01
     1.969E+01    1.970E+01    1.972E+01    1.973E+01    1.974E+01    1.976E+01    1.977E+01    1.979E+01    1.980E+01    1.982E+01
     1.983E+01    1.985E+01    1.986E+01    1.988E+01    1.989E+01    1.991E+01    1.992E+01    1.993E+01    1.995E+01    1.996E+01
     1.998E+01    1.999E+01    2.000E+01    2.001E+01    2.003E+01    2.004E+01    2.005E+01    2.006E+01    2.007E+01    2.008E+01
     2.009E+01    2.010E+01    2.011E+01    2.012E+01    2.013E+01    2.014E+01    2.015E+01    2.015E+01    2.016E+01    2.017E+01
     2.018E+01    2.019E+01    2.020E+01    2.021E+01    2.022E+01    2.023E+01    2.024E+01    2.025E+01    2.026E+01    2.026E+01
     2.028E+01    2.029E+01    2.030E+01    2.031E+01    2.032E+01    2.033E+01    2.034E+01    2.036E+01    2.037E+01    2.038E+01
     2.040E+01    2.042E+01    2.043E+01    2.045E+01    2.047E+01    2.049E+01    2.052E+01    2.054E+01    2.056E+01    2.059E+01
     2.062E+01    2.065E+01    2.068E+01    2.071E+01    2.075E+01    2.078E+01    2.082E+01    2.086E+01    2.091E+01    2.095E+01
     2.100E+01    2.105E+01    2.110E+01    2.115E+01    2.121E+01    2.127E+01    2.133E+01    2.139E+01    2.146E+01    2.153E+01
     2.160E+01    2.167E+01    2.174E+01    2.182E+01    2.190E+01    2.198E+01    2.207E+01    2.215E+01    2.224E+01    2.233E+01
     2.243E+01    2.252E+01    2.262E+01    2.272E+01    2.283E+01    2.293E+01    2.304E+01    2.315E+01    2.326E+01    2.338E+01
     2.350E+01    2.362E+01    2.374E+01    2.387E+01    2.399E+01    2.413E+01    2.426E+01    2.440E+01    2.454E+01    2.468E+01
     2.483E+01    2.499E+01    2.514E+01    2.530E+01    2.547E+01    2.564E+01    2.581E+01    2.599E+01    2.617E+01    2.636E+01
     2.656E+01    2.675E+01    2.696E+01    2.717E+01    2.738E+01    2.760E+01    2.783E+01    2.806E+01    2.830E+01    2.855E+01
     2.880E+01    2.906E+01    2.932E+01    2.959E+01    2.987E+01    3.014E+01    3.043E+01    3.072E+01    3.101E+01    3.130E+01
     3.160E+01    3.190E+01    3.220E+01    3.250E+01    3.281E+01    3.311E+01    3.342E+01    3.372E+01    3.403E+01    3.433E+01
     3.464E+01    3.494E+01    3.524E+01    3.554E+01    3.583E+01    3.613E+01    3.641E+01    3.670E+01    3.698E+01    3.726E+01
     3.753E+01    3.780E+01    3.806E+01    3.831E+01    3.856E+01    3.880E+01    3.904E+01    3.927E+01    3.949E+01    3.970E+01
     3.991E+01    4.011E+01    4.030E+01    4.048E+01    4.065E+01    4.082E+01    4.097E+01    4.112E+01    4.125E+01    4.138E+01
     4.149E+01    4.160E+01    4.169E+01    4.177E+01    4.184E+01    4.190E+01    4.195E+01    4.198E+01    4.200E+01    4.201E+01
     4.201E+01    4.199E+01    4.196E+01    4.191E+01    4.186E+01    4.179E+01    4.171E+01    4.162E+01    4.152E+01    4.140E+01
     4.128E+01    4.114E+01    4.099E+01    4.083E+01    4.067E+01    4.049E+01    4.030E+01    4.010E+01    3.990E+01    3.968E+01
     3.946E+01    3.922E+01    3.898E+01    3.873E+01    3.847E+01    3.821E+01    3.793E+01    3.765E+01    3.736E+01    3.707E+01
     3.676E+01    3.646E+01    3.614E+01    3.582E+01    3.549E+01    3.516E+01    3.482E+01    3.448E+01    3.413E+01    3.377E+01
     3.341E+01    3.305E+01    3.268E+01    3.231E+01    3.193E+01    3.155E+01    3.116E+01    3.077E+01    3.038E+01    2.998E+01
     2.958E+01    2.918E+01    2.878E+01    2.837E+01    2.796E+01    2.755E+01    2.713E+01    2.672E+01    2.630E+01    2.588E+01
     2.546E+01    2.504E+01    2.462E+01    2.419E+01    2.377E+01    2.335E+01    2.292E+01    2.250E+01    2.207E+01    2.165E+01
     2.123E+01    2.081E+01    2.039E+01    1.997E+01    1.955E+01    1.913E+01    1.872E+01    1.831E+01    1.790E+01    1.749E+01
     1.708E+01    1.668E+01    1.628E+01    1.589E+01    1.550E+01    1.511E+01    1.472E+01    1.434E+01    1.397E+01    1.359E+01
     1.323E+01    1.286E+01    1.251E+01    1.215E+01    1.180E+01    1.146E+01    1.112E+01    1.078E+01    1.045E+01    1.012E+01
     9.799E+00    9.479E+00    9.163E+00    8.852E+00    8.544E+00    8.239E+00    7.939E+00    7.642E+00    7.348E+00    7.058E+00
     6.772E+00    6.488E+00    6.209E+00    5.932E+00    5.658E+00    5.388E+00    5.121E+00    4.856E+00    4.595E+00    4.336E+00
     4.080E+00    3.827E+00    3.576E+00    3.328E+00    3.082E+00    2.839E+00    2.597E+00    2.358E+00    2.120E+00    1.884E+00
     1.650E+00    1.418E+00    1.187E+00    9.573E-01    7.290E-01    5.017E-01    2.756E-01    5.033E-02   -1.741E-01   -3.978E-01
    -6.209E-01   -8.435E-01   -1.066E+00   -1.288E+00   -1.509E+00   -1.731E+00   -1.953E+00   -2.175E+00   -2.397E+00   -2.620E+00
 Mac      Conc. = 2.78E-04
  -1.84006E+01 -1.87291E+01 -1.92634E+01 -2.01274E+01 -2.12911E+01 -2.25855E+01 -2.37893E+01 -2.46952E+01 -2.52389E+01 -2.55231E+01
  -2.58031E+01 -2.62104E+01 -2.66313E+01 -2.67961E+01 -2.62393E+01 -2.44947E+01 -2.14580E+01 -1.74436E+01 -1.32283E+01 -9.57247E+00
  -6.82846E+00 -4.81087E+00 -3.13236E+00 -1.59743E+00 -7.17113E-02  1.66317E+00  3.57932E+00  5.42379E+00  6.99772E+00  8.16449E+00
   8.92994E+00  9.41694E+00  9.89966E+00  1.06063E+01  1.16597E+01  1.30912E+01  1.47693E+01  1.63833E+01  1.76266E+01  1.84221E+01
   1.89960E+01  1.96893E+01  2.06174E+01  2.15133E+01  2.19795E+01  2.18297E+01  2.11543E+01  2.01896E+01  1.91990E+01  1.83495E+01
   1.77263E+01  1.74463E+01  1.75223E+01  1.79459E+01  1.87220E+01  1.98657E+01  2.12612E+01  2.27076E+01  2.39748E+01  2.48689E+01
   2.53134E+01  2.53359E+01  2.49760E+01  2.43579E+01  2.37849E+01  2.35770E+01  2.38663E+01  2.46848E+01  2.60466E+01  2.77994E+01
   2.97444E+01  3.14915E+01  3.26435E+01  3.30332E+01  3.28174E+01  3.22778E+01  3.16335E+01  3.10442E+01  3.06560E+01  3.05715E+01
   3.07702E+01  3.12691E+01  3.19792E+01  3.28333E+01  3.37243E+01  3.45199E+01  3.51665E+01  3.56915E+01  3.60923E+01  3.62906E+01
   3.62170E+01  3.57402E+01  3.47732E+01  3.32613E+01  3.13134E+01  2.90769E+01  2.67460E+01  2.44825E+01  2.22659E+01  1.98737E+01
   1.69510E+01  1.32219E+01  8.63892E+00  3.48305E+00 -1.68210E+00 -6.16457E+00 -9.24607E+00 -1.04047E+01 -9.63409E+00 -7.46025E+00
