 
 $NMID
 ID=''
 FMTDAT='(2E13.5)'
 TRAMP=   1.00000E+0
 VOLUME=   1.00000E+0
 $END
   1.82985E+4   1.80068E+4
   3.97480E+4   6.27079E+3
   1.83125E+4  -3.62753E+4
  -3.57163E+4  -1.17148E+4
  -2.13232E+4   3.37878E+4
   2.97556E+4   1.51299E+4
   2.08735E+4  -2.18563E+4
  -1.80962E+4  -1.08649E+4
  -1.61788E+4   1.50481E+4
   7.49516E+3   1.34226E+4
   1.12034E+4  -3.81381E+3
  -2.26530E+3  -1.01264E+4
  -9.47904E+3   6.76962E+1
  -1.58584E+3   5.43695E+3
   6.35975E+3  -1.39243E+3
   3.21620E+3  -4.04194E+3
  -1.91318E+3   7.42933E+2
  -1.73196E+3   1.29302E+3
   1.21306E+3   5.53823E+2
   2.07043E+3   1.25880E+3
   5.69165E+2  -1.39997E+3
  -6.26314E+2  -2.33928E+3
  -4.05454E+2   1.94058E+3
  -9.59170E+2   2.39316E+3
  -1.50141E+2  -1.05732E+3
   2.68743E+3  -9.88444E+2
   4.24586E+2   1.16545E+3
  -3.93737E+3   5.15123E+2
  -1.71287E+3  -1.48345E+3
   2.06738E+3  -1.68021E+2
   7.26129E+2   1.38866E+3
  -1.86192E+3  -3.12947E+2
  -2.10492E+3  -2.30982E+3
  -7.05979E+2  -1.24396E+3
   1.63207E+3  -2.55274E+2
   2.20698E+3  -2.24937E+1
  -3.02872E+2   9.51103E+2
  -1.94570E+3   1.16898E+3
  -2.13861E+2   4.34229E+2
   5.02282E+2  -5.48319E+1
  -1.19781E+3  -6.49226E+2
  -9.70542E+2  -8.82364E+2
   1.25940E+3   1.50646E+2
   1.80652E+3   2.75001E+2
   6.33257E+2   1.54798E+2
  -3.67979E+2   1.52312E+3
  -1.49214E+3   1.97038E+3
  -1.53054E+3  -3.25091E+2
  -4.16889E+2  -2.19869E+3
   3.52910E+2  -9.45815E+2
   2.24829E+2  -2.57424E+2
   6.55903E+2  -6.39170E+2
   6.81195E+2  -1.18148E+2
   2.12769E+2   7.29528E+2
  -2.54830E+2   6.37043E+2
  -1.57646E+2  -8.03140E+1
  -8.71567E+2  -8.07457E+1
  -3.29679E+2  -6.07009E+2
   1.38960E+3  -7.33616E+2
   1.65981E+3  -1.73821E+2
   3.80318E+2   8.32215E+2
  -4.87988E+2   8.44549E+2
  -2.52923E+2   7.24454E+2
  -9.42753E+2   3.75372E+2
  -1.87140E+3  -4.49643E+2
  -1.16299E+3  -1.64741E+3
   6.03817E+2  -1.79040E+3
   1.56302E+3  -8.01662E+2
   7.03251E+2   5.56183E+2
  -5.32181E+2   3.11581E+2
  -3.20014E+2  -5.84664E+2
   6.21689E+2  -4.96471E+2
   8.31184E+2   5.49450E+2
  -3.37593E+2   8.39906E+2
  -5.24727E+2   4.61275E+1
  -6.85866E+1  -2.25616E+2
   3.32158E+2   3.14099E+2
  -1.69337E+2   2.93322E+2
  -6.65975E+2   2.37874E+2
  -7.54984E+2  -1.76852E+1
  -7.32600E+2  -1.73995E+2
  -3.09668E+2  -6.01850E+2
   1.86766E+2  -4.32437E+2
  -2.02836E+1   1.83319E+2
  -3.14308E+2  -2.52110E+2
  -1.07768E+1  -6.49352E+2
   5.18316E+2   2.20343E+2
   4.16651E+2   8.36371E+2
  -2.84620E+2   3.39726E+2
   8.78198E+1  -8.10237E+1
   5.19710E+2   6.44147E+2
   7.96719E+1   1.03885E+3
  -7.49922E+2   9.25975E+2
  -9.20723E+2   1.91525E+2
  -2.39263E+2  -3.71057E+2
   5.10747E+2  -5.96972E+2
   4.19356E+2  -4.07244E+1
   1.27650E+2   2.17159E+2
   1.63076E+2   8.54515E+1
   6.82774E+2  -7.46585E+1
   7.23795E+2   5.19789E+2
   3.12062E+2   6.79774E+2
  -2.23109E+2   4.04386E+2
  -4.21594E+2  -4.16269E+2
   3.55604E+2  -3.67445E+2
   1.03715E+3   6.56048E+2
   1.29850E+2   1.27557E+3
  -8.43539E+2   2.50955E+2
  -3.39747E+2  -9.61821E+2
   1.10184E+3  -9.76013E+2
   1.23288E+3   1.06841E+2
   6.05872E+2   5.47100E+2
   1.98848E+2   2.94728E+2
   3.01534E+2   3.04253E+2
   1.85839E+2   3.98216E+2
  -1.14449E+2   5.29386E+2
  -5.84998E+2   6.30889E+1
  -6.32249E+2  -4.93212E+2
  -4.38109E+1  -8.84893E+2
   5.86567E+2  -7.59282E+2
   6.76243E+2  -1.32959E+2
   7.26201E+2   4.75309E+2
   2.38864E+2   2.94803E+2
   2.47548E+2   5.10290E+2
  -1.60199E+2  -5.50677E+0
  -7.49327E+1  -8.70993E+1
  -2.77165E+1  -4.45194E+2
   2.34015E+2  -3.85375E+2
   3.34689E+2   1.10672E+2
   3.07845E+2   3.06952E+2
  -1.76783E+2   6.60542E+2
  -5.47046E+2   1.09427E+1
  -6.18944E+0  -4.11795E+2
   2.97697E+2  -1.79027E+2
   9.63249E+1  -8.80424E+1
  -1.01980E+2  -3.28642E+2
   4.83936E+2  -1.17092E+2
   5.13712E+2   1.03872E+2
   3.36544E+2   6.01882E+2
  -3.81810E+2   4.47589E+2
  -3.86653E+2   2.65753E+1
  -2.78309E+1  -4.83138E+2
   4.76177E+2  -5.85388E+2
   6.49706E+2   2.31318E+2
   5.56338E+1   6.83534E+2
  -2.42648E+2   3.05059E+2
  -2.42010E+2  -1.87743E+2
  -1.04895E+2   1.69165E+2
  -1.33478E+2   9.04121E+1
  -2.70584E+2  -1.02732E+2
   4.73946E+1  -4.31136E+2
   3.55387E+2  -5.53347E+2
   5.55803E+2   1.07611E+2
   3.88595E+2   5.44418E+2
  -1.38196E+2   5.19622E+2
  -1.67821E+2  -2.18609E+2
   2.50748E+2  -7.01079E+1
   3.12195E+2   4.01460E+2
  -1.17424E+2   7.54085E+1
   1.34495E+2  -2.43486E+1
   1.80476E+2   4.00425E+1
   1.99294E+2   3.88541E+2
  -2.36154E+2   1.28562E+2
  -7.32768E+0  -2.79666E+2
   1.17403E+2  -3.59653E+2
   4.53709E+2  -4.69510E+2
   3.05220E+2   1.82743E+2
   1.41478E+2   1.31558E+2
  -9.47754E+0  -1.25546E+1
   8.74547E+1  -1.53728E+2
   1.75680E+2  -7.17732E+1
   1.39658E+2   1.10769E+2
   1.46150E+2   1.97898E+2
  -3.17221E+1  -1.19325E+2
   3.87514E+1  -4.99312E+1
   1.19853E+2  -1.36268E+2
  -8.25608E+1   5.16253E+2
  -2.95373E+2   1.81117E+2
  -2.16264E+2  -2.79696E+2
   2.36969E+2  -3.22073E+2
   2.16365E+2   2.06365E+2
   1.58609E+2   3.83583E+2
  -1.11713E+2   1.88773E+2
  -2.35716E+2  -4.43222E+1
  -2.77838E+2  -1.18831E+2
  -2.60861E+1  -4.93165E+1
  -2.63841E+2  -2.39249E+2
  -5.09169E+1  -2.59231E+2
   2.70053E+2  -1.87850E+2
   5.70255E+2   6.85709E+0
   4.09031E+2   5.36012E+2
  -1.70607E+2   3.70747E+2
  -5.05081E+2   1.83513E+2
  -1.92617E+2  -1.17706E+2
  -2.71453E+1  -3.80585E+2
  -3.10398E+1   1.39172E+2
  -4.55485E+1  -7.59037E+1
   7.74471E+1   1.14291E+2
   9.27259E+1   5.58621E+1
  -1.57319E+2   3.13091E+2
  -2.94054E+2   1.35775E+2
  -3.95643E+2  -1.01253E+1
  -7.59747E+0  -1.88055E+2
   5.98274E+1  -1.81586E+2
   2.61640E+2  -7.51619E+1
  -7.25134E+1  -5.74871E+1
  -1.45126E+2   2.03708E+2
   2.18654E+0   1.15879E+2
  -5.22255E+1   6.97756E+1
  -7.57214E+1   1.63233E+2
  -1.68258E+2  -4.67587E+2
   1.60691E+2  -3.16313E+2
   2.27973E+2  -2.91747E+2
   2.27085E+2   3.18600E+2
  -1.71483E+2   2.93439E+2
  -3.67650E+2  -7.13730E+0
  -3.65261E+2   2.76591E+1
   1.35024E+1  -1.66218E+2
  -7.32788E+1  -3.27710E+2
   4.15884E+1  -4.10179E+1
   1.17738E+2  -1.68864E+2
   2.39890E+2  -7.80728E+1
   1.17475E+2   9.21987E+1
   3.60428E+1   1.89866E+2
  -2.81381E+2   2.53010E+2
  -1.76587E+2  -2.42500E+2
  -8.68741E+1  -1.98726E+2
  -2.55053E+1  -1.44980E+2
   9.42599E+1   1.33441E+2
  -9.93344E+1  -6.50869E+1
   2.61397E+1  -9.86789E+1
  -1.20298E+2  -1.00992E+2
  -4.24694E+0  -7.10329E+1
  -2.45503E+2  -2.05619E+1
  -1.98092E+2  -1.21217E+2
  -2.77549E+2  -1.34906E+2
  -2.58016E+2  -2.94656E+1
  -3.17898E+1   5.62717E+1
  -7.31307E+1  -2.57905E+2
  -1.33967E+2  -1.90729E+2
  -3.01626E+2  -3.16112E+1
  -5.97056E+1   2.07375E+2
  -1.56684E+2   3.47677E+1
  -1.37992E+2   2.93703E+2
  -1.83047E+1  -1.26135E+2
   6.41805E+0  -9.44962E+0
  -1.47170E+2  -7.76127E+1
  -2.61197E+2  -2.48548E+2
  -8.44207E+1  -2.69433E+2
  -2.35349E+2  -1.54375E+2
   8.48156E+1  -1.84470E+2
   3.86351E+0   2.63643E+2
  -2.83685E+2   2.06410E+2
  -1.38163E+2  -7.43291E+1
  -1.62459E+2  -1.62725E+2
  -4.05781E+1  -1.66823E+2
   1.43167E+2   2.17919E+2
   1.59949E+1   6.61616E+1
  -4.76580E+1   8.96421E+0
  -1.46798E+2  -5.02345E+0
  -1.61683E+1  -3.30959E+1
  -2.62112E+2  -8.46240E+1
  -2.73947E+2   1.67396E+2
  -3.80152E+0  -1.43982E+2
  -1.40524E+2  -3.65587E+2
  -1.45251E+2  -3.66780E+0
  -9.37577E+1   1.03024E+2
  -3.01023E+2   3.36616E+1
  -1.07961E+2   5.92997E+1
  -2.04599E+2  -2.90590E+1
  -1.89639E+0  -1.00547E+2
  -5.82104E+1   1.43047E+1
   1.22755E+2  -3.73796E+1
   4.33454E+1  -9.51240E+1
  -1.13113E+2   2.33346E+2
  -1.38817E+2   8.48706E+1
  -1.48086E+2  -6.76757E+1
   5.57699E+1   1.66993E+2
  -4.29140E+1   6.72623E+1
   1.15564E+1   2.71807E+1
  -2.18832E+2  -6.69845E+0
  -9.04921E+1   1.52992E+2
  -5.92077E+1   8.26996E+1
  -1.37669E+2  -4.97234E+1
  -4.36945E+2   8.97668E+1
  -4.39971E+2   1.25336E+1
  -2.24029E+2  -2.84780E+2
  -3.24160E+1  -1.00936E+2
   1.34920E+2  -1.25291E+2
  -9.84611E+1   1.71361E+2
  -1.45476E+2   1.25689E+2
  -2.47195E+1  -1.36496E+2
   3.04386E+1   1.98346E+2
  -1.50457E+2  -9.96561E+1
  -9.90206E+1  -9.36608E+1
  -1.90907E+1  -5.70046E+1
  -4.48588E+1  -2.33404E+2
   2.80169E+2   2.73625E+2
  -8.70649E+1   2.86716E+1
  -1.09387E+2   3.00388E+2
  -1.55648E+2  -1.29992E+2
   2.19708E+2  -1.24732E+2
   6.86041E+1  -1.71173E+1
  -1.12900E+2   7.32380E+1
  -1.19983E+2   1.19182E+2
  -1.88578E+2  -5.82766E+1
  -1.15225E+2   1.69102E+2
   7.98229E+0  -6.16980E+1
   8.47560E+1  -7.26654E+1
  -1.34504E+2  -1.04895E+2
  -6.70043E+1  -2.42328E+2
  -8.19321E+1   1.34961E+2
   4.91775E+1  -7.51982E+1
  -2.53929E+2  -7.36278E+1
  -1.60075E+2  -1.80341E+1
  -9.10269E+1  -9.90769E+1
  -4.77095E+1   3.07225E+1
   9.66079E+1   1.71227E+2
  -1.31902E+2  -1.00773E+2
  -1.95973E+2  -8.50427E+1
   1.53165E+2   6.49916E+1
   1.25790E+1  -2.73331E+2
  -1.35520E+2   6.18524E+1
  -2.38447E+2  -1.47432E+1
   1.46132E+2  -1.17049E+2
   1.84171E+2   1.07431E+2
  -9.94679E+1   4.50788E+1
  -2.51591E+2   1.48658E+2
  -1.62926E+2   1.55925E+2
   1.29324E+2  -2.75199E+2
  -7.36337E+1  -8.59889E+1
   3.24986E+2   5.55645E+1
   1.32820E+2  -2.08147E+1
  -9.91044E+0   1.42102E+2
  -3.28494E+2   4.71729E+1
  -5.26165E+1  -3.01957E+1
  -5.32878E+1  -2.36597E+2
  -7.00686E+0   2.02303E+1
  -1.42855E+2  -5.67256E+1
   3.10810E+0   1.40651E+2
  -1.55180E+2   1.07917E+1
  -9.33840E+1   1.59313E+2
  -1.01164E+2  -1.89283E+2
   1.01161E+2  -2.09882E+2
   4.11281E+1  -4.36846E+1
  -1.96001E+1  -5.28038E+1
  -5.45885E+1  -1.18723E+2
  -2.02703E+2  -7.51204E+1
   1.69151E+1  -8.74136E+1
  -4.05860E+1  -5.12161E+1
   8.82553E+1   8.55540E+1
   7.59649E+0  -9.04802E+1
  -1.29916E+2  -1.79122E+2
  -2.72957E+2   6.64357E+1
   2.65167E+1  -2.09273E+2
   1.85728E+1  -1.55283E+2
   2.33328E+2  -1.63872E+2
  -1.16850E+2   1.44553E+1
  -7.17726E+1  -1.08048E+2
  -1.67578E+2   3.69955E+1
  -3.88166E+2  -1.57513E+2
  -2.76924E+1  -1.64295E+2
  -6.99050E+1  -5.35805E+0
   1.97081E+2  -3.15131E+1
   9.98764E+1   2.57835E+2
  -2.51902E+2  -5.47771E+1
   6.48842E-1  -7.74472E+1
