 
 $NMID
 ID=''
 FMTDAT='(2E13.5)'
 TRAMP=   1.00000E+0
 VOLUME=   1.00000E+0
 $END
   3.30238E+4   1.66856E+4
   7.14411E+3  -3.08264E+4
  -1.96640E+4  -1.11547E+4
  -1.60118E+4   1.36540E+4
  -5.06316E+2   1.27513E+4
   1.17360E+4   3.20149E+3
   1.02767E+4  -5.10773E+3
  -3.48272E+3  -8.33154E+3
  -1.05414E+4  -9.08842E+2
  -5.49898E+3   6.68740E+3
   1.30072E+3   5.70851E+3
   5.12094E+3  -4.90033E+2
   3.15960E+3  -5.64216E+3
  -3.47542E+3  -6.11056E+3
  -4.29106E+3  -6.21616E+2
   1.10357E+3   3.80350E+3
   2.63941E+3   2.97975E+3
   1.67418E+3  -1.29334E+3
   1.10139E+3  -2.57514E+3
  -1.80205E+3  -9.66659E+2
  -1.99052E+3   9.99028E+2
   1.25168E+3   1.65672E+3
   1.79132E+3   1.64501E+3
  -9.08443E+1  -9.49637E+2
   1.39721E+2  -2.97740E+3
   6.41027E+1   1.42133E+2
  -1.63488E+3   2.94516E+3
  -1.11742E+3   9.31152E+1
   1.41961E+3  -2.00533E+3
   1.63392E+3  -1.42725E+2
  -7.67018E+2   7.25366E+2
  -1.92404E+3  -5.33361E+2
  -1.18508E+2  -1.24113E+3
   1.45885E+3  -7.75618E+2
   1.67999E+3   1.61661E+2
   5.64260E+2   8.78271E+2
  -9.50803E+2   3.40062E+2
  -7.90154E+2  -2.22445E+2
   2.31771E+2   1.48022E+1
   3.12635E+2   4.77414E+2
   9.97545E+1  -8.41533E+2
   7.68616E+2  -5.63336E+2
   7.55542E+2   7.58838E+2
   1.32790E+2   1.25669E+3
   2.55065E+2   8.37006E+2
  -5.97094E+0   5.63530E+2
  -1.25783E+3   2.51578E+1
  -6.73137E+2  -1.28051E+3
   7.52778E+2  -1.23695E+3
   1.03645E+3   2.58786E+2
   6.14122E+2   3.21517E+2
   5.43063E+2  -1.06393E+2
   6.21861E+2   3.06295E+2
  -1.94228E+2   6.67631E+2
  -2.02213E+2   1.99670E+2
  -1.42082E+2  -4.83402E+2
   1.20995E+2  -8.02637E+2
   3.44782E+2  -4.21855E+2
   5.08435E+2   5.77641E+2
   6.22314E+2   9.25138E+2
   2.85378E+2   3.65778E+2
  -2.71550E+2   3.28455E+1
  -9.14060E+2  -5.55196E+2
  -9.30220E+2  -1.20833E+3
  -2.72833E+2  -1.10848E+3
   5.77439E+2  -3.52236E+2
   1.19898E+3  -3.07162E+1
   1.13672E+3   5.06245E+1
   1.53260E+2   3.82641E+2
  -9.26856E+2  -2.30569E+1
  -4.11248E+2  -3.00689E+2
   3.41887E+2   2.63577E+2
   2.13280E+2   1.24131E+3
  -5.87849E+2   3.11322E+2
  -1.66419E+2  -7.49804E+2
   1.63351E+2  -3.71579E+2
  -4.22504E+2   1.00084E+2
  -8.32935E+2   7.78758E+1
  -1.00769E+2  -1.14311E+2
   2.04202E+2  -2.41151E+2
   4.23948E+2  -3.12536E+2
   3.86541E+2  -3.23931E+2
   8.78100E+1  -1.71300E+2
  -2.19941E+2  -2.63597E+1
   2.98718E+2   4.06824E+1
   3.30992E+2   4.39169E+2
   2.51775E+2   3.66037E+2
  -2.00887E+2   2.30778E+2
   6.26313E+1  -2.48791E+2
  -1.25058E+2   5.10233E+1
  -1.91025E+2   6.33992E+2
  -5.41439E+2  -1.14031E+2
  -3.55166E+2  -2.71718E+2
   2.29497E+2  -6.25602E+2
   7.03168E+2  -3.11382E+2
   4.33979E+2   3.06383E+2
   2.36815E+2   7.58419E+1
  -1.81137E+1  -1.53144E+2
   2.90033E+2   1.84591E+2
   9.25065E+1   7.91164E+2
  -4.96657E+2   2.54154E+2
  -3.89666E+2  -4.08514E+2
   1.06081E+2  -3.73315E+2
   3.06965E+2  -1.26411E+2
   5.31073E+2   2.42957E+1
  -1.35269E+2   3.80359E+2
  -6.33556E+2   6.86484E+1
   1.69185E+1  -5.44680E+2
   7.66854E+2  -6.72009E+2
   8.89141E+2   4.41903E+2
  -8.97481E+1   6.63522E+2
  -7.30522E+2   2.22142E+2
  -2.82852E+2  -1.41668E+2
   3.48903E+1   1.06707E+2
  -1.66218E+2   5.35227E+2
  -7.15982E+1  -1.25774E+2
  -2.84262E+1  -7.15833E+2
   2.83368E+2  -4.59699E+2
   5.15365E+2   1.61955E+2
   3.72132E+2   5.21936E+2
  -1.43689E+1   6.18312E+2
  -1.43440E+2   3.73285E+2
  -2.84435E+2   2.27465E+2
  -6.55119E+1  -1.30239E+2
  -5.79822E+1  -3.95459E+2
   2.54329E+2   3.44055E+1
   3.40264E+2   1.24418E+2
   1.46416E+2   1.65010E+2
   2.12148E+2   1.86199E+2
  -1.08792E+2   6.73913E+1
  -3.62702E+2  -8.95059E+1
   1.55770E+2  -4.31899E+2
   1.52810E+2   1.38166E+1
   1.50712E+1   2.06564E+2
  -7.39387E+1  -7.67347E+1
   1.21050E+2  -1.80377E+2
   6.33305E+1   1.14110E+2
  -1.20155E+2   4.12689E+2
  -2.28497E+2   1.44588E+2
  -2.34082E+2  -1.66924E+2
   1.88402E+2  -2.37672E+2
   3.84750E+2   1.13977E+2
   1.78872E+2   2.14376E+2
  -2.34574E+2   1.69059E+2
  -5.14126E+2  -2.79376E+2
   5.07243E+1  -1.89322E+2
  -2.23033E+1  -2.05519E+2
   3.63254E+1  -2.13057E+2
   3.26428E+2  -2.54426E+2
   1.22082E+2  -3.55816E+2
   6.22865E+1   1.42003E+2
   3.21636E+2   6.87001E+1
  -3.93179E+1   2.68286E+2
  -2.69011E+2   6.02996E+1
  -3.12138E+2  -1.21901E+2
  -3.48906E+1   4.60202E+1
  -1.65397E+0  -1.91279E+1
  -2.03189E+2   3.55894E+1
   2.39632E+1  -3.95503E+1
  -1.44322E+2  -3.86077E+1
  -5.65687E+1  -2.37046E+0
  -1.13350E+2  -1.95301E+1
  -1.74044E+2  -3.13646E+2
  -8.02478E+0  -1.13969E+2
   3.21331E+2   7.10971E+1
  -3.34332E+2   2.43127E+2
  -5.41024E+2   1.17399E+2
  -2.03866E+2  -3.91456E+1
  -5.40868E+1  -2.67776E+0
  -2.24974E+1   7.97585E+1
  -8.50261E+1   9.61309E+1
  -3.55562E+2  -2.24938E+2
  -3.61383E+2  -1.04797E+1
  -1.08781E+2   1.37228E+2
  -1.01229E+2   8.18994E+1
  -2.12829E+2   5.88706E+1
  -3.64153E+2  -1.04021E+2
   5.08681E+1  -4.34236E+2
   2.00981E+2   2.49681E+0
  -1.67951E+2   3.00321E+2
  -2.74588E+2   3.13826E+2
  -1.32297E+2  -3.04985E+2
  -2.00030E+2  -1.44443E+1
  -3.23915E+1   1.23833E+1
   3.96198E+1   7.66292E+1
  -1.49253E+2  -2.08350E+2
   2.11510E+2  -1.49604E+2
  -9.42779E+1   7.18906E+1
   1.75569E+1   2.90930E+2
  -9.57547E+1   2.20827E+2
  -3.11677E+2   1.33106E+2
  -2.66889E+2  -5.10698E+1
   5.04532E+1  -3.22232E+2
   1.45277E+1   1.28603E+2
  -3.93808E+1   7.85862E+1
  -1.21216E+2   1.76155E+2
  -1.10407E+2   1.07236E+2
  -2.07983E+2  -1.16719E+2
  -2.22778E+2   2.01545E+2
  -6.11883E+1  -2.94194E+2
  -7.17861E+1  -2.86455E+2
   1.71181E+2  -2.37555E+2
   3.88855E+1   2.43781E+2
  -1.67988E+2   1.97710E+2
  -2.24537E+2   7.34509E+1
   1.15421E+2  -1.03174E+2
  -2.86951E+2   8.40634E+1
  -4.45467E+1  -2.73309E+2
  -2.06295E+2   4.32691E+1
  -4.63357E+1   1.06376E+1
  -1.49207E+2  -2.55986E+1
  -1.20329E+2   2.95575E+1
  -2.47568E+2   1.90750E+2
  -4.29386E+2   1.78986E+2
  -1.18655E+2  -5.86525E+1
  -3.49792E+1  -2.60483E+2
   2.73001E+2  -1.20026E+2
   4.64154E+1   4.14609E+1
   5.97455E+1  -1.35859E+2
   9.29552E+1   7.02835E+1
  -8.17623E+1   1.64786E+2
  -2.54692E+2   5.74255E+1
  -2.26697E+2  -1.52919E+2
  -2.28411E+2  -1.56554E+2
  -2.17273E+2  -4.03985E+2
   1.17961E+2  -7.59834E+1
  -1.02189E+1   5.03549E+1
  -2.68320E+2   2.28312E+2
  -1.36220E+2  -1.22035E+2
  -1.21233E+2  -2.04853E+2
  -4.63416E+2  -2.60236E+2
  -3.32995E+2  -5.44572E+1
  -2.54322E+2   1.75683E+1
  -1.63827E+2  -2.77184E+2
  -1.89990E+2  -1.22859E+2
  -4.39853E+1   1.86796E+2
  -1.80797E+2  -1.27410E+2
  -1.10258E+2  -8.95138E+1
   1.88795E+2   3.15684E+1
   1.04722E+1  -9.53289E+1
   1.40734E+1   2.27123E+2
  -2.30275E+2   4.37766E+1
  -4.36338E+1  -6.30052E+1
  -1.15793E+2   1.35123E+1
  -1.02939E+2   1.19233E+2
   6.13859E+1  -1.95371E+2
  -8.55426E+1  -1.17975E+2
   3.81227E+0  -3.70606E+2
   1.59265E+2  -4.57232E+1
  -5.04475E+1   9.63566E+1
  -2.03036E+2   1.47155E+2
   2.82919E+1  -1.43212E+2
  -1.32391E+2  -1.86870E+2
  -6.17386E+1   1.32383E+2
   3.45312E+2   1.64599E+2
  -1.32949E+2   2.30966E+1
  -9.06485E+1   5.43037E+0
  -1.20397E+2  -1.23275E+2
   8.13984E+1  -2.81887E+2
  -1.58807E+2  -1.31500E+2
  -2.52189E+2  -1.36403E+2
  -7.25857E+0  -1.06462E+2
   2.40216E+2  -1.27312E+2
   2.16734E+1  -2.08041E+2
  -2.52004E+1  -2.70550E+1
  -1.61739E+2  -3.44833E+1
  -2.14516E+2   1.22838E+2
  -3.39953E+1   2.25932E+1
   1.61125E+1  -2.48804E+1
  -1.08704E+2  -1.06909E+2
   1.40017E+1  -1.22508E+1
  -3.17941E+1  -1.22904E+2
  -5.20544E+1  -8.05179E+1
  -5.09677E+1   1.72613E+1
  -2.48344E+2  -2.72940E+2
  -1.65679E+2  -2.85679E+2
   5.18703E+1  -9.19520E+0
   2.72921E+1   1.14631E+2
   1.44999E+1   3.85409E+1
  -3.52059E+1   4.19175E+1
   2.06917E+2   2.43404E+2
  -6.40774E+1  -6.52417E+1
   6.72734E+1   2.51605E+1
   1.07871E+1  -2.59524E+0
   1.87654E+0   6.99426E+0
  -3.78549E+1  -3.26781E+2
  -1.40813E+2   6.25131E+0
   1.24128E+2   6.04637E+1
  -2.34400E+2   4.81565E+1
  -7.30352E+1  -6.42919E+1
  -1.86207E+2  -1.18838E+1
  -8.99356E+1  -2.90237E+1
  -1.32062E+2  -6.49537E+1
   5.30846E+1   1.25820E+2
   1.74612E+2  -8.86908E+1
  -2.04129E+2  -1.78407E+2
  -3.60835E+1  -7.22903E+1
  -1.71888E+2   1.00283E+2
   6.16740E+0   1.72502E+2
  -5.72883E+1  -1.76809E+2
   1.14656E+1  -3.28735E+1
  -2.41296E+2  -3.79189E+1
  -3.68464E+1  -2.07012E+1
  -9.67604E+1  -7.31212E+1
   5.42468E+1  -7.69618E+1
   4.72510E+1   3.32423E+1
  -7.30922E+1   1.41336E+1
   8.80037E+0  -4.33056E+1
  -1.01042E+2   4.13707E+2
   1.68563E+1   2.00816E+2
  -6.85232E+1   1.05906E+2
   8.07182E+1   2.15167E+2
  -6.24918E+1   1.64593E+2
  -4.67147E+1  -5.49473E+1
  -6.08688E+1  -9.14973E+1
   6.22061E+1  -4.74194E+1
   1.48188E+2  -1.28975E+2
   1.48752E+1   5.30827E+1
  -9.68732E-1   3.52761E+1
   7.85774E+1  -1.64302E+1
   3.98746E+1   8.46237E+1
   2.59958E+2  -6.82562E+1
   8.07141E+1   1.38155E+2
   1.56978E+2  -7.22389E+1
  -1.52205E+2   4.72435E+1
  -4.79998E+1   2.77739E+1
  -2.09997E+2   6.34397E+1
  -1.49774E+2  -6.36326E+1
  -2.54583E+2  -3.16365E+2
   1.30492E+2  -2.18442E+2
   5.84183E+1  -7.46996E+1
   8.29909E+1   4.58455E+1
  -5.49413E+1  -2.41213E+1
   1.05331E+2  -1.50939E+2
   1.74190E+1   7.49548E+0
  -1.63096E+1  -4.83476E+1
   2.63096E+1  -9.11102E+1
  -2.78541E+1   6.13027E+1
   1.66260E+2  -1.12800E+2
   2.17684E+2  -2.69633E+2
  -1.06246E+2  -1.96252E+1
  -5.12283E+1   1.83173E+2
  -1.48538E+2   1.01348E+2
  -3.81751E+1   3.82354E+1
  -6.23892E+1  -1.80417E+2
  -8.14581E+1  -1.64587E+2
   1.29500E+2   1.70200E+2
   4.36438E+1  -8.47013E+1
   2.90173E+1   8.48673E+1
  -8.78477E+1   2.44514E+2
  -1.13810E+1   4.99770E+0
   2.07303E+2  -2.16518E+2
   1.52922E+2  -5.36498E+1
   1.45109E+2   6.63434E+1
  -1.26558E+2   2.50451E+2
  -7.48053E+1  -8.87280E+1
   1.77874E+1  -1.32442E+2
  -3.02941E+0   1.18559E+2
  -2.63115E+2  -7.72154E+1
   2.90590E+1   1.12298E+2
  -9.22933E+1   3.90111E+1
   7.14603E+1  -3.01488E+2
   2.59784E+2   4.08504E+0
   1.15992E+1   6.58297E+1
  -2.42127E+2  -5.91936E+1
   1.50688E+1   5.25124E+1
  -1.20948E+2  -9.75694E+1
