 
 $NMID
 ID=''
 FMTDAT='(2E13.5)'
 TRAMP=   1.00000E+0
 VOLUME=   1.00000E+0
 $END
  -1.95241E+4   1.08971E+4
  -2.66101E+4   3.62383E+4
   1.87921E+4   3.45910E+4
   3.79461E+4  -1.07513E+4
  -2.38288E+3  -3.69958E+4
  -3.81025E+4  -1.59781E+4
  -2.36983E+4   1.76489E+4
   1.27485E+4   2.47442E+4
   2.90224E+4   2.75968E+2
   1.23606E+4  -2.42370E+4
  -1.46448E+4  -1.66836E+4
  -1.87044E+4   8.78134E+3
   1.07771E+3   1.94887E+4
   1.56871E+4   8.83370E+3
   1.02305E+4  -8.72258E+3
  -5.38164E+3  -1.43028E+4
  -1.31753E+4  -1.13920E+3
  -6.21835E+3   1.20520E+4
   4.96112E+3   9.06133E+3
   8.82605E+3  -2.14965E+3
   1.20732E+3  -8.43994E+3
  -7.08438E+3  -6.55984E+3
  -5.45747E+3   1.84967E+3
   1.31644E+3   7.13244E+3
   4.34592E+3   2.29986E+3
   3.89572E+3  -5.17474E+3
   1.52698E+3  -4.12714E+3
  -3.17786E+3   1.57918E+3
  -4.48965E+3   2.75146E+3
   7.99666E+2   1.00923E+3
   4.52340E+3  -5.27989E+1
   1.67682E+3  -3.20261E+1
  -1.73250E+3  -1.05687E+3
  -3.47852E+3  -1.36461E+3
  -1.94902E+3   2.18820E+2
   1.27667E+3   1.20966E+3
   3.43215E+3   1.27365E+2
   1.72215E+3  -1.20420E+3
  -1.02817E+3  -1.79133E+3
  -1.90679E+3   6.01767E+1
  -9.01762E+2   2.71641E+3
   8.12903E+2   1.68074E+3
   1.89512E+3  -1.42106E+3
   1.87608E+1  -2.61183E+3
  -1.73558E+3  -1.52560E+3
  -4.95828E+2   9.50826E+2
   1.76111E+3   2.51896E+3
   9.10288E+2   1.38126E+3
  -5.95723E+2  -1.77641E+3
  -1.23495E+3  -2.00160E+3
  -4.27836E+2   3.66492E+2
   2.18207E+2   1.40923E+3
   8.90220E+2  -3.44462E+2
   1.20576E+3  -1.00756E+3
   2.91436E+2  -3.38246E+2
  -7.17846E+2   6.94850E+2
  -7.05143E+2   1.03235E+3
   1.99193E+2   2.81086E+2
   5.31215E+2  -8.66446E+2
   1.32879E+2  -1.02688E+3
  -3.39611E+2  -2.43208E+2
   3.39792E+2   4.80416E+2
   1.05767E+3   7.58400E+2
   3.39864E+2   4.91392E+2
  -6.31281E+2   1.96499E+2
  -1.06548E+3   8.22108E+1
  -6.73146E+2  -1.33045E+2
   1.14816E+2  -4.17077E+2
   9.39129E+2  -5.48835E+2
   6.77126E+2  -4.53005E+1
  -7.38799E+2   3.15199E+2
  -8.65446E+2  -2.49398E+2
   7.26234E+2  -2.06970E+2
   1.15607E+3   7.74146E+1
   2.40424E+2   2.03828E+2
  -5.28181E+2  -2.95675E+2
  -3.44626E+2   1.43530E+2
   2.92068E+2   7.27400E+2
   5.16595E+2   4.46850E+2
   1.78027E+1  -1.26928E+2
  -3.62734E+2  -1.75066E+2
  -6.06303E+2  -8.80859E+1
  -4.51788E+2   5.24534E+2
   4.68969E+2   4.36278E+2
   3.07950E+2  -4.60412E+2
  -5.96381E+0  -7.87712E+2
  -3.24111E+2  -5.73269E+2
  -5.72742E+2   4.93048E+2
   7.56751E+1   8.33730E+2
   6.43395E+2   5.43186E+1
   5.76097E+2  -6.84088E+2
  -2.92398E+1  -3.49196E+2
  -5.62718E+2   5.77850E+2
  -1.53581E+2   9.43072E+2
   2.75899E+1   3.22468E+2
   1.06635E+2  -6.98732E+2
   3.21497E+1  -9.15456E+2
  -4.87202E+2  -3.00224E+1
  -4.04318E+2   7.09324E+2
   2.05101E+2   1.27956E+2
   8.83291E+2  -1.09437E+2
   4.14180E+2  -9.81778E+1
  -6.35428E+2   4.71318E+1
  -1.01613E+3   2.42513E+2
  -3.36363E+2   3.68123E+2
   6.23155E+2   2.64168E+2
   6.94978E+2   3.28529E+2
  -4.54606E+2  -2.58239E+2
  -9.14220E+2  -1.43927E+2
  -3.13111E+2   1.76427E+2
   5.98370E+2   3.85314E+2
   3.89295E+2   5.93199E+1
   2.02023E+2  -2.95957E+2
  -3.78939E+2  -3.60487E+2
  -3.45406E+2   2.96641E+2
  -2.33094E+2   6.46052E+2
   1.74383E+1   5.18194E+2
  -4.83141E+1   5.63771E+1
  -4.96629E+2  -3.28711E+2
  -6.68831E+2  -2.96853E+2
  -1.23452E+1   2.13132E+2
   1.92938E+2   5.68221E+2
   1.54732E+2   2.22792E+2
   7.93983E+1  -1.08092E+2
  -1.69634E+2  -1.40931E+2
  -1.23991E+2   3.18603E+2
   9.17990E+1   2.62985E+2
   2.29396E+2   2.71358E+2
   2.56617E+2  -1.14242E+2
   2.62735E+2   2.68060E+1
  -2.07889E+2  -4.77706E+1
  -3.20960E+2   1.24684E+2
   1.29803E+2   2.59739E+2
   2.56797E+2   2.13919E+2
   3.56427E+1   8.71621E+1
  -2.42760E+2  -2.99892E+2
  -1.17591E+2  -2.09538E+0
  -9.71192E+0  -3.12226E+1
   2.93044E+2   7.12939E+1
  -2.34868E+2   3.58853E+2
  -8.34444E+1  -2.59232E+2
  -1.86023E+2   3.18683E+2
  -1.84551E+2   1.35033E+2
   3.54509E+2   1.29614E+2
   3.29910E+2   3.23830E+2
   7.86982E+1  -1.59799E+2
  -3.62416E+2  -2.53623E+2
   1.58402E+2   1.60961E+1
  -1.38861E+2   6.80202E+0
   1.59470E+2   1.36071E+2
   1.28574E+2  -1.32329E+2
   5.80224E+1  -3.68917E+2
   3.90283E+1  -4.29832E+1
  -1.21056E+2   2.45327E+2
  -1.68174E+2  -1.87195E+1
  -6.13233E+1  -3.32950E+0
   6.57530E+1  -6.45992E+1
  -2.39786E+1  -1.31127E+2
   1.09169E+1  -1.93241E+2
  -2.72109E+0  -2.05794E+2
   3.86704E+1  -1.98033E+1
  -8.27449E+1  -1.14372E+2
  -1.88372E+2   4.88224E+1
   1.32110E+2  -4.45273E+1
   3.49466E+2  -2.12335E+2
   1.56641E+2   3.14468E+0
  -2.31635E+2   1.47593E+2
  -4.13012E+1   8.07482E+1
   8.52352E+1   5.38549E+1
   1.79061E+2  -2.23064E+2
  -6.08359E+1  -1.11814E+2
  -2.20182E+2  -9.68900E+1
  -1.15241E+2   3.11060E+2
   1.23066E+2  -1.65417E+2
   2.78213E+2  -1.03523E+2
   7.96031E+1  -1.37720E+2
  -2.40205E+2  -1.33586E+2
  -1.98939E+2  -2.10206E+1
  -1.00382E+2   1.78065E+2
   2.48925E+2   2.25506E+2
   7.73696E+1  -1.61173E+2
  -2.00150E+2  -2.04788E+2
  -2.71515E+2  -1.58198E+2
  -1.09642E+2   2.30712E+2
  -3.68935E+1  -2.02819E+2
  -6.12350E+1  -6.68667E+1
  -2.00200E+1  -2.62119E+2
  -5.59012E+1  -1.36125E+1
   1.67528E+2   4.02492E+0
   1.11432E+2   3.32144E+2
   2.87964E+1   4.15887E+1
   6.83647E+1  -1.10464E+2
  -2.54300E+2  -2.36191E+2
   1.13957E+1  -8.29270E+1
   9.29054E+1   2.03065E+2
   1.58000E+2   6.03099E+1
   4.64245E+1   2.04571E+2
   6.25907E+1  -9.06360E+1
  -1.00812E+2  -1.36246E+2
  -2.26215E+2  -2.35705E+2
  -1.96602E+2   1.00633E+2
   2.08224E+2  -1.94912E+2
   2.73069E+1  -4.92849E+1
   1.31309E+2  -5.75815E+1
  -1.58692E+2  -3.59289E+1
  -2.02953E+2   6.56635E+1
  -3.23010E+0  -2.28228E+2
  -1.13823E+2   1.30509E+2
   1.98029E+2  -1.79007E+2
  -5.00169E+1   4.04044E+0
  -8.65944E+1  -6.47698E+1
   9.54197E+1  -1.54324E+2
   1.92955E+1  -1.47346E+1
  -1.91228E+1  -3.85653E+0
  -1.62674E+2  -2.50606E+1
  -1.98218E+2  -2.64221E+2
   1.48770E+2   8.79804E+0
   1.87543E+2   4.69002E+0
  -1.24028E+2   4.94198E+1
   1.90347E+2   2.16770E+1
   4.29882E+1   1.64582E+2
   1.61589E+2  -2.57395E+2
  -5.33220E+1   2.04460E+1
  -5.61448E+1  -2.23072E+1
  -2.81437E+1  -6.02870E+1
   1.61306E+2  -1.42586E+2
   4.96760E+0   2.56634E+2
  -3.26063E+1  -4.25597E+1
  -1.43817E+2  -6.09958E+1
   7.43258E+1  -1.45471E+2
   1.79206E+2  -2.06832E+1
   1.41215E+1  -1.48038E+2
  -8.87157E+1   7.11456E+1
   6.27959E+1  -2.20267E+2
  -3.18379E+1   1.78910E+2
   1.03084E+2   6.87019E+1
  -1.90881E+2  -5.15268E+1
  -1.85420E+2  -7.30226E+1
  -1.11310E+2  -1.59638E+2
  -1.37538E+2  -7.86810E+1
   9.03373E+1   1.63544E+2
   2.81157E+1  -5.66416E+1
  -9.25276E+1  -1.65317E+2
   6.01379E+1   3.24440E+1
  -1.73334E+2  -1.77986E+2
  -1.93705E+1   1.93657E+2
  -1.09507E+1   1.78951E+2
  -1.36459E+2   2.23288E+1
  -1.50665E+2  -1.72037E+2
   1.30217E+2  -2.87639E+1
  -1.78548E+2  -7.94858E+1
  -9.62983E+1  -6.84153E+1
  -2.91406E+2  -4.32703E+2
  -6.85837E+1  -1.38529E+2
   2.89567E+2  -1.74009E+2
  -1.14592E+2  -1.18827E+2
  -1.01177E+2  -2.75186E+2
  -9.23269E+1   4.16264E+0
  -1.14662E+2   3.31020E+1
  -1.65871E+2   4.26018E+0
  -2.33213E+2  -1.83801E+2
   5.29201E+1  -8.66444E+1
  -6.74406E+0   2.16944E+0
   1.01617E+2  -9.86833E+1
  -2.11304E+2  -4.14583E+1
  -8.09760E+1  -3.86090E+1
   7.10286E+1   1.00028E+2
  -1.27688E+2   1.86919E+2
  -4.60514E+1  -3.86262E+2
   2.92769E+1  -1.51667E+2
   8.88451E-1  -1.59586E+2
  -2.28229E+2   6.31340E+1
  -1.84848E+2  -1.42544E+2
  -9.39572E+1  -9.48784E+1
   6.80412E+1   1.58112E+2
  -2.02699E+2  -2.04054E+2
   9.11646E+1   6.14252E+0
  -1.10199E+2  -6.13538E+0
  -8.36158E+1   2.90547E+1
  -3.13622E+1   6.60769E+1
  -2.04262E+2  -4.96858E+1
   5.55178E+1   1.32093E+2
   2.42211E+2   8.13620E+1
  -1.01670E+2   1.07577E+1
  -7.64304E+1  -2.63960E+1
   8.85980E+1  -3.17823E+1
  -1.64153E+2   1.40669E+2
   9.64433E+1   3.59900E+1
   6.31386E+1   2.06215E+2
   5.38572E+1   1.26164E+1
  -1.32981E+2   6.67306E+1
   9.31782E+1  -1.02326E+2
  -2.04292E+1  -1.35210E+2
  -7.84859E+1   6.61210E+1
  -3.51212E+1  -5.01278E+1
  -1.27300E+1   2.58385E+1
  -7.93281E+1   2.84780E+2
  -1.85271E+2  -2.23303E+1
  -3.13368E+1   9.69210E+1
  -1.60084E+2  -1.05098E+2
   1.41721E+2  -2.09582E+2
   8.90003E+1   1.11172E+2
   1.78161E+2  -1.46608E+1
  -9.08346E+1   2.54507E+2
   2.22678E+2  -1.72748E+2
   2.63933E+2  -1.47596E+2
   3.71890E+1   2.03044E+2
  -6.84931E+1   6.87269E+1
   8.76223E+0  -3.98475E+1
   2.09985E+1   6.88205E+1
  -9.14361E+1   1.72010E+2
  -1.78212E+2  -9.99937E+1
  -2.20412E+2   1.57320E+2
  -2.57388E+2  -8.67543E+1
   1.96737E+2  -1.36867E+2
  -4.17790E+1   2.80458E+1
   3.25821E+1   1.36902E+2
  -1.12141E+2  -3.33668E+1
  -1.06975E+2  -7.09381E+1
  -9.93081E+1   9.65142E+1
   2.06791E+2   1.25194E+2
  -1.97289E+2   1.15218E+2
  -8.68182E+1  -1.74253E+2
   5.34743E+1  -2.12199E+2
  -5.32485E+1   1.19486E+2
  -2.14766E+2   2.12974E+2
  -2.10922E+2   2.53020E+2
   1.15900E+1  -5.93613E+1
  -1.63045E+1  -6.80080E+0
   1.11254E+2  -2.53557E+1
   5.03023E+1   1.14043E+1
  -6.79572E+1  -7.71148E+1
  -1.35951E+2  -1.00199E+2
   8.55837E+1  -5.77998E+1
   5.60467E+1   6.97971E+1
  -2.93471E+2   5.76223E+0
  -1.92020E+2  -8.49665E+1
  -6.51486E+1  -1.50772E+2
  -2.15431E+1  -2.53691E+1
   1.06795E+2   1.06599E+2
  -2.05944E+2  -6.66679E+1
   1.55201E+2  -1.05930E+2
  -9.34789E+1  -1.61805E+2
   8.89689E+1   5.61455E+1
   1.36336E+2   1.23114E+2
  -1.37866E+2  -1.15233E+2
   6.48319E+1  -3.05128E+1
   2.48571E+2   1.35221E+2
  -2.51295E+1   9.08243E+1
  -9.21780E+1   3.05718E+2
  -2.13346E+1   6.92762E+1
  -1.46795E+2   7.84449E+1
   8.75328E+1  -1.04866E+2
   7.79921E+1  -1.45345E+2
   7.00180E+1  -1.25678E+2
   1.26217E+2   1.10885E+2
  -9.56123E+1  -3.71069E+1
  -2.02841E+2   1.89819E+2
  -6.91085E+1  -5.34301E+1
  -1.14658E+1   3.05782E+1
   6.65068E+1   7.67460E+1
  -1.04358E+2  -5.49478E+1
   1.58419E+2  -2.04891E+2
   4.37747E+1  -2.99628E+0
  -1.59356E+2  -2.42835E+1
   1.35362E+2  -1.04410E+2
  -1.42877E+1  -4.02582E+0
