 
 $NMID
 ID=''
 FMTDAT='(2E13.5)'
 TRAMP=   1.00000E+0
 VOLUME=   1.00000E+0
 $END
   1.26420E+4  -4.08020E+3
   6.18019E+3  -2.52185E+3
  -6.39986E+3   1.33640E+3
   5.58496E+3  -7.72762E+2
   5.46253E+3  -1.41461E+3
  -4.77846E+3   4.44527E+3
  -1.61706E+3   2.32820E+2
   2.33022E+3  -6.23474E+3
   2.93352E+3   1.78952E+3
   2.48296E+3   6.89353E+3
  -3.47700E+3   7.00876E+1
  -3.62986E+3  -2.90133E+3
   4.78729E+3   3.98764E+2
   1.31931E+3   2.64297E+3
  -5.51592E+3   4.45491E+2
  -9.40828E+1  -2.78512E+3
   2.41411E+3  -6.67503E+2
  -2.14870E+3   2.41859E+3
  -5.16497E+2  -1.98995E+3
   3.27955E+3  -2.36718E+3
  -6.28161E+1   3.40247E+3
  -2.47946E+3   2.28958E+2
   9.83564E+2  -4.00899E+3
   2.20839E+3   2.40367E+3
  -2.81120E+3   3.78059E+3
  -2.99710E+3  -3.39685E+3
   4.04176E+3  -2.05304E+3
   3.41217E+3   4.94123E+3
  -3.53358E+3   2.52550E+3
  -1.14316E+3  -3.10739E+3
   3.85741E+3  -4.71213E+2
   1.44903E+2   3.01851E+3
  -2.61327E+3   1.81292E+2
   9.00844E+2  -2.42760E+3
   1.24369E+3   1.03694E+2
  -1.64851E+3   6.44454E+1
  -1.39969E+2  -2.79218E+3
   2.24626E+3  -1.34558E+3
   9.30439E+2   1.99541E+3
  -1.64586E+3   9.31623E+2
  -7.91737E+2  -1.21080E+3
   4.77384E+2   7.57408E+1
  -1.30359E+3   9.05365E+2
  -2.74225E+3  -7.06233E+2
  -5.42095E+2  -2.44543E+3
   2.48251E+3  -7.49472E+2
   1.56637E+3   2.19925E+3
  -9.74323E+2   1.73550E+3
  -7.75580E+2   1.47443E+0
  -1.07420E+2   9.05331E+2
  -1.32183E+3   1.09623E+3
  -1.59947E+3  -1.03274E+3
   1.05493E+3  -1.55339E+3
   1.45211E+3   5.18299E+2
  -5.17127E+2   1.94306E+2
   7.51166E+1  -7.81710E+2
   1.39457E+3   5.91803E+2
  -4.31844E+2   2.07542E+3
  -2.47179E+3  -2.93141E+2
  -5.29062E+2  -2.00806E+3
   9.68409E+2  -4.06533E+2
  -2.00646E+2   4.71484E+2
   7.25190E+1  -9.70233E+2
   1.43531E+3  -4.54934E+2
   1.02199E+3   1.54168E+3
  -8.73148E+2   1.81660E+3
  -8.62997E+2   4.52216E+2
  -6.59035E+2   7.87269E+1
  -7.71573E+2  -4.35193E+1
  -5.45504E+2  -5.20440E+2
   4.63850E+2  -7.32981E+2
   3.91453E+2   1.39372E+2
  -2.85810E+2  -1.83124E+1
   3.90127E+2  -8.71957E+2
   1.03955E+3  -4.48988E+2
   3.28589E+2   7.94682E+2
  -7.91457E+2   5.21186E+2
  -4.63968E+2  -4.79113E+2
   8.03863E+2  -7.47824E+2
   5.69808E+2   4.61367E+2
  -1.97538E+2   3.32576E+2
  -1.73986E+2  -4.70185E+2
   4.87559E+2  -1.57569E+1
   1.88790E+2   8.21577E+2
  -3.52220E+2   1.27098E+2
   5.02274E+1  -4.34889E+2
   4.80314E+1   1.29198E+2
  -1.41626E+2   3.23073E+2
   1.17758E+2  -4.97325E+2
   6.23211E+2  -6.24261E+2
   5.06337E+2   3.40631E+2
  -2.34805E+2  -2.12665E+2
   3.22150E+2  -4.37729E+2
   1.03873E+3   3.37590E+2
   2.26105E+2   8.64016E+2
  -7.89206E+2   2.25353E+2
  -9.39367E+1  -5.36456E+2
   4.84379E+2  -4.18662E+1
   1.90421E+1   3.92949E+2
  -5.08051E+2  -1.96873E+1
  -1.29907E+2  -4.86853E+2
   3.78720E+2  -2.50100E+2
  -4.00926E+1   9.40782E+1
   9.73262E+1  -2.51899E+1
   1.65121E+1  -1.66094E+2
   9.16808E+1  -2.63652E+2
   9.21373E+1  -5.80175E+2
   5.64811E+2  -3.08360E+2
   8.64145E+2   4.69227E+2
  -2.82719E+2   8.31140E+2
  -8.50733E+2  -1.36256E+2
  -1.44609E+2  -7.01723E+2
   1.83418E+2  -1.86211E+2
  -1.61327E+2  -2.96748E+1
  -2.35241E+2  -3.36869E+2
   9.47006E+1  -7.10478E+2
   3.31361E+2  -1.78076E+1
   1.65499E+2   2.31538E+1
   1.42141E+2   2.04400E+2
  -2.22687E+2   1.70584E+2
  -4.19905E+2   1.94049E+2
  -4.28348E+2  -2.46059E+2
  -1.39056E+2  -4.94284E+2
   6.02648E+1  -2.89895E+2
   1.01344E+2  -2.81300E+1
   3.24112E+2   1.45492E+1
   8.38020E+1  -7.11280E-1
  -9.37245E+1   1.81069E+2
  -2.23307E+2   4.56012E+1
  -1.42656E+2  -4.47524E+2
   6.57001E+1  -2.84794E+2
   2.53484E+2   2.76117E+2
  -9.54178E+1   1.43989E+2
  -1.59765E+2   3.40667E+1
  -1.30239E+2   1.01022E+1
   2.53559E+2   1.14127E+2
  -2.31692E+1   3.46206E+1
  -3.77351E+2  -1.75695E+2
  -2.06987E+2  -1.65474E+2
  -7.15282E+1   1.32870E+1
  -2.58487E+1  -4.27609E+1
   2.19328E+2  -6.56164E+1
   1.08761E+2   6.25496E+1
   4.69228E+1   1.03393E+2
  -1.30190E+2  -2.18236E+2
   1.90266E+2  -5.87114E+1
   2.02712E+2   2.41872E+2
   1.82406E+2  -8.26351E+1
   7.08315E+1  -5.36801E+1
  -7.57680E+1   1.61292E+2
  -8.70813E+1   2.71381E+2
   1.12508E+2   5.95999E+1
   2.56951E+2  -8.14659E+1
  -1.95981E+2   9.62921E+1
  -9.74772E+1   4.76893E+1
   1.15806E+1   1.78875E+1
   2.45316E+2   1.38217E+2
   7.12276E+1  -6.52004E+1
  -1.39226E+2  -9.25996E+1
   2.79106E+1   3.51696E+1
   1.63582E+2   2.43652E+2
  -1.64254E+2   5.42559E+1
   9.14679E+1  -5.44047E+1
  -9.94249E+1  -1.97372E+1
  -5.50030E+1   1.06776E+2
   9.02447E+0   3.49321E+1
  -9.68458E+1  -1.31418E+2
   1.04424E+2  -1.32330E-3
   1.19293E+2   1.81682E+2
  -7.89598E+1   2.29696E+2
   5.68035E+1  -9.42516E+1
   1.04704E+1  -1.84635E+1
  -2.48061E+1  -2.22340E+2
  -9.65335E+1  -2.32629E+2
  -1.58695E+1   6.03695E+1
   1.46866E+2   1.34522E+1
  -2.93401E+1  -2.08665E+1
   1.03270E+2   1.64282E+1
   3.44550E+2   6.48669E+1
   4.13934E+1   1.67037E+2
  -5.62677E+1   2.61263E+2
  -6.68312E+1   1.21082E+2
   2.59429E+2  -1.09876E+2
  -4.89849E+1  -1.33140E+2
   1.74088E+2   1.84099E+1
  -1.03146E+2   1.57464E+2
   9.99461E+1  -1.15468E+2
   2.76823E+1  -3.11668E+1
   8.30193E+1  -2.66580E+2
   1.61446E+2  -3.09348E+2
   7.50861E+1   3.05996E+1
  -4.92187E+1   3.61859E+1
  -1.12214E+2  -2.46510E+2
   9.21978E+0   4.44222E+1
   2.20437E+1   8.77302E+1
  -1.11643E+2  -3.70693E+1
  -1.14598E+2  -6.42482E+1
   6.18117E+1  -3.21361E+1
  -2.49959E+2   2.69026E+1
  -2.46039E+2   1.60008E+2
  -9.48617E+1   1.53185E+2
   2.45674E+2  -1.63552E+1
   9.12591E+1  -4.76321E+1
   1.38177E+2   1.26027E+2
  -7.65631E+0   7.84437E+1
   5.57932E+0   5.85746E+1
  -9.58598E-2   7.83599E+1
  -3.15729E+1   7.28939E+1
  -9.98250E+1   4.08371E+2
  -1.38913E+1   1.27030E+2
   4.46965E+1  -1.33949E+1
   3.76627E+1   1.47089E+2
   2.63428E+1  -8.37898E+1
  -1.60359E+2   1.19170E+2
  -1.53702E+2   1.65823E+1
  -2.85186E+2   1.16316E+1
   1.28833E+1  -8.29697E+1
  -1.48039E+2   1.58871E+2
   7.77516E+1   1.75157E+1
   2.44356E+2   1.37743E+2
   1.79742E+2   1.18468E+2
   9.58364E+1   2.90153E+2
   2.89383E+2   2.41879E+2
  -5.97945E+0   2.08045E+2
  -1.36885E+2   1.07811E+2
  -2.86548E+2   1.00386E+2
  -4.48609E+1   4.10729E+1
   7.45601E+1   1.90657E+2
   9.02289E+1   3.58171E+2
  -7.36482E+1   9.96821E+1
  -4.03770E+1   1.37581E+2
  -2.79381E+1   1.90347E+2
  -4.51289E+1   1.88719E+2
  -1.67897E+2  -5.11028E+1
  -9.99299E+1   2.49722E+1
  -6.43576E+1   1.68981E+2
   1.89491E+2   7.57445E+1
   8.63676E+1   5.42785E+1
  -2.55796E+1   4.91572E+1
  -2.10101E+2   1.44615E+2
   6.66518E+1  -5.71678E+1
   1.06512E+2   1.29308E+2
  -5.39034E+1   2.93454E+2
  -1.55565E+2   1.38160E+1
   6.75073E+1  -2.42014E+2
  -1.81087E+1  -2.87748E+2
   4.28541E+1   7.30113E+1
   5.43100E+1   1.45082E+1
   1.04104E+1  -1.87063E+2
   1.06830E+2  -8.90217E+1
   1.54966E+2  -1.72700E+2
   7.60494E+1  -1.56680E+2
  -2.40345E+2   1.21203E+2
   4.69920E+1   2.07543E+2
  -2.21441E+1  -2.52756E+2
   8.59452E+1  -2.16394E+2
   3.18582E+2   1.93256E+1
   5.92085E+1   3.05596E+2
   1.22642E+1  -1.36139E+2
  -3.04008E+2  -1.39968E+2
  -7.47306E+1   3.15686E+0
  -3.21561E+2  -1.10429E+2
  -1.34392E+2  -9.34978E+1
   1.36527E+1  -3.46527E+2
   2.40656E+2  -1.28005E+2
   1.57023E+2  -1.00583E+2
  -7.15079E+1   4.98177E+1
  -1.26715E+2   1.15939E+2
  -2.28361E+2  -9.33814E+1
  -1.11179E+2   2.25063E+2
  -4.06552E+1  -2.67912E+1
  -1.26916E+2   1.66734E+2
  -8.16284E+1  -9.23842E+1
   4.22428E+1  -2.06991E+2
  -1.67756E+2   7.63322E+1
  -6.01402E+1   5.25297E+1
  -1.06844E+2  -4.37137E+1
  -1.78810E+2  -2.56512E+2
  -2.69307E+1  -1.14375E+2
   1.32326E+2   9.95642E+1
   4.04241E+1  -3.28585E+1
  -6.76280E+1  -2.19906E+2
   4.88796E+1  -7.27043E+1
   9.03883E+1   2.42070E+2
  -3.24674E+1   2.56740E+2
  -1.34338E+2   8.63797E+1
   8.54874E+1  -2.41287E+2
  -5.10122E+0  -4.97721E+1
   1.89767E+2  -1.52953E+2
   1.37201E+2  -1.54633E+1
  -1.76914E+2   2.34945E+1
   1.80727E+2  -9.30771E+1
   2.45994E+2   2.08742E+1
  -6.66264E+1  -6.04543E+1
  -2.32374E+2  -9.99304E+1
   1.79074E+2  -1.51132E+2
   1.77189E+1   4.47161E+1
   1.01695E+2   5.00847E+1
   5.43210E+1  -6.20200E+1
  -6.41747E+1   1.88445E-1
  -4.97757E+1  -5.59604E+1
  -6.20838E+0  -4.36524E+1
   1.23726E+2   1.45160E+2
   1.41947E+2   1.40675E+2
  -2.68291E+2  -9.72124E+0
  -2.43187E+1   1.78265E+2
   4.03241E+1  -9.75472E+1
  -4.29294E+0  -1.42118E+1
   2.00531E+2   1.70445E+2
   2.32208E+2   1.82299E+2
   8.24694E+1  -1.01335E+2
   8.26666E+1  -1.38590E+2
   8.14494E+1  -1.65973E+2
  -5.19025E+0   1.10772E+2
  -1.31578E+2  -8.64588E+1
   1.00140E+2   1.45514E+1
   6.28508E+1   2.87455E+1
  -9.83738E+1   1.23777E+2
  -2.27970E+1   2.13209E+1
  -1.06732E+2  -1.38202E+2
  -6.12026E+1  -9.56646E+1
  -9.89176E+1   6.40638E+1
   4.20315E+1   1.04308E+2
   7.62606E+1   5.57951E+1
  -3.31498E+1  -1.00506E+2
   8.79799E+1  -6.61904E+1
   1.97385E+2   2.09118E+2
   1.02099E+2   1.61731E+2
  -1.97480E+2  -6.59619E+1
   2.95411E+1   4.31543E+1
  -1.37530E+1   2.82970E+2
   4.28473E+1   6.56447E+0
   8.07353E+1  -1.95430E+1
   1.28730E+2   5.23326E+1
   7.22107E+1  -1.46947E+2
  -7.36404E+1   6.18425E+1
   6.88756E+1   2.29405E+2
   7.93690E+1  -1.40148E+2
   9.95336E+1   7.89529E+0
  -1.21661E+1   9.36670E+1
   2.09637E+2  -6.69467E+1
   9.45174E+1  -1.60171E+2
  -1.51814E+2   6.22343E+1
  -3.47035E+2  -7.93777E+1
  -1.85666E+2  -5.55396E+0
   1.16320E+2  -6.70902E+1
  -3.77353E+2   7.82579E+0
  -1.78286E+2   8.55745E+1
  -1.09762E+2  -1.59747E+2
   1.60712E+2  -2.29922E+2
   2.47780E+2   4.28439E+1
   1.50276E+1   2.10541E+2
  -1.26042E+2  -1.62194E+2
  -1.98075E+2   1.27010E+0
  -1.83259E+2   1.97334E+2
  -2.70617E+2   6.11246E+1
  -3.74890E+1   1.13634E+2
  -7.55809E+1  -1.98560E+2
   1.24184E+2   1.98512E+1
   5.75617E+1   2.00390E+2
  -7.28586E+1   1.16972E+2
  -2.32272E+2  -3.03994E+1
  -8.07438E+1  -6.87273E+1
  -1.58550E+1  -1.36671E+2
   2.15651E+2  -2.67001E+1
   1.83335E+2   2.64704E+2
  -2.28031E+2   3.17358E+2
