 LCModel (Version 6.3-1N) Copyright: S.W. Provencher.          Ref.: Magn. Reson. Med. 30:672-679 (1993).                
 Slice_N1@19_24  28-Feb-2025 11:41:12
 27 lines in following concentration table = NCONC+1
    Conc.  %SD /Cr+PCr  Metabolite                                         
 3.40E-04   6% 5.7E-04 Mac                                                 
    4.755  23%   8.000 Cr                                                  
    0.000 999%   0.000 PCr                                                 
    3.414  43%   5.744 Ins                                                 
    5.851  25%   9.843 NAA                                                 
    4.205  39%   7.073 Tau                                                 
    0.000 999%   0.000 PCho                                                
    0.314 149%   0.528 GPC                                                 
   10.610  18%  17.848 Glu                                                 
    4.326  29%   7.278 Gln                                                 
    0.000 999%   0.000 Ala                                                 
    0.000 999%   0.000 Asc                                                 
    1.177  76%   1.980 Asp                                                 
    0.000 999%   0.000 GABA                                                
    0.300 187%   0.505 Glc                                                 
    1.395  55%   2.346 GSH                                                 
    0.000 999%   0.000 Lac                                                 
    3.661  32%   6.160 NAAG                                                
    2.312  74%   3.890 PE                                                  
    0.314 149%   0.528 GPC+PCho                                            
    9.512  13%  16.002 NAA+NAAG                                            
   14.936  14%  25.126 Glu+Gln                                             
    4.755  23%   8.000 Cr+PCr                                              
    9.512  13%  16.002 NAA+NAAG                                            
    4.755  23%   8.000 Cr+PCr                                              
   14.936  14%  25.126 Glu+Gln                                             
   6 lines in following misc. output table
  FWHM = 0.098 ppm    S/N =   3                                            
  Data shift = 0.000 ppm                                                   
  Ph: -23 deg       0.0 deg/ppm                                            
  alphaB,S = 1.8E-01,   4.8E+01                                            
   19 spline knots.   Ns =11(1)                                            
  (12) 5 infls.   (12) 2 extrs.                                            
  480 points on ppm-axis = NY
      4.100000     4.091866     4.083733     4.075600     4.067466     4.059333     4.051199     4.043066     4.034933     4.026799
      4.018666     4.010532     4.002399     3.994265     3.986132     3.977998     3.969864     3.961731     3.953597     3.945463
      3.937330     3.929196     3.921062     3.912929     3.904795     3.896662     3.888528     3.880394     3.872261     3.864127
      3.855993     3.847860     3.839726     3.831592     3.823459     3.815325     3.807191     3.799058     3.790924     3.782790
      3.774657     3.766523     3.758389     3.750256     3.742122     3.733989     3.725855     3.717721     3.709588     3.701454
      3.693320     3.685187     3.677053     3.668919     3.660786     3.652652     3.644518     3.636385     3.628251     3.620117
      3.611984     3.603850     3.595716     3.587583     3.579449     3.571316     3.563182     3.555048     3.546915     3.538781
      3.530647     3.522514     3.514380     3.506246     3.498113     3.489979     3.481845     3.473712     3.465578     3.457444
      3.449311     3.441177     3.433043     3.424910     3.416776     3.408643     3.400509     3.392375     3.384242     3.376108
      3.367974     3.359841     3.351707     3.343573     3.335440     3.327306     3.319172     3.311039     3.302905     3.294771
      3.286638     3.278504     3.270370     3.262237     3.254103     3.245970     3.237836     3.229702     3.221569     3.213435
      3.205301     3.197168     3.189034     3.180900     3.172767     3.164633     3.156499     3.148366     3.140232     3.132098
      3.123965     3.115831     3.107697     3.099564     3.091430     3.083297     3.075163     3.067029     3.058896     3.050762
      3.042628     3.034495     3.026361     3.018227     3.010094     3.001960     2.993826     2.985693     2.977559     2.969425
      2.961292     2.953158     2.945024     2.936891     2.928757     2.920624     2.912490     2.904356     2.896223     2.888089
      2.879955     2.871822     2.863688     2.855554     2.847421     2.839287     2.831153     2.823020     2.814886     2.806752
      2.798619     2.790485     2.782351     2.774218     2.766084     2.757951     2.749817     2.741683     2.733550     2.725416
      2.717282     2.709149     2.701015     2.692881     2.684748     2.676614     2.668480     2.660347     2.652213     2.644079
      2.635946     2.627812     2.619678     2.611545     2.603411     2.595278     2.587144     2.579010     2.570877     2.562743
      2.554609     2.546476     2.538342     2.530208     2.522075     2.513941     2.505807     2.497674     2.489540     2.481406
      2.473273     2.465139     2.457006     2.448872     2.440738     2.432605     2.424471     2.416337     2.408204     2.400070
      2.391936     2.383803     2.375669     2.367535     2.359402     2.351268     2.343134     2.335001     2.326867     2.318733
      2.310600     2.302466     2.294333     2.286199     2.278065     2.269932     2.261798     2.253664     2.245531     2.237397
      2.229263     2.221130     2.212996     2.204862     2.196729     2.188595     2.180461     2.172328     2.164194     2.156060
      2.147927     2.139793     2.131660     2.123526     2.115392     2.107259     2.099125     2.090991     2.082858     2.074724
      2.066590     2.058457     2.050323     2.042189     2.034056     2.025922     2.017788     2.009655     2.001521     1.993387
      1.985254     1.977120     1.968987     1.960853     1.952719     1.944586     1.936452     1.928318     1.920185     1.912051
      1.903917     1.895784     1.887650     1.879516     1.871383     1.863249     1.855115     1.846982     1.838848     1.830714
      1.822581     1.814447     1.806314     1.798180     1.790046     1.781913     1.773779     1.765645     1.757512     1.749378
      1.741244     1.733111     1.724977     1.716843     1.708710     1.700576     1.692442     1.684309     1.676175     1.668041
      1.659908     1.651774     1.643641     1.635507     1.627373     1.619240     1.611106     1.602972     1.594839     1.586705
      1.578571     1.570438     1.562304     1.554170     1.546037     1.537903     1.529769     1.521636     1.513502     1.505368
      1.497235     1.489101     1.480968     1.472834     1.464700     1.456567     1.448433     1.440299     1.432166     1.424032
      1.415898     1.407765     1.399631     1.391497     1.383364     1.375230     1.367096     1.358963     1.350829     1.342695
      1.334562     1.326428     1.318295     1.310161     1.302027     1.293894     1.285760     1.277626     1.269493     1.261359
      1.253225     1.245092     1.236958     1.228824     1.220691     1.212557     1.204423     1.196290     1.188156     1.180022
      1.171889     1.163755     1.155622     1.147488     1.139354     1.131221     1.123087     1.114953     1.106820     1.098686
      1.090552     1.082419     1.074285     1.066151     1.058018     1.049884     1.041750     1.033617     1.025483     1.017349
      1.009216     1.001082     0.992949     0.984815     0.976681     0.968548     0.960414     0.952280     0.944147     0.936013
      0.927879     0.919746     0.911612     0.903478     0.895345     0.887211     0.879077     0.870944     0.862810     0.854676
      0.846543     0.838409     0.830276     0.822142     0.814008     0.805875     0.797741     0.789607     0.781474     0.773340
      0.765206     0.757073     0.748939     0.740805     0.732672     0.724538     0.716404     0.708271     0.700137     0.692003
      0.683870     0.675736     0.667603     0.659469     0.651335     0.643202     0.635068     0.626934     0.618801     0.610667
      0.602533     0.594400     0.586266     0.578132     0.569999     0.561865     0.553731     0.545598     0.537464     0.529330
      0.521197     0.513063     0.504930     0.496796     0.488662     0.480529     0.472395     0.464261     0.456128     0.447994
      0.439861     0.431727     0.423593     0.415460     0.407326     0.399192     0.391059     0.382925     0.374792     0.366658
      0.358524     0.350391     0.342257     0.334124     0.325990     0.317856     0.309723     0.301589     0.293455     0.285322
      0.277188     0.269055     0.260921     0.252787     0.244654     0.236520     0.228386     0.220253     0.212119     0.203986
 NY phased data points follow
  -6.56321E+01 -6.71298E+01 -4.79457E+01 -7.97611E+01 -7.67657E+01 -7.70764E+01 -9.81619E+01 -6.31328E+01 -7.34722E+01 -6.99386E+01
  -8.59178E+01 -7.20362E+01 -7.84803E+01 -9.34950E+01 -7.91297E+01 -1.01582E+02 -8.53319E+01 -1.08728E+02 -1.02980E+02 -1.12259E+02
  -1.16875E+02 -1.05599E+02 -1.20321E+02 -1.07623E+02 -1.12023E+02 -7.05896E+01 -8.60027E+01 -1.00934E+02 -7.36410E+01 -6.38114E+01
  -3.63788E+01 -5.55226E+01 -6.40952E+01 -4.42419E+01 -5.25191E+01 -5.25207E+01 -4.99785E+01 -6.35505E+01 -5.92117E+01 -7.90644E+01
  -7.97691E+01 -8.01399E+01 -8.80642E+01 -7.37115E+01 -9.08910E+01 -7.74843E+01 -7.23403E+01 -6.49943E+01 -4.45810E+01 -5.13637E+01
  -3.93700E+01 -1.67588E+01 -1.22478E+01 -7.74742E+00 -1.63230E+01 -4.56556E+01 -2.69539E+01 -7.63827E+00 -1.39831E+01 -1.70147E+01
  -2.69066E+01 -4.42443E+01 -2.58328E+01 -9.60911E+00 -3.47617E+01 -1.31680E+01 -8.96257E+00 -2.78897E+01 -2.54854E+01 -3.93822E+01
  -3.98171E+01 -2.50154E+01 -6.72857E+00 -7.39488E+00 -3.96131E+01 -2.37333E+01 -3.48990E+00 -2.60316E+01 -6.94645E+00 -9.65464E+00
  -2.27733E+01 -1.23281E+00 -1.10185E+01 -2.19748E+01  5.00121E+00 -7.70906E+00 -3.73873E+01 -1.82061E+01 -9.23621E+00 -5.03426E+00
  -8.88502E+00 -8.11330E+00 -1.93029E+00  1.70045E+01  1.56797E+01  1.39051E+01  2.80787E+01  2.09485E+01  4.38576E+01  1.49306E+01
   3.56671E+01  4.45646E+01  1.12227E+01  1.58329E+01 -1.58492E+00  2.60725E+01 -2.16250E+01 -3.78884E+01 -3.03307E+01 -6.20762E+01
  -6.92982E+01 -1.08522E+02 -1.13531E+02 -1.05291E+02 -9.26799E+01 -1.00569E+02 -1.08642E+02 -1.15569E+02 -9.84872E+01 -9.61075E+01
  -1.01751E+02 -7.21641E+01 -7.59410E+01 -3.72579E+01 -4.21047E+01 -3.23746E+01 -5.10372E+00 -1.25460E+01  1.71383E+00  1.49569E+01
   3.55814E+01 -4.35948E+00  1.98115E+01  1.12777E+01 -3.54877E+01 -1.20754E+01 -4.36236E+01 -4.39993E+01 -5.88751E+01 -8.43183E+01
  -8.58662E+01 -1.14766E+02 -1.13733E+02 -1.09062E+02 -1.07148E+02 -9.63932E+01 -1.04481E+02 -1.08845E+02 -9.98830E+01 -1.10844E+02
  -1.01813E+02 -9.20658E+01 -1.09979E+02 -1.03690E+02 -1.00762E+02 -8.20834E+01 -6.39930E+01 -8.08828E+01 -7.22480E+01 -6.62783E+01
  -7.45068E+01 -7.50587E+01 -8.58013E+01 -8.74494E+01 -7.38437E+01 -6.21444E+01 -5.25485E+01 -5.46704E+01 -6.57738E+01 -6.34554E+01
  -6.22592E+01 -6.24358E+01 -5.19805E+01 -4.38558E+01 -4.74468E+01 -4.87475E+01 -3.79517E+01 -3.40373E+01 -3.22248E+01 -2.57833E+01
  -4.62344E+01 -5.92567E+01 -3.34939E+01 -5.54975E+01 -7.18427E+01 -6.35879E+01 -8.38207E+01 -6.98285E+01 -6.50493E+01 -7.33858E+01
  -7.84268E+01 -7.18180E+01 -5.85151E+01 -6.30170E+01 -6.16866E+01 -5.59316E+01 -4.46721E+01 -5.64456E+01 -5.32485E+01 -6.14924E+01
  -6.85051E+01 -5.22564E+01 -5.71807E+01 -4.83728E+01 -6.07444E+01 -6.20421E+01 -5.56853E+01 -6.02763E+01 -6.63844E+01 -7.48922E+01
  -8.83115E+01 -9.58608E+01 -7.24277E+01 -8.12943E+01 -6.54386E+01 -5.59317E+01 -5.67012E+01 -3.94521E+01 -4.46636E+01 -2.46224E+01
  -2.09601E+01 -1.62389E+01 -1.25051E+01 -3.85791E+00 -8.58253E+00 -2.40289E+01 -7.53293E+00 -7.49287E+00 -5.17925E+00 -3.61255E+01
  -5.57815E+01 -4.16136E+01 -3.45502E+01 -4.46224E+01 -6.79632E+01 -6.77572E+01 -7.95509E+01 -8.40387E+01 -1.04318E+02 -1.07319E+02
  -9.43293E+01 -1.16641E+02 -1.10898E+02 -1.06398E+02 -1.12159E+02 -1.26947E+02 -1.13598E+02 -8.05522E+01 -1.09041E+02 -1.12995E+02
  -8.35584E+01 -1.02020E+02 -1.22341E+02 -1.14626E+02 -9.00010E+01 -8.88395E+01 -1.08364E+02 -9.16096E+01 -6.52127E+01 -1.12730E+01
  -3.82388E+00 -2.29654E+01  2.81486E+01  2.81819E+01  3.29287E+01  7.00670E+01  7.08533E+01  7.55868E+01  7.79701E+01  6.83826E+01
   6.62681E+01  7.23953E+01  6.53913E+01  6.09305E+01  5.60030E+01  6.06205E+01  7.29485E+01  7.14670E+01  5.77060E+01  5.24635E+01
   6.41755E+01  5.27056E+01  5.32678E+01  5.06629E+01  4.59861E+01  6.71555E+01  5.32725E+01  5.06775E+01  4.66600E+01  1.62162E+01
   3.74900E+01  4.97882E+01  4.16700E+01  3.84802E+01  2.06214E+01  2.83741E+01  2.10187E+01  1.04085E+01  2.56557E+01  2.70700E+01
   1.71885E+00 -2.71922E+01 -4.04170E+01 -5.30952E+01 -6.45626E+01 -7.53351E+01 -8.49534E+01 -1.05537E+02 -1.07037E+02 -1.33109E+02
  -1.41892E+02 -1.06867E+02 -1.09893E+02 -6.92494E+01 -4.71570E+01 -4.45582E+01 -2.44575E+01 -1.44533E+01 -6.91038E+00 -1.62251E+01
   7.40404E+00  2.41794E+01  2.39482E+01  2.12873E+01  2.32271E+01  2.31439E+01  3.99008E+01  2.61897E+01 -1.17570E+01  2.19307E+01
   1.90996E+01 -2.99413E+00  7.28554E+00  1.32468E+01 -7.49065E+00 -2.09184E+00  2.56952E+00 -3.19935E+01 -1.80006E+01 -3.79370E+01
  -4.63993E+01 -2.29602E+01 -2.69224E+01 -1.85401E+01 -8.32588E+00  8.14362E+00 -2.59850E+00 -1.67909E+01 -1.30047E+01 -8.16940E+00
   1.01564E+01  2.24511E+00 -1.65154E-01  1.73769E+01  1.01209E+01  1.08839E+01 -1.73044E+01 -1.67324E+01 -2.23036E+00 -3.81471E+01
  -1.46520E+01 -5.81079E+00 -1.83339E+01 -8.12693E+00 -1.55271E+01 -2.04548E+01 -3.76324E-01  8.51083E+00 -1.55255E+00  1.75260E+00
  -4.54719E+00  1.65731E+01  2.10670E+01  8.30692E+00  2.11936E+01  2.40610E+01  5.92887E+00  2.30841E+01  5.25973E+01  4.53294E+01
   6.14022E+01  5.43115E+01  7.54166E+01  8.48851E+01  7.66140E+01  9.82083E+01  9.05546E+01  1.08175E+02  1.09602E+02  1.17131E+02
   1.27452E+02  1.40941E+02  1.41256E+02  1.24261E+02  1.29731E+02  1.17214E+02  1.13535E+02  9.66286E+01  1.07891E+02  1.03504E+02
   7.93179E+01  7.77800E+01  4.19291E+01  3.21873E+01  2.61814E+01  4.21639E+00  1.51984E+01  3.18748E+00 -1.11790E+01  1.45993E+01
  -2.35032E+01 -4.19801E+01 -9.88114E+00 -3.15484E+01 -3.28193E+01 -2.06727E+01 -3.59888E+01 -2.64242E+01 -1.88131E+01 -3.43199E+01
  -2.52438E+01 -3.81511E+01 -3.22306E+01 -2.91440E+01 -4.30545E+01 -2.81007E+01 -5.65375E+01 -3.41178E+01 -1.98426E+01 -3.76179E+01
  -2.12219E+01 -3.35179E+01 -3.74919E+01 -4.14833E+01 -2.69353E+01 -2.97808E+01 -5.44028E+01 -2.71824E+01 -2.32267E+01 -3.62444E+01
  -2.30442E+01 -2.94653E+01 -3.58843E+01 -3.86064E+01 -5.17427E+01 -4.28789E+01 -2.47516E+01 -2.36501E+01 -2.04771E+01 -2.49143E+01
  -2.74603E+01 -1.41705E+01 -4.30304E+01 -3.61654E+01 -1.40805E+01 -4.66402E+01 -2.86712E+01 -1.29654E+01 -2.90145E+01 -2.34015E+01
  -2.61402E+01 -3.14343E+01 -3.07323E+01 -4.58694E+01 -3.94080E+01 -2.88811E+01 -3.73957E+01 -2.31888E+01 -2.19648E+01 -2.84218E+01
  -2.96292E+01 -2.90047E+01 -2.30470E+01 -2.18773E+01 -1.57541E+01 -1.81927E+01 -2.89915E+01 -1.79390E+01 -5.99213E+00 -3.34869E+01
 NY points of the fit to the data follow
  -7.66438E+01 -7.65123E+01 -7.62295E+01 -7.57908E+01 -7.51976E+01 -7.45868E+01 -7.42672E+01 -7.47761E+01 -7.62256E+01 -7.83005E+01
  -8.02984E+01 -8.15931E+01 -8.32338E+01 -8.58140E+01 -8.90342E+01 -9.23856E+01 -9.59079E+01 -9.98449E+01 -1.03945E+02 -1.07525E+02
  -1.10123E+02 -1.11188E+02 -1.09808E+02 -1.05786E+02 -9.98865E+01 -9.33119E+01 -8.66960E+01 -7.96933E+01 -7.19222E+01 -6.30608E+01
  -5.35108E+01 -4.38527E+01 -3.51916E+01 -2.88313E+01 -2.65553E+01 -2.91502E+01 -3.38649E+01 -4.00085E+01 -4.73437E+01 -5.54529E+01
  -6.32972E+01 -6.96274E+01 -7.36191E+01 -7.52351E+01 -7.48734E+01 -7.27996E+01 -6.94049E+01 -6.49331E+01 -5.90950E+01 -5.18586E+01
  -4.35458E+01 -3.45918E+01 -2.63115E+01 -2.06219E+01 -1.77569E+01 -1.75233E+01 -1.91727E+01 -2.19512E+01 -2.45858E+01 -2.64481E+01
  -2.76818E+01 -2.83929E+01 -2.85659E+01 -2.84320E+01 -2.81523E+01 -2.79104E+01 -2.78734E+01 -2.81369E+01 -2.87787E+01 -2.96047E+01
  -2.96899E+01 -2.89043E+01 -2.76337E+01 -2.58200E+01 -2.34641E+01 -2.12746E+01 -1.93483E+01 -1.77410E+01 -1.64050E+01 -1.52253E+01
  -1.42306E+01 -1.37802E+01 -1.46713E+01 -1.67826E+01 -1.91645E+01 -2.15711E+01 -2.39295E+01 -2.59435E+01 -2.73875E+01 -2.81558E+01
  -2.82595E+01 -2.73043E+01 -2.46539E+01 -2.03868E+01 -1.45989E+01 -7.71096E+00 -8.27569E-01  5.69376E+00  1.13696E+01  1.62324E+01
   1.99050E+01  2.16131E+01  2.08071E+01  1.73475E+01  1.12780E+01  2.96537E+00 -7.21568E+00 -1.88467E+01 -3.15136E+01 -4.47244E+01
  -5.76615E+01 -6.95279E+01 -7.98966E+01 -8.84461E+01 -9.47549E+01 -9.88127E+01 -1.00816E+02 -1.00276E+02 -9.79717E+01 -9.39729E+01
  -8.87975E+01 -8.04907E+01 -6.94933E+01 -5.72250E+01 -4.46132E+01 -3.18640E+01 -1.92776E+01 -7.67213E+00  2.26857E+00  9.99172E+00
   1.46349E+01  1.51762E+01  1.16580E+01  5.33104E+00 -2.27043E+00 -1.06736E+01 -2.06738E+01 -3.24273E+01 -4.52985E+01 -5.85009E+01
  -7.11735E+01 -8.26178E+01 -9.16604E+01 -9.63717E+01 -9.66940E+01 -9.68303E+01 -9.70445E+01 -9.71441E+01 -9.70393E+01 -9.66614E+01
  -9.59676E+01 -9.49058E+01 -9.34771E+01 -9.16238E+01 -8.94676E+01 -8.72790E+01 -8.51170E+01 -8.30053E+01 -8.09090E+01 -7.89432E+01
  -7.73236E+01 -7.61978E+01 -7.53309E+01 -7.43076E+01 -7.29887E+01 -7.14950E+01 -7.01163E+01 -6.89257E+01 -6.75596E+01 -6.56552E+01
  -6.30867E+01 -6.00537E+01 -5.70457E+01 -5.44688E+01 -5.23806E+01 -5.05765E+01 -4.89822E+01 -4.78763E+01 -4.75442E+01 -4.80626E+01
  -4.96133E+01 -5.20498E+01 -5.52899E+01 -5.91930E+01 -6.31590E+01 -6.63860E+01 -6.89369E+01 -7.13811E+01 -7.38039E+01 -7.57659E+01
  -7.65505E+01 -7.62388E+01 -7.54800E+01 -7.42834E+01 -7.25360E+01 -7.04299E+01 -6.82209E+01 -6.57881E+01 -6.29640E+01 -5.98748E+01
  -5.68140E+01 -5.40196E+01 -5.18652E+01 -5.03247E+01 -5.03234E+01 -5.24572E+01 -5.62168E+01 -6.09138E+01 -6.58070E+01 -7.05562E+01
  -7.46250E+01 -7.71833E+01 -7.79414E+01 -7.67851E+01 -7.36770E+01 -6.88361E+01 -6.24486E+01 -5.50862E+01 -4.71788E+01 -3.85711E+01
  -2.93437E+01 -1.99310E+01 -1.08504E+01 -2.93595E+00  2.68250E+00  5.11883E+00  4.27527E+00 -1.11313E-01 -6.22191E+00 -1.39903E+01
  -2.27958E+01 -3.20727E+01 -4.21984E+01 -5.33071E+01 -6.49944E+01 -7.66726E+01 -8.77468E+01 -9.73768E+01 -1.05248E+02 -1.11024E+02
  -1.14307E+02 -1.14685E+02 -1.12845E+02 -1.10642E+02 -1.08488E+02 -1.05553E+02 -1.01752E+02 -1.00135E+02 -1.01278E+02 -1.03721E+02
  -1.06491E+02 -1.08505E+02 -1.08775E+02 -1.06544E+02 -1.02106E+02 -9.60747E+01 -8.84352E+01 -7.72405E+01 -6.19411E+01 -4.41124E+01
  -2.60445E+01 -9.03504E+00  7.67722E+00  2.35095E+01  3.68025E+01  4.60353E+01  5.24921E+01  5.83968E+01  6.20505E+01  6.10268E+01
   5.59108E+01  5.12377E+01  4.75097E+01  4.46145E+01  4.23654E+01  4.06195E+01  3.93228E+01  3.84547E+01  3.79362E+01  3.76556E+01
   3.74705E+01  3.72851E+01  3.69875E+01  3.65286E+01  3.57979E+01  3.46702E+01  3.30939E+01  3.09643E+01  2.82493E+01  2.49356E+01
   2.10729E+01  1.67807E+01  1.22028E+01  7.50755E+00  2.85540E+00 -1.52172E+00 -5.43605E+00 -8.81236E+00 -1.15863E+01 -1.36491E+01
  -1.49136E+01 -1.52899E+01 -1.47965E+01 -1.35126E+01 -1.14750E+01 -8.82425E+00 -5.71779E+00 -2.28945E+00  1.37015E+00  5.15706E+00
   9.02421E+00  1.29380E+01  1.68539E+01  2.07307E+01  2.45145E+01  2.81620E+01  3.16718E+01  3.50178E+01  3.80999E+01  4.07737E+01
   4.29252E+01  4.44287E+01  4.50792E+01  4.46306E+01  4.28424E+01  3.95330E+01  3.46561E+01  2.82989E+01  2.06912E+01  1.22287E+01
   3.27564E+00 -5.89245E+00 -1.49393E+01 -2.35037E+01 -3.12671E+01 -3.79666E+01 -4.33658E+01 -4.73066E+01 -4.96016E+01 -5.01687E+01
  -4.90503E+01 -4.63801E+01 -4.23546E+01 -3.73012E+01 -3.17019E+01 -2.60196E+01 -2.06588E+01 -1.58429E+01 -1.17004E+01 -8.32823E+00
  -5.85824E+00 -4.41899E+00 -4.14105E+00 -5.05862E+00 -7.01097E+00 -9.72250E+00 -1.28881E+01 -1.61523E+01 -1.92879E+01 -2.20907E+01
  -2.43690E+01 -2.59305E+01 -2.66189E+01 -2.63819E+01 -2.52166E+01 -2.31895E+01 -2.05021E+01 -1.73868E+01 -1.40359E+01 -1.05992E+01
  -7.18035E+00 -3.85692E+00 -6.52574E-01  2.49755E+00  5.72117E+00  9.20816E+00  1.32418E+01  1.81261E+01  2.41669E+01  3.15327E+01
   4.01916E+01  5.00336E+01  6.08346E+01  7.21962E+01  8.36087E+01  9.45521E+01  1.04557E+02  1.13140E+02  1.19982E+02  1.24823E+02
   1.27580E+02  1.28213E+02  1.26708E+02  1.22988E+02  1.17086E+02  1.09150E+02  9.94941E+01  8.85926E+01  7.70553E+01  6.54633E+01
   5.42775E+01  4.36460E+01  3.35967E+01  2.40850E+01  1.51375E+01  6.79294E+00 -8.40899E-01 -7.54944E+00 -1.32147E+01 -1.78512E+01
  -2.15119E+01 -2.42599E+01 -2.63053E+01 -2.78506E+01 -2.90121E+01 -2.98351E+01 -3.04381E+01 -3.08834E+01 -3.12189E+01 -3.14102E+01
  -3.14771E+01 -3.14495E+01 -3.13843E+01 -3.12886E+01 -3.11633E+01 -3.10128E+01 -3.08552E+01 -3.07085E+01 -3.05299E+01 -3.03116E+01
  -3.01028E+01 -2.99654E+01 -2.98425E+01 -2.96687E+01 -2.94571E+01 -2.92189E+01 -2.89695E+01 -2.86961E+01 -2.84338E+01 -2.82066E+01
  -2.80036E+01 -2.77978E+01 -2.75753E+01 -2.73567E+01 -2.71438E+01 -2.69485E+01 -2.67550E+01 -2.66012E+01 -2.64497E+01 -2.63323E+01
  -2.62249E+01 -2.60985E+01 -2.59476E+01 -2.57607E+01 -2.55273E+01 -2.52507E+01 -2.49784E+01 -2.47312E+01 -2.45329E+01 -2.43542E+01
  -2.41599E+01 -2.39698E+01 -2.37678E+01 -2.35574E+01 -2.33602E+01 -2.31658E+01 -2.29697E+01 -2.27552E+01 -2.25321E+01 -2.23246E+01
  -2.21765E+01 -2.20688E+01 -2.19926E+01 -2.19138E+01 -2.18729E+01 -2.18783E+01 -2.19456E+01 -2.20825E+01 -2.22748E+01 -2.24851E+01
 NY background values follow
    -5.099E+01   -5.078E+01   -5.057E+01   -5.036E+01   -5.015E+01   -4.994E+01   -4.973E+01   -4.953E+01   -4.932E+01   -4.911E+01
    -4.890E+01   -4.869E+01   -4.847E+01   -4.826E+01   -4.805E+01   -4.784E+01   -4.763E+01   -4.742E+01   -4.720E+01   -4.699E+01
    -4.678E+01   -4.656E+01   -4.635E+01   -4.613E+01   -4.591E+01   -4.570E+01   -4.548E+01   -4.526E+01   -4.504E+01   -4.482E+01
    -4.460E+01   -4.437E+01   -4.415E+01   -4.393E+01   -4.370E+01   -4.348E+01   -4.325E+01   -4.302E+01   -4.280E+01   -4.257E+01
    -4.234E+01   -4.212E+01   -4.189E+01   -4.166E+01   -4.144E+01   -4.121E+01   -4.099E+01   -4.076E+01   -4.054E+01   -4.032E+01
    -4.009E+01   -3.987E+01   -3.965E+01   -3.944E+01   -3.922E+01   -3.900E+01   -3.879E+01   -3.858E+01   -3.837E+01   -3.816E+01
    -3.795E+01   -3.775E+01   -3.755E+01   -3.735E+01   -3.715E+01   -3.695E+01   -3.676E+01   -3.657E+01   -3.638E+01   -3.620E+01
    -3.602E+01   -3.584E+01   -3.566E+01   -3.549E+01   -3.532E+01   -3.515E+01   -3.498E+01   -3.482E+01   -3.467E+01   -3.451E+01
    -3.436E+01   -3.422E+01   -3.407E+01   -3.393E+01   -3.380E+01   -3.367E+01   -3.354E+01   -3.342E+01   -3.330E+01   -3.318E+01
    -3.307E+01   -3.296E+01   -3.286E+01   -3.276E+01   -3.267E+01   -3.258E+01   -3.249E+01   -3.241E+01   -3.233E+01   -3.226E+01
    -3.218E+01   -3.211E+01   -3.205E+01   -3.198E+01   -3.192E+01   -3.186E+01   -3.181E+01   -3.175E+01   -3.170E+01   -3.165E+01
    -3.161E+01   -3.156E+01   -3.152E+01   -3.148E+01   -3.144E+01   -3.140E+01   -3.136E+01   -3.132E+01   -3.129E+01   -3.125E+01
    -3.122E+01   -3.118E+01   -3.115E+01   -3.112E+01   -3.109E+01   -3.106E+01   -3.103E+01   -3.100E+01   -3.097E+01   -3.094E+01
    -3.091E+01   -3.088E+01   -3.086E+01   -3.083E+01   -3.080E+01   -3.078E+01   -3.075E+01   -3.073E+01   -3.070E+01   -3.068E+01
    -3.066E+01   -3.063E+01   -3.061E+01   -3.059E+01   -3.056E+01   -3.054E+01   -3.052E+01   -3.050E+01   -3.048E+01   -3.046E+01
    -3.043E+01   -3.041E+01   -3.039E+01   -3.037E+01   -3.035E+01   -3.033E+01   -3.032E+01   -3.030E+01   -3.028E+01   -3.026E+01
    -3.025E+01   -3.024E+01   -3.022E+01   -3.021E+01   -3.020E+01   -3.019E+01   -3.018E+01   -3.018E+01   -3.017E+01   -3.017E+01
    -3.017E+01   -3.017E+01   -3.017E+01   -3.018E+01   -3.019E+01   -3.020E+01   -3.021E+01   -3.022E+01   -3.024E+01   -3.026E+01
    -3.028E+01   -3.031E+01   -3.033E+01   -3.036E+01   -3.039E+01   -3.043E+01   -3.047E+01   -3.051E+01   -3.055E+01   -3.059E+01
    -3.064E+01   -3.069E+01   -3.074E+01   -3.079E+01   -3.085E+01   -3.091E+01   -3.097E+01   -3.103E+01   -3.109E+01   -3.116E+01
    -3.123E+01   -3.130E+01   -3.137E+01   -3.144E+01   -3.152E+01   -3.159E+01   -3.167E+01   -3.175E+01   -3.184E+01   -3.192E+01
    -3.200E+01   -3.209E+01   -3.218E+01   -3.227E+01   -3.236E+01   -3.245E+01   -3.254E+01   -3.264E+01   -3.273E+01   -3.283E+01
    -3.293E+01   -3.302E+01   -3.312E+01   -3.322E+01   -3.332E+01   -3.343E+01   -3.353E+01   -3.363E+01   -3.374E+01   -3.384E+01
    -3.395E+01   -3.405E+01   -3.416E+01   -3.426E+01   -3.437E+01   -3.448E+01   -3.459E+01   -3.469E+01   -3.480E+01   -3.491E+01
    -3.502E+01   -3.513E+01   -3.523E+01   -3.534E+01   -3.545E+01   -3.556E+01   -3.567E+01   -3.578E+01   -3.588E+01   -3.599E+01
    -3.610E+01   -3.621E+01   -3.632E+01   -3.643E+01   -3.654E+01   -3.666E+01   -3.677E+01   -3.688E+01   -3.699E+01   -3.710E+01
    -3.722E+01   -3.733E+01   -3.745E+01   -3.756E+01   -3.768E+01   -3.779E+01   -3.791E+01   -3.803E+01   -3.815E+01   -3.826E+01
    -3.838E+01   -3.850E+01   -3.862E+01   -3.874E+01   -3.886E+01   -3.898E+01   -3.910E+01   -3.921E+01   -3.933E+01   -3.944E+01
    -3.954E+01   -3.965E+01   -3.975E+01   -3.984E+01   -3.993E+01   -4.002E+01   -4.010E+01   -4.017E+01   -4.024E+01   -4.030E+01
    -4.035E+01   -4.040E+01   -4.044E+01   -4.047E+01   -4.049E+01   -4.050E+01   -4.051E+01   -4.050E+01   -4.048E+01   -4.046E+01
    -4.042E+01   -4.037E+01   -4.031E+01   -4.024E+01   -4.015E+01   -4.006E+01   -3.995E+01   -3.984E+01   -3.972E+01   -3.958E+01
    -3.943E+01   -3.928E+01   -3.911E+01   -3.894E+01   -3.875E+01   -3.855E+01   -3.835E+01   -3.813E+01   -3.791E+01   -3.768E+01
    -3.743E+01   -3.718E+01   -3.692E+01   -3.665E+01   -3.637E+01   -3.608E+01   -3.578E+01   -3.548E+01   -3.516E+01   -3.484E+01
    -3.451E+01   -3.417E+01   -3.382E+01   -3.347E+01   -3.311E+01   -3.274E+01   -3.237E+01   -3.199E+01   -3.161E+01   -3.122E+01
    -3.083E+01   -3.044E+01   -3.004E+01   -2.964E+01   -2.923E+01   -2.883E+01   -2.842E+01   -2.801E+01   -2.760E+01   -2.719E+01
    -2.678E+01   -2.637E+01   -2.596E+01   -2.556E+01   -2.515E+01   -2.475E+01   -2.435E+01   -2.395E+01   -2.356E+01   -2.317E+01
    -2.279E+01   -2.241E+01   -2.203E+01   -2.166E+01   -2.129E+01   -2.093E+01   -2.058E+01   -2.023E+01   -1.988E+01   -1.954E+01
    -1.920E+01   -1.887E+01   -1.855E+01   -1.823E+01   -1.792E+01   -1.761E+01   -1.731E+01   -1.701E+01   -1.672E+01   -1.643E+01
    -1.616E+01   -1.588E+01   -1.562E+01   -1.536E+01   -1.510E+01   -1.486E+01   -1.462E+01   -1.438E+01   -1.415E+01   -1.393E+01
    -1.372E+01   -1.351E+01   -1.331E+01   -1.312E+01   -1.293E+01   -1.275E+01   -1.257E+01   -1.240E+01   -1.224E+01   -1.209E+01
    -1.194E+01   -1.179E+01   -1.165E+01   -1.152E+01   -1.139E+01   -1.127E+01   -1.116E+01   -1.105E+01   -1.094E+01   -1.084E+01
    -1.075E+01   -1.066E+01   -1.057E+01   -1.049E+01   -1.042E+01   -1.035E+01   -1.028E+01   -1.022E+01   -1.017E+01   -1.012E+01
    -1.007E+01   -1.003E+01   -9.987E+00   -9.952E+00   -9.921E+00   -9.894E+00   -9.871E+00   -9.851E+00   -9.835E+00   -9.822E+00
    -9.811E+00   -9.804E+00   -9.800E+00   -9.798E+00   -9.800E+00   -9.803E+00   -9.809E+00   -9.817E+00   -9.827E+00   -9.839E+00
    -9.853E+00   -9.868E+00   -9.885E+00   -9.903E+00   -9.923E+00   -9.944E+00   -9.966E+00   -9.989E+00   -1.001E+01   -1.004E+01
    -1.006E+01   -1.009E+01   -1.011E+01   -1.014E+01   -1.016E+01   -1.019E+01   -1.022E+01   -1.025E+01   -1.027E+01   -1.030E+01
    -1.033E+01   -1.036E+01   -1.039E+01   -1.042E+01   -1.045E+01   -1.048E+01   -1.051E+01   -1.054E+01   -1.057E+01   -1.060E+01
    -1.063E+01   -1.066E+01   -1.069E+01   -1.072E+01   -1.075E+01   -1.078E+01   -1.081E+01   -1.083E+01   -1.086E+01   -1.089E+01
 Mac      Conc. = 3.40E-04
  -6.97937E+01 -6.99989E+01 -7.02452E+01 -7.05758E+01 -7.09803E+01 -7.14677E+01 -7.20646E+01 -7.29510E+01 -7.41635E+01 -7.56214E+01
  -7.72812E+01 -7.91368E+01 -8.11701E+01 -8.32601E+01 -8.53026E+01 -8.71270E+01 -8.84998E+01 -8.91989E+01 -8.91712E+01 -8.85005E+01
  -8.73164E+01 -8.57207E+01 -8.37376E+01 -8.13683E+01 -7.85910E+01 -7.53859E+01 -7.18295E+01 -6.81565E+01 -6.46874E+01 -6.16586E+01
  -5.90613E+01 -5.67287E+01 -5.46929E+01 -5.29506E+01 -5.13556E+01 -4.97926E+01 -4.81866E+01 -4.65369E+01 -4.48680E+01 -4.32643E+01
  -4.17530E+01 -4.02418E+01 -3.86419E+01 -3.69516E+01 -3.52176E+01 -3.35186E+01 -3.20063E+01 -3.08419E+01 -3.01304E+01 -2.98887E+01
  -3.00238E+01 -3.03506E+01 -3.07541E+01 -3.12310E+01 -3.17642E+01 -3.22970E+01 -3.27350E+01 -3.29388E+01 -3.28476E+01 -3.24776E+01
  -3.19377E+01 -3.13233E+01 -3.07161E+01 -3.01945E+01 -2.97354E+01 -2.93293E+01 -2.89263E+01 -2.85039E+01 -2.80931E+01 -2.76563E+01
  -2.70847E+01 -2.63401E+01 -2.55190E+01 -2.46631E+01 -2.37489E+01 -2.27921E+01 -2.18229E+01 -2.09059E+01 -2.00752E+01 -1.93375E+01
  -1.87167E+01 -1.82858E+01 -1.81156E+01 -1.81309E+01 -1.81351E+01 -1.80054E+01 -1.76593E+01 -1.70191E+01 -1.61082E+01 -1.49623E+01
  -1.36807E+01 -1.23311E+01 -1.09741E+01 -9.69600E+00 -8.57997E+00 -7.64174E+00 -6.86418E+00 -6.30454E+00 -6.10688E+00 -6.41517E+00
  -7.34842E+00 -9.06234E+00 -1.16700E+01 -1.51717E+01 -1.95253E+01 -2.46077E+01 -3.02030E+01 -3.59890E+01 -4.16678E+01 -4.70026E+01
