 
 $NMID
 ID=''
 FMTDAT='(2E13.5)'
 TRAMP=   1.00000E+0
 VOLUME=   1.00000E+0
 $END
   5.43138E+5   6.81828E+5
   7.16557E+5   2.18085E+6
   8.92797E+5   2.02438E+6
   7.25824E+5   1.96613E+6
   7.71924E+5   2.06677E+6
   8.71123E+5   1.96820E+6
   8.10409E+5   1.92736E+6
   8.20979E+5   1.99372E+6
   8.50161E+5   1.94112E+6
   7.82421E+5   1.92477E+6
   7.79292E+5   1.96130E+6
   7.86869E+5   1.91353E+6
   7.36356E+5   1.90036E+6
   7.24608E+5   1.93022E+6
   7.08810E+5   1.89554E+6
   6.61293E+5   1.88106E+6
   6.60216E+5   1.90056E+6
   6.60439E+5   1.87390E+6
   6.34378E+5   1.85515E+6
   6.47449E+5   1.85395E+6
   6.47921E+5   1.82785E+6
   6.24281E+5   1.81671E+6
   6.24257E+5   1.81516E+6
   6.19249E+5   1.79290E+6
   5.92930E+5   1.78160E+6
   5.90169E+5   1.77413E+6
   5.74008E+5   1.75966E+6
   5.43332E+5   1.75439E+6
   5.26806E+5   1.74589E+6
   5.16291E+5   1.72623E+6
   4.99124E+5   1.71972E+6
   4.94174E+5   1.70853E+6
   4.85920E+5   1.68796E+6
   4.77819E+5   1.67592E+6
   4.78015E+5   1.66048E+6
   4.79461E+5   1.64064E+6
   4.78031E+5   1.63036E+6
   4.75265E+5   1.61798E+6
   4.64935E+5   1.59853E+6
   4.54990E+5   1.58650E+6
   4.45597E+5   1.57320E+6
   4.32313E+5   1.55676E+6
   4.20667E+5   1.54271E+6
   4.11233E+5   1.53022E+6
   3.96338E+5   1.51573E+6
   3.82754E+5   1.50490E+6
   3.72058E+5   1.49229E+6
   3.60176E+5   1.47670E+6
   3.51385E+5   1.46013E+6
   3.46252E+5   1.44533E+6
   3.39725E+5   1.43067E+6
   3.31974E+5   1.41710E+6
   3.26236E+5   1.40338E+6
   3.18517E+5   1.38931E+6
   3.08891E+5   1.37532E+6
   2.99333E+5   1.36164E+6
   2.87525E+5   1.34746E+6
   2.76028E+5   1.33230E+6
   2.67341E+5   1.31720E+6
   2.58295E+5   1.30429E+6
   2.47487E+5   1.29156E+6
   2.37293E+5   1.27783E+6
   2.28749E+5   1.26435E+6
   2.18997E+5   1.25053E+6
   2.10497E+5   1.23569E+6
   2.03334E+5   1.22042E+6
   1.96532E+5   1.20607E+6
   1.88827E+5   1.19215E+6
   1.80974E+5   1.17946E+6
   1.71873E+5   1.16717E+6
   1.62133E+5   1.15380E+6
   1.53997E+5   1.13935E+6
   1.46246E+5   1.12616E+6
   1.37384E+5   1.11403E+6
   1.28595E+5   1.10064E+6
   1.20647E+5   1.08659E+6
   1.13296E+5   1.07361E+6
   1.06800E+5   1.06095E+6
   9.93895E+4   1.04797E+6
   9.17174E+4   1.03461E+6
   8.47926E+4   1.02117E+6
   7.87511E+4   1.00751E+6
   7.19534E+4   9.95261E+5
   6.41172E+4   9.82487E+5
   5.58600E+4   9.69089E+5
   4.86940E+4   9.56357E+5
   4.16535E+4   9.43628E+5
   3.48305E+4   9.31407E+5
   2.77097E+4   9.18724E+5
   2.13733E+4   9.05707E+5
   1.62297E+4   8.92492E+5
   1.12215E+4   8.80099E+5
   6.29280E+3   8.67996E+5
   1.55510E+3   8.55219E+5
  -2.07399E+3   8.41753E+5
  -4.76593E+3   8.28991E+5
  -8.17351E+3   8.17129E+5
  -1.19914E+4   8.05311E+5
  -1.61460E+4   7.93299E+5
  -1.96428E+4   7.80753E+5
  -2.29998E+4   7.68616E+5
  -2.71781E+4   7.57135E+5
  -3.22229E+4   7.44273E+5
  -3.58102E+4   7.31258E+5
  -3.85902E+4   7.18997E+5
  -4.10686E+4   7.07641E+5
  -4.46800E+4   6.96296E+5
  -4.84939E+4   6.84376E+5
  -5.09039E+4   6.71676E+5
  -5.23274E+4   6.59638E+5
  -5.41269E+4   6.48266E+5
  -5.71634E+4   6.37758E+5
  -6.03850E+4   6.26254E+5
  -6.34281E+4   6.14825E+5
  -6.58964E+4   6.03700E+5
  -6.88274E+4   5.92396E+5
  -7.22911E+4   5.81149E+5
  -7.47189E+4   5.69317E+5
  -7.63313E+4   5.57585E+5
  -7.77520E+4   5.47039E+5
  -7.95592E+4   5.36716E+5
  -8.21193E+4   5.26448E+5
  -8.39685E+4   5.16205E+5
  -8.64633E+4   5.05884E+5
  -8.87205E+4   4.95323E+5
  -9.01798E+4   4.84682E+5
  -9.20444E+4   4.74271E+5
  -9.36876E+4   4.64347E+5
  -9.61260E+4   4.54435E+5
  -9.82652E+4   4.44681E+5
  -1.01017E+5   4.35320E+5
  -1.03577E+5   4.24971E+5
  -1.05402E+5   4.14765E+5
  -1.06880E+5   4.05230E+5
  -1.08639E+5   3.96297E+5
  -1.10515E+5   3.86578E+5
  -1.11495E+5   3.77656E+5
  -1.12837E+5   3.68736E+5
  -1.14210E+5   3.60358E+5
  -1.15914E+5   3.51422E+5
  -1.17204E+5   3.42190E+5
  -1.18196E+5   3.33345E+5
  -1.18332E+5   3.24766E+5
  -1.19315E+5   3.16356E+5
  -1.20458E+5   3.08580E+5
  -1.21554E+5   3.00200E+5
  -1.22273E+5   2.91653E+5
  -1.22765E+5   2.83329E+5
  -1.23286E+5   2.75468E+5
  -1.23580E+5   2.67606E+5
  -1.23869E+5   2.59759E+5
  -1.24096E+5   2.52193E+5
  -1.23904E+5   2.45158E+5
  -1.24068E+5   2.38067E+5
  -1.23912E+5   2.30774E+5
  -1.23881E+5   2.23446E+5
  -1.23542E+5   2.16821E+5
  -1.23123E+5   2.10102E+5
  -1.23123E+5   2.03528E+5
  -1.22370E+5   1.96942E+5
  -1.21735E+5   1.90197E+5
  -1.21499E+5   1.84002E+5
  -1.20771E+5   1.77512E+5
  -1.20141E+5   1.71087E+5
  -1.19503E+5   1.65204E+5
  -1.18511E+5   1.59277E+5
  -1.17802E+5   1.53823E+5
  -1.17260E+5   1.48129E+5
  -1.16795E+5   1.42134E+5
  -1.15782E+5   1.36730E+5
  -1.14466E+5   1.31550E+5
  -1.13572E+5   1.26429E+5
  -1.12978E+5   1.21269E+5
  -1.12231E+5   1.16105E+5
  -1.11419E+5   1.10795E+5
  -1.10007E+5   1.06258E+5
  -1.09424E+5   1.01294E+5
  -1.08355E+5   9.65223E+4
  -1.07607E+5   9.15505E+4
  -1.06129E+5   8.70982E+4
  -1.05078E+5   8.27908E+4
  -1.04203E+5   7.86408E+4
  -1.03096E+5   7.41586E+4
  -1.02587E+5   6.97426E+4
  -1.01322E+5   6.56932E+4
  -1.00028E+5   6.14850E+4
  -9.85450E+4   5.79648E+4
  -9.71353E+4   5.40187E+4
  -9.57131E+4   5.02559E+4
  -9.46084E+4   4.67837E+4
  -9.38693E+4   4.34392E+4
  -9.25357E+4   3.96134E+4
  -9.13575E+4   3.60063E+4
  -8.99710E+4   3.22381E+4
  -8.85933E+4   2.89657E+4
  -8.71807E+4   2.58140E+4
  -8.54167E+4   2.25102E+4
  -8.43417E+4   1.93496E+4
  -8.32286E+4   1.64132E+4
  -8.16265E+4   1.32609E+4
  -8.03322E+4   1.02672E+4
  -7.86565E+4   7.20491E+3
  -7.69671E+4   4.55168E+3
  -7.55247E+4   1.64904E+3
  -7.39887E+4  -1.07309E+3
  -7.28298E+4  -3.51993E+3
  -7.10748E+4  -6.12584E+3
  -6.95482E+4  -8.80735E+3
  -6.77623E+4  -1.09848E+4
  -6.65040E+4  -1.35291E+4
  -6.47417E+4  -1.57572E+4
  -6.30070E+4  -1.79509E+4
  -6.14346E+4  -2.01674E+4
  -6.01054E+4  -2.20580E+4
  -5.82469E+4  -2.44635E+4
  -5.68862E+4  -2.61397E+4
  -5.51894E+4  -2.83944E+4
  -5.35610E+4  -2.99567E+4
  -5.21211E+4  -3.17964E+4
  -5.03932E+4  -3.35543E+4
  -4.90454E+4  -3.51970E+4
  -4.73768E+4  -3.67976E+4
  -4.57912E+4  -3.82988E+4
  -4.40739E+4  -3.94288E+4
  -4.26211E+4  -4.10884E+4
  -4.11260E+4  -4.24427E+4
  -3.93596E+4  -4.35639E+4
  -3.78912E+4  -4.47325E+4
  -3.66841E+4  -4.59184E+4
  -3.50086E+4  -4.71397E+4
  -3.33279E+4  -4.80282E+4
  -3.18757E+4  -4.89898E+4
  -3.04600E+4  -4.98777E+4
  -2.90459E+4  -5.07958E+4
  -2.77607E+4  -5.16550E+4
  -2.60952E+4  -5.25015E+4
  -2.49063E+4  -5.31379E+4
  -2.34698E+4  -5.36757E+4
  -2.20931E+4  -5.45149E+4
  -2.09060E+4  -5.50024E+4
  -1.97079E+4  -5.55279E+4
  -1.82771E+4  -5.60204E+4
  -1.67899E+4  -5.64795E+4
  -1.56874E+4  -5.71488E+4
  -1.44216E+4  -5.70831E+4
  -1.32282E+4  -5.77256E+4
  -1.17376E+4  -5.80798E+4
  -1.04827E+4  -5.81882E+4
  -9.54065E+3  -5.86345E+4
  -8.07194E+3  -5.87418E+4
  -7.05657E+3  -5.88081E+4
  -5.84131E+3  -5.92367E+4
  -4.68296E+3  -5.93793E+4
  -3.56859E+3  -5.95194E+4
  -2.43744E+3  -5.94898E+4
  -1.29817E+3  -5.94067E+4
   6.13149E+1  -5.95389E+4
   1.05132E+3  -5.95060E+4
   2.08686E+3  -5.96168E+4
   3.08724E+3  -5.96398E+4
   4.23858E+3  -5.92946E+4
   5.56958E+3  -5.92594E+4
   6.30090E+3  -5.91339E+4
   7.27124E+3  -5.90826E+4
   8.56327E+3  -5.88000E+4
   9.17838E+3  -5.86822E+4
   1.04829E+4  -5.83332E+4
   1.11778E+4  -5.80002E+4
   1.23399E+4  -5.76217E+4
   1.31542E+4  -5.74250E+4
   1.40220E+4  -5.69606E+4
   1.50344E+4  -5.68675E+4
   1.58387E+4  -5.64049E+4
   1.66909E+4  -5.60602E+4
   1.75012E+4  -5.55415E+4
   1.87057E+4  -5.51937E+4
   1.94952E+4  -5.44899E+4
   2.03153E+4  -5.41079E+4
   2.06962E+4  -5.37162E+4
   2.17457E+4  -5.31095E+4
   2.24528E+4  -5.22695E+4
   2.32624E+4  -5.18074E+4
   2.41700E+4  -5.16821E+4
   2.49542E+4  -5.08772E+4
   2.55744E+4  -5.03674E+4
   2.60876E+4  -4.96678E+4
   2.66660E+4  -4.89316E+4
   2.72379E+4  -4.83655E+4
   2.79966E+4  -4.78993E+4
   2.84953E+4  -4.73726E+4
   2.91261E+4  -4.64872E+4
   2.98302E+4  -4.55485E+4
   3.04091E+4  -4.52979E+4
   3.07864E+4  -4.45884E+4
   3.17317E+4  -4.36791E+4
   3.18777E+4  -4.29494E+4
   3.25042E+4  -4.25380E+4
   3.30311E+4  -4.15923E+4
   3.36697E+4  -4.08775E+4
   3.37762E+4  -4.01075E+4
   3.42572E+4  -3.91976E+4
   3.47068E+4  -3.86851E+4
   3.52945E+4  -3.79074E+4
   3.58358E+4  -3.72842E+4
   3.60430E+4  -3.62576E+4
   3.64339E+4  -3.59519E+4
   3.69220E+4  -3.51067E+4
   3.72397E+4  -3.39126E+4
   3.74966E+4  -3.33363E+4
   3.75754E+4  -3.24929E+4
   3.81997E+4  -3.20959E+4
   3.83344E+4  -3.14220E+4
   3.86023E+4  -3.05183E+4
   3.87208E+4  -2.96198E+4
   3.91216E+4  -2.88091E+4
   3.93212E+4  -2.81024E+4
   3.96810E+4  -2.72720E+4
   3.97912E+4  -2.65706E+4
   3.98585E+4  -2.58214E+4
   4.00430E+4  -2.50826E+4
   4.02127E+4  -2.42574E+4
   4.03493E+4  -2.33944E+4
   4.04997E+4  -2.29616E+4
   4.05523E+4  -2.22549E+4
   4.05702E+4  -2.13956E+4
   4.06921E+4  -2.06746E+4
   4.08684E+4  -1.96968E+4
   4.09400E+4  -1.90594E+4
   4.10365E+4  -1.81587E+4
   4.09928E+4  -1.74018E+4
   4.08244E+4  -1.66070E+4
   4.09961E+4  -1.59372E+4
   4.10440E+4  -1.51545E+4
   4.10419E+4  -1.45914E+4
   4.10923E+4  -1.38356E+4
   4.11523E+4  -1.29932E+4
   4.09691E+4  -1.22821E+4
   4.11472E+4  -1.14479E+4
   4.07695E+4  -1.08889E+4
   4.09621E+4  -1.01917E+4
   4.05521E+4  -9.43286E+3
   4.06754E+4  -8.74909E+3
   4.06298E+4  -7.97493E+3
   4.05620E+4  -7.39850E+3
   4.06122E+4  -6.60512E+3
   4.04100E+4  -5.68169E+3
   4.01693E+4  -5.31230E+3
   3.99907E+4  -4.42738E+3
   3.98654E+4  -4.03242E+3
   3.97318E+4  -3.40291E+3
   3.97531E+4  -2.54766E+3
   3.92459E+4  -1.75659E+3
   3.91027E+4  -1.24493E+3
   3.89313E+4  -6.18771E+2
   3.88154E+4  -7.66875E+1
   3.84138E+4   5.58327E+2
   3.82464E+4   7.65022E+2
   3.80261E+4   1.57875E+3
   3.76737E+4   2.11398E+3
   3.78227E+4   2.67273E+3
   3.74192E+4   3.33478E+3
   3.70249E+4   3.87781E+3
   3.66977E+4   4.30267E+3
   3.64721E+4   4.47758E+3
   3.64436E+4   5.27193E+3
   3.59816E+4   5.57860E+3
   3.56407E+4   6.01284E+3
