 
 $NMID
 ID=''
 FMTDAT='(2E13.5)'
 TRAMP=   1.00000E+0
 VOLUME=   1.00000E+0
 $END
   2.29808E+4   1.17753E+4
   4.03660E+4  -5.16060E+3
   8.04223E+3  -4.02451E+4
  -3.80508E+4  -2.89210E+3
  -1.09964E+4   3.75662E+4
   3.35920E+4   6.32052E+3
   1.32767E+4  -2.71005E+4
  -2.07501E+4  -5.47748E+3
  -1.00578E+4   1.88380E+4
   1.11044E+4   9.24562E+3
   7.13460E+3  -8.43003E+3
  -6.35823E+3  -8.01369E+3
  -8.08287E+3   4.23905E+3
   1.08154E+3   5.12253E+3
   5.99198E+3  -4.60584E+3
   1.23353E+3  -5.04384E+3
  -3.01130E+3   2.04182E+3
  -1.67970E+3   2.69356E+3
   2.31057E+3   2.35062E+2
   2.82581E+3  -2.44890E+2
  -1.34128E+3  -1.67317E+3
  -1.90309E+3  -8.36806E+2
   7.01565E+2   2.88938E+3
   4.43763E+2   1.94822E+3
  -6.40065E+2  -2.18202E+3
   1.48406E+3  -9.33046E+2
   4.39749E+2   2.24535E+3
  -2.83594E+3   1.17050E+3
  -1.50645E+3  -1.87352E+3
   1.09073E+3  -3.35194E+2
   5.56687E+2   1.89623E+3
  -1.40818E+3   1.58107E+2
  -1.90224E+3  -2.19675E+3
  -9.56044E+2  -1.54691E+3
   1.86362E+3  -1.46372E+2
   2.49332E+3   8.07319E+2
  -2.69750E+2   1.24981E+3
  -1.61535E+3   9.32200E+2
   1.05206E+1   5.74173E+2
   4.41093E+2   3.15047E+2
  -1.28620E+3  -7.42498E+2
  -5.25295E+2  -9.12791E+2
   1.52698E+3   4.13023E+2
   1.61154E+3   3.58075E+2
   5.14491E+2  -2.43030E+2
  -3.15921E+2   1.33202E+3
  -1.23116E+3   2.19066E+3
  -1.56194E+3  -5.25500E+2
  -4.27053E+2  -2.60516E+3
   6.71928E+2  -1.09141E+3
   6.58389E+2   6.08345E+1
   8.57657E+2  -9.13922E+2
   5.88305E+2  -4.42205E+2
  -2.55777E+1   1.09874E+3
  -4.36487E+2   1.08494E+3
   1.03011E+2  -2.76893E+2
  -5.36233E+2  -8.86040E+2
  -2.41813E+2  -7.02199E+2
   1.00940E+3  -1.14761E+2
   1.47024E+3  -2.24423E+1
   5.04898E+2   3.11157E+2
  -5.19918E+2   1.08993E+3
  -5.55505E+2   1.07895E+3
  -1.04912E+3   2.19252E+2
  -1.53069E+3  -1.13045E+3
  -7.53033E+2  -1.30396E+3
   6.73490E+2  -1.23519E+3
   1.52081E+3  -8.80028E+2
   7.85839E+2   2.44129E+2
  -5.20168E+2   5.78677E+2
  -4.49190E+2  -2.11279E+2
   9.10722E+2  -7.23046E+2
   9.11694E+2   4.27213E+2
  -5.30825E+2   1.13099E+3
  -8.45965E+2   1.06007E+2
   3.11304E+2  -6.19024E+2
   3.79727E+2   1.38381E+2
  -4.99711E+2   5.73848E+2
  -5.76076E+2   3.66203E+2
  -7.61638E+1  -2.63046E+2
  -2.94724E+2  -5.82950E+2
  -3.45846E+2  -4.28601E+2
   6.36975E+1  -3.91129E+2
   3.92980E+2  -2.23106E+2
   3.87973E+1  -5.78840E+2
  -4.17243E+1  -6.24932E+2
   5.60892E+2   2.42367E+2
   5.60071E+2   3.53344E+2
  -1.09108E+2   2.21660E+2
   1.93793E+2  -2.45627E+1
   5.34739E+2   6.14335E+2
   2.25496E+1   8.58687E+2
  -8.11788E+2   3.11816E+2
  -9.60362E+2  -3.41543E+2
   7.33970E+1  -6.51194E+2
   9.01962E+2  -5.21928E+2
   3.05744E+2  -1.73170E+2
  -1.09635E+2  -2.05398E+2
   3.48583E+2  -8.53173E+1
   8.89819E+2   2.98148E+1
   5.23301E+2   4.14116E+2
  -2.06296E+2  -1.39498E+1
  -4.71265E+2  -1.12172E+2
  -1.96829E+2  -4.86108E+2
   3.43515E+2  -3.12187E+2
   5.53900E+2   5.50907E+2
  -3.90774E+2   8.47846E+2
  -9.28852E+2  -1.62439E+2
  -2.43035E+2  -1.37902E+3
   1.11170E+3  -9.14304E+2
   1.16995E+3   4.31887E+2
   2.59036E+2   7.15596E+2
  -1.89569E+2   2.49742E+2
  -6.79243E+1   2.23497E+2
  -2.50641E+2   4.50941E+2
  -6.46563E+2   1.41778E+2
  -1.07125E+3  -5.81304E+2
  -7.09177E+2  -8.95099E+2
   1.52689E+2  -9.53605E+2
   6.97029E+2  -3.46207E+2
   5.76719E+2   1.63312E+2
   3.94633E+2   5.43706E+2
  -1.69003E+2   6.39158E+2
  -1.67592E+2   5.21780E+2
  -4.41393E+2   1.54688E+1
  -1.71826E+2  -1.18228E+2
  -8.80601E+1  -3.23842E+2
   1.13461E+2  -2.21515E+2
   1.23651E+2   1.95805E+2
  -7.09912E+1   6.41881E+2
  -7.22953E+2   6.87905E+2
  -6.21401E+2  -1.74813E+2
   2.31298E+2  -2.57806E+2
   2.17574E+2   1.19115E+2
  -2.46294E+2  -2.71036E+1
   1.44337E+1  -2.44929E+2
   6.47126E+2   2.15760E+2
   4.10968E+2   6.15912E+2
  -1.68966E+2   5.55488E+2
  -6.32156E+2   3.63254E+2
  -4.20237E+2  -7.36896E+1
   3.99326E+2  -2.00983E+2
   5.15532E+2  -2.17827E+2
   4.19457E+2   5.96420E+2
  -1.02293E+2   7.77584E+2
  -5.42325E+2   3.69378E+2
  -1.89127E+2  -2.62622E+2
  -1.64713E+2   7.73580E+1
  -2.81795E+2   1.03348E+2
  -2.29482E+2  -2.19688E+2
   4.18218E+2  -4.20462E+2
   7.46735E+2  -2.70918E+2
   5.44445E+2   5.90443E+2
   1.04585E+2   7.04771E+2
  -6.10919E+1   3.44030E+2
  -3.15353E+1  -4.41427E+1
   3.16788E+2   1.23524E+2
   2.33981E+2   3.70612E+2
  -1.12502E+2   2.68866E+2
   2.19939E+2   1.45869E+2
   4.26998E+1   7.30698E+1
  -4.17303E+1   6.80429E+1
  -6.78300E+1  -6.40102E+1
  -8.25802E+1  -3.79855E+2
   2.10518E+2  -5.52851E+2
   4.88231E+2  -4.46733E+2
   3.06143E+2   2.56639E+2
   1.61567E+2   9.09509E+1
  -2.71162E+2  -1.11743E+2
   3.34432E+2  -1.92536E+2
   3.45880E+2   5.25437E+1
   1.20526E+2   8.62864E+1
  -3.58749E+1   3.01389E+1
   4.94061E+1  -2.57813E+2
   2.22808E+2   1.23542E+2
   1.70045E+2   1.63282E+2
  -1.24538E+2   4.55624E+2
  -2.55840E+2  -1.17075E+2
  -8.75392E+1  -3.20013E+2
   3.99261E+2  -2.70981E+2
   1.98519E+2   4.70970E+2
   1.42252E+2   5.39803E+2
  -1.49744E+2   4.51719E+0
  -2.40789E+2  -1.72223E+2
  -2.38174E+2  -1.34196E+2
   1.14822E+2  -2.71387E+2
  -1.81137E+2  -4.60242E+2
   1.70173E+2  -4.40400E+2
   3.56762E+2  -2.13020E+2
   6.48217E+2   2.56634E+2
   1.34065E+2   5.63578E+2
  -5.78687E+2   3.45290E+2
  -5.20867E+2  -3.59336E+1
  -1.76175E+2  -2.90636E+2
  -3.75306E+1  -2.76600E+2
   3.77519E+1   4.47679E+1
  -4.77401E+1  -6.69299E+1
   1.88214E+2   8.11877E+1
  -5.65928E+1   2.77210E+2
  -3.58902E+2   2.79091E+2
  -3.54842E+2  -4.10852E+1
  -2.90456E+2  -2.15467E+2
   1.45612E+2  -1.77346E+2
   3.28907E+2   2.99883E+1
   1.98561E+2  -6.26931E+1
   8.61170E+1   3.29439E+2
  -1.21007E+2   2.58728E+2
  -1.49596E+2   2.93548E+1
  -7.10442E+1   5.60113E+1
  -2.10603E+2   1.22046E+2
  -1.73396E+2  -1.97128E+2
   2.52217E+2  -2.22077E+2
   5.93253E+2   1.22575E+2
   1.70152E+2   6.32487E+2
  -5.18572E+2   3.91926E+2
  -5.33065E+2  -1.17030E+2
  -2.02048E+2  -2.15431E+2
   8.66042E+1  -1.95920E+2
   3.54479E+1  -2.39666E+2
   8.56752E+1  -7.47884E+0
   6.48011E+1  -5.65589E+1
   4.42158E+2   1.16344E+2
   5.76715E+1   4.64254E+2
  -1.29760E+2   3.28354E+2
  -3.90928E+2   4.45608E+1
  -5.28163E+1  -2.75674E+2
   1.74147E+2  -2.08741E+2
   5.39730E+1  -2.32948E+1
   1.08346E+2   1.89221E+2
  -7.74593E+1  -1.08507E+2
   2.66293E+1  -1.84796E+2
   1.12455E+2  -1.68459E+2
   1.13682E+1   4.75126E+1
  -2.27798E+2   2.68446E+1
  -1.32372E+2  -2.60513E+2
  -1.83684E+2  -8.30899E+1
   5.44046E+1   1.88660E+2
   7.87484E+1   6.25772E+1
  -1.45837E+2  -1.25335E+2
   2.64613E+1  -1.69872E+2
  -9.62508E+1  -4.19826E+1
   3.61584E+1   1.61317E+2
  -1.03625E+2   1.17360E+1
  -2.93024E+2   2.15629E+2
   9.92616E+1  -2.53540E+2
   9.22071E+1  -3.62997E+1
  -2.35820E+2   1.82349E+2
  -1.65301E+2  -5.88275E+1
  -4.52158E+1  -2.73549E+2
  -1.37173E+2  -1.40510E+2
   9.13676E+1  -6.23424E+1
  -1.47589E+2   3.64682E+2
  -3.89759E+2   2.78729E+2
  -2.12241E+2  -3.82337E+2
   9.44167E+0  -1.32815E+2
   6.86116E+1  -9.25318E+1
   2.90392E+2   3.33086E+2
   7.46513E+1   1.31557E+2
  -4.63964E+0   1.02328E+2
  -6.55124E+1   1.05269E+2
  -8.41124E+1   7.97040E+1
  -2.53057E+2  -5.01670E+1
  -2.31589E+2   4.76784E+1
   2.08495E+2  -2.29723E+2
  -8.96240E+1  -3.93147E+2
   4.93847E+1   1.36578E+2
  -5.62582E+1   2.84448E+2
  -2.90684E+2  -7.18227E+1
  -1.68755E+2  -6.59864E+1
  -1.32254E+2  -7.95259E+1
  -1.07423E+2  -1.96998E+1
  -1.63891E+1   1.39673E+2
   1.48701E+1  -7.92214E+1
   1.83592E+2  -1.86173E+1
   1.79915E+1   1.77495E+2
  -2.54455E+2   4.73806E+1
  -2.19737E+2   1.72535E+1
   1.03944E+1  -6.44702E+1
  -1.07651E+2  -5.78645E+1
   9.37339E+1   1.46042E+2
  -6.94383E+1  -4.69293E+1
   6.48629E+1   1.89605E+2
   2.64483E+0  -8.43740E+0
   2.55351E+1   1.01250E+2
  -3.82383E+2   1.59144E+1
  -4.75583E+2   5.48754E+1
  -2.67526E+1  -2.06328E+2
   1.43400E+2  -2.39869E+2
   2.84342E+2   2.75910E+1
  -3.77568E+1   2.32931E+2
  -1.70576E+2   2.42496E+2
   2.30808E+1  -2.20005E+2
   4.87052E+1   4.58175E+1
   3.10263E+1  -5.05831E+1
  -8.50018E+1  -8.60992E+1
   2.03067E+1  -1.16512E+2
  -9.79293E+1  -7.20531E+1
   8.84807E+1   1.21879E+2
  -7.53659E+1   4.09608E+1
  -9.69467E+1   1.46650E+2
  -2.17373E+2  -1.21234E+2
   2.74895E+2  -7.51236E+1
   1.09666E+2   8.71682E+1
  -7.27813E+1  -4.36622E+1
  -1.26298E+2   1.45153E+2
  -9.11741E+1  -1.33772E+2
   1.32436E+2   8.24547E+1
  -7.33832E+1  -1.05059E+2
   1.20562E+2  -1.31035E+2
  -3.06797E+0  -2.02507E+1
   2.13768E+1  -2.27780E+2
   1.89970E+2   1.24163E+2
   9.64434E+1  -9.86640E+0
  -3.31823E+2   1.33776E+2
  -9.71300E+1  -9.32422E+1
  -2.24675E+2  -7.80090E+1
   5.87124E+1  -1.62995E+2
   2.20992E+2   1.99389E+2
  -5.28791E+1  -5.24908E+1
  -9.67038E+1  -2.51117E+2
   1.70067E+2   1.21544E+1
   1.64142E+1  -8.11571E+1
  -9.45208E+1   9.02033E+1
  -2.22030E+2  -9.91724E+1
   1.22864E+2  -1.13980E+2
   2.33775E+2   1.73668E+2
   3.77643E+1   1.38776E+2
  -2.50832E+2   1.42718E+2
  -2.82903E+2   1.85992E+2
   1.83894E+2  -2.94239E+2
  -8.16286E+1  -1.91289E+2
   2.27917E+2  -1.71265E+2
   1.79016E+2  -7.98846E+1
   1.97618E+2   7.97851E+1
  -1.54800E+2  -5.76184E+1
  -4.70545E+1   7.02067E+1
  -9.43260E+1  -1.79471E+2
  -1.48871E+2   1.14199E+1
  -2.13419E+2  -1.53525E+2
   2.46309E+1  -1.17738E+2
  -3.28843E+1   9.15354E+1
   1.66466E+2   1.03522E+2
  -1.16651E+2   1.34731E+1
   2.18905E+2  -2.98837E+2
   1.83000E+2  -1.04047E+2
  -5.75734E+1   1.15841E+2
   4.29958E+1  -5.26308E+1
  -6.44568E+1  -2.08784E+2
   2.07101E+2  -4.84064E+1
   1.35194E+2   2.82118E+1
   1.01333E+2   2.68982E+2
  -1.19997E+2  -1.50856E+2
  -1.96175E+2  -1.38006E+2
  -2.23261E+2   2.72689E+1
  -9.96767E+1  -1.16918E+2
  -5.95923E+1  -1.82969E+2
   2.96095E+2  -2.98674E+2
  -7.47127E+1   9.25499E+1
   1.71804E+1  -1.61586E+2
  -2.10188E+2   6.06338E+1
  -2.85036E+2   3.84147E+1
  -6.78636E+1  -1.96128E+2
   1.20335E+2  -1.41103E+2
   1.27432E+2  -5.82761E+1
   2.52051E+2  -5.05731E+1
  -1.32654E+2  -2.82627E+0
  -2.07216E+2  -2.34976E+1
