 LCModel (Version 6.3-1N) Copyright: S.W. Provencher.          Ref.: Magn. Reson. Med. 30:672-679 (1993).                
 Slice_N1@21_24  28-Feb-2025 11:41:36
 27 lines in following concentration table = NCONC+1
    Conc.  %SD /Cr+PCr  Metabolite                                         
 2.58E-04   6% 5.2E-04 Mac                                                 
    0.000 999%   0.000 Cr                                                  
    4.003  17%   8.000 PCr                                                 
    5.103  18%  10.200 Ins                                                 
    5.066  15%  10.126 NAA                                                 
    0.848  93%   1.695 Tau                                                 
    0.000 999%   0.000 PCho                                                
    0.291  93%   0.583 GPC                                                 
    5.183  20%  10.359 Glu                                                 
    4.325  18%   8.644 Gln                                                 
    0.000 999%   0.000 Ala                                                 
    2.328  50%   4.654 Asc                                                 
    0.739  68%   1.478 Asp                                                 
    0.138 213%   0.276 GABA                                                
    0.160 196%   0.320 Glc                                                 
    0.723  63%   1.445 GSH                                                 
    1.002  64%   2.003 Lac                                                 
    2.286  25%   4.569 NAAG                                                
    3.323  34%   6.642 PE                                                  
    0.291  93%   0.583 GPC+PCho                                            
    7.352  12%  14.695 NAA+NAAG                                            
    9.508  14%  19.003 Glu+Gln                                             
    4.003  17%   8.000 Cr+PCr                                              
    7.352  12%  14.695 NAA+NAAG                                            
    4.003  17%   8.000 Cr+PCr                                              
    9.508  14%  19.003 Glu+Gln                                             
   6 lines in following misc. output table
  FWHM = 0.057 ppm    S/N =   3                                            
  Data shift = 0.065 ppm                                                   
  Ph: -27 deg       0.0 deg/ppm                                            
  alphaB,S = 1.0E-01,   2.1E+01                                            
   19 spline knots.   Ns = 6(1)                                            
  ( 9) 2 infls.   ( 6) 2 extrs.                                            
  480 points on ppm-axis = NY
      4.100000     4.091866     4.083733     4.075600     4.067466     4.059333     4.051199     4.043066     4.034933     4.026799
      4.018666     4.010532     4.002399     3.994265     3.986132     3.977998     3.969864     3.961731     3.953597     3.945463
      3.937330     3.929196     3.921062     3.912929     3.904795     3.896662     3.888528     3.880394     3.872261     3.864127
      3.855993     3.847860     3.839726     3.831592     3.823459     3.815325     3.807191     3.799058     3.790924     3.782790
      3.774657     3.766523     3.758389     3.750256     3.742122     3.733989     3.725855     3.717721     3.709588     3.701454
      3.693320     3.685187     3.677053     3.668919     3.660786     3.652652     3.644518     3.636385     3.628251     3.620117
      3.611984     3.603850     3.595716     3.587583     3.579449     3.571316     3.563182     3.555048     3.546915     3.538781
      3.530647     3.522514     3.514380     3.506246     3.498113     3.489979     3.481845     3.473712     3.465578     3.457444
      3.449311     3.441177     3.433043     3.424910     3.416776     3.408643     3.400509     3.392375     3.384242     3.376108
      3.367974     3.359841     3.351707     3.343573     3.335440     3.327306     3.319172     3.311039     3.302905     3.294771
      3.286638     3.278504     3.270370     3.262237     3.254103     3.245970     3.237836     3.229702     3.221569     3.213435
      3.205301     3.197168     3.189034     3.180900     3.172767     3.164633     3.156499     3.148366     3.140232     3.132098
      3.123965     3.115831     3.107697     3.099564     3.091430     3.083297     3.075163     3.067029     3.058896     3.050762
      3.042628     3.034495     3.026361     3.018227     3.010094     3.001960     2.993826     2.985693     2.977559     2.969425
      2.961292     2.953158     2.945024     2.936891     2.928757     2.920624     2.912490     2.904356     2.896223     2.888089
      2.879955     2.871822     2.863688     2.855554     2.847421     2.839287     2.831153     2.823020     2.814886     2.806752
      2.798619     2.790485     2.782351     2.774218     2.766084     2.757951     2.749817     2.741683     2.733550     2.725416
      2.717282     2.709149     2.701015     2.692881     2.684748     2.676614     2.668480     2.660347     2.652213     2.644079
      2.635946     2.627812     2.619678     2.611545     2.603411     2.595278     2.587144     2.579010     2.570877     2.562743
      2.554609     2.546476     2.538342     2.530208     2.522075     2.513941     2.505807     2.497674     2.489540     2.481406
      2.473273     2.465139     2.457006     2.448872     2.440738     2.432605     2.424471     2.416337     2.408204     2.400070
      2.391936     2.383803     2.375669     2.367535     2.359402     2.351268     2.343134     2.335001     2.326867     2.318733
      2.310600     2.302466     2.294333     2.286199     2.278065     2.269932     2.261798     2.253664     2.245531     2.237397
      2.229263     2.221130     2.212996     2.204862     2.196729     2.188595     2.180461     2.172328     2.164194     2.156060
      2.147927     2.139793     2.131660     2.123526     2.115392     2.107259     2.099125     2.090991     2.082858     2.074724
      2.066590     2.058457     2.050323     2.042189     2.034056     2.025922     2.017788     2.009655     2.001521     1.993387
      1.985254     1.977120     1.968987     1.960853     1.952719     1.944586     1.936452     1.928318     1.920185     1.912051
      1.903917     1.895784     1.887650     1.879516     1.871383     1.863249     1.855115     1.846982     1.838848     1.830714
      1.822581     1.814447     1.806314     1.798180     1.790046     1.781913     1.773779     1.765645     1.757512     1.749378
      1.741244     1.733111     1.724977     1.716843     1.708710     1.700576     1.692442     1.684309     1.676175     1.668041
      1.659908     1.651774     1.643641     1.635507     1.627373     1.619240     1.611106     1.602972     1.594839     1.586705
      1.578571     1.570438     1.562304     1.554170     1.546037     1.537903     1.529769     1.521636     1.513502     1.505368
      1.497235     1.489101     1.480968     1.472834     1.464700     1.456567     1.448433     1.440299     1.432166     1.424032
      1.415898     1.407765     1.399631     1.391497     1.383364     1.375230     1.367096     1.358963     1.350829     1.342695
      1.334562     1.326428     1.318295     1.310161     1.302027     1.293894     1.285760     1.277626     1.269493     1.261359
      1.253225     1.245092     1.236958     1.228824     1.220691     1.212557     1.204423     1.196290     1.188156     1.180022
      1.171889     1.163755     1.155622     1.147488     1.139354     1.131221     1.123087     1.114953     1.106820     1.098686
      1.090552     1.082419     1.074285     1.066151     1.058018     1.049884     1.041750     1.033617     1.025483     1.017349
      1.009216     1.001082     0.992949     0.984815     0.976681     0.968548     0.960414     0.952280     0.944147     0.936013
      0.927879     0.919746     0.911612     0.903478     0.895345     0.887211     0.879077     0.870944     0.862810     0.854676
      0.846543     0.838409     0.830276     0.822142     0.814008     0.805875     0.797741     0.789607     0.781474     0.773340
      0.765206     0.757073     0.748939     0.740805     0.732672     0.724538     0.716404     0.708271     0.700137     0.692003
      0.683870     0.675736     0.667603     0.659469     0.651335     0.643202     0.635068     0.626934     0.618801     0.610667
      0.602533     0.594400     0.586266     0.578132     0.569999     0.561865     0.553731     0.545598     0.537464     0.529330
      0.521197     0.513063     0.504930     0.496796     0.488662     0.480529     0.472395     0.464261     0.456128     0.447994
      0.439861     0.431727     0.423593     0.415460     0.407326     0.399192     0.391059     0.382925     0.374792     0.366658
      0.358524     0.350391     0.342257     0.334124     0.325990     0.317856     0.309723     0.301589     0.293455     0.285322
      0.277188     0.269055     0.260921     0.252787     0.244654     0.236520     0.228386     0.220253     0.212119     0.203986
 NY phased data points follow
   1.67700E+02  1.37673E+02  1.25428E+02  1.68837E+02  1.38818E+02  1.26133E+02  1.35693E+02  1.16995E+02  1.11268E+02  1.23576E+02
   1.06944E+02  7.48482E+01  9.75024E+01  8.98483E+01  6.17779E+01  6.98770E+01  8.99303E+01  6.88111E+01  4.38790E+01  6.67616E+01
   5.59136E+01  3.11364E+01  4.26846E+01  7.52233E+01  9.09928E+01  9.13911E+01  1.12626E+02  1.47558E+02  1.50326E+02  1.39277E+02
   1.47036E+02  1.57630E+02  1.39875E+02  1.30360E+02  1.66059E+02  1.32602E+02  1.19744E+02  1.28672E+02  8.27075E+01  8.04344E+01
   6.32726E+01  2.86711E+01  2.14920E+01  3.43624E+01  2.11154E+01  3.20334E+01  5.44881E+01  5.44038E+01  8.57400E+01  6.40138E+01
   5.90012E+01  6.83355E+01  5.76584E+01  5.54180E+01  4.80814E+01  5.89691E+01  3.27719E+01  2.44192E+01  2.62804E+01  3.55835E+00
   5.62433E+00 -8.21311E-01 -6.58018E+00  1.97466E+01  3.03880E+01  2.34561E+01  2.85053E+01  2.47213E+01  2.71133E+01  1.00561E+01
  -9.40594E-01 -2.78385E-01 -1.76133E+01  2.72783E+00  1.99495E+01  1.01845E+01  1.33222E+00  8.79068E+00  2.90058E+01  2.91099E+01
   1.45307E+01  2.35904E+01  1.96618E+01 -3.15742E+00  2.46828E+01  1.98511E+01  1.35698E+01  2.55913E+01 -8.81953E+00  1.44653E+01
   2.33544E+01  2.77744E+00  3.18619E+01  4.62328E+01  4.82394E+01  3.75391E+01  4.30930E+01  5.43213E+01  3.00594E+01  2.86792E+01
   3.96073E+01  4.34246E+01  2.99201E+01  9.42071E+00  1.29517E+01  1.32521E+01  2.21137E+01  2.28130E+00 -4.03062E+01 -5.25468E+01
  -6.72482E+01 -7.84067E+01 -8.15153E+01 -8.46106E+01 -8.59212E+01 -7.45337E+01 -6.56975E+01 -6.95581E+01 -6.85624E+01 -6.19693E+01
  -4.15775E+01 -3.78941E+01 -5.41213E+01 -5.25704E+01 -2.08192E+01 -2.56131E+01 -4.40663E+01 -9.30850E+00  1.90663E+01  4.84060E+01
   5.17136E+01  3.43804E+01  1.72843E+01 -2.02089E+01 -2.74028E+01 -4.19150E+01 -5.03958E+01 -5.96783E+01 -9.89054E+01 -8.71732E+01
  -7.02649E+01 -8.90206E+01 -9.51636E+01 -9.03433E+01 -1.01687E+02 -1.11776E+02 -8.90448E+01 -7.67528E+01 -9.44738E+01 -1.15015E+02
  -9.97041E+01 -7.80518E+01 -7.69564E+01 -7.43935E+01 -8.22270E+01 -6.45790E+01 -7.54255E+01 -8.93535E+01 -6.66594E+01 -6.49499E+01
  -5.69605E+01 -6.19994E+01 -6.59398E+01 -6.25789E+01 -4.91026E+01 -6.54614E+01 -9.34987E+01 -7.51568E+01 -7.26137E+01 -8.19358E+01
  -6.80276E+01 -3.64132E+01 -5.76238E+01 -5.58487E+01 -2.55414E+01 -2.27076E+01 -1.62998E+01 -2.48937E+01 -1.99394E+01 -3.50643E+01
  -2.36580E+01 -4.05742E+01 -7.40924E+01 -5.24426E+01 -6.04302E+01 -5.93471E+01 -7.63172E+01 -8.32409E+01 -7.30742E+01 -7.90900E+01
  -6.36475E+01 -7.59213E+01 -7.83778E+01 -6.03179E+01 -8.12970E+01 -7.27599E+01 -6.71722E+01 -7.70491E+01 -4.75187E+01 -6.16334E+01
  -7.90645E+01 -6.63479E+01 -5.35097E+01 -5.87457E+01 -4.21852E+01 -2.57907E+01 -4.69360E+01 -4.46308E+01 -6.44167E+01 -5.82239E+01
  -6.62962E+01 -6.87361E+01 -6.06151E+01 -7.65548E+01 -4.15314E+01 -4.28618E+01 -1.97406E+01 -4.52166E+00 -1.94718E+01 -2.64388E+00
  -3.82236E+00 -1.30918E+01 -2.89627E+01 -2.38074E+01 -2.88307E+01 -5.18221E+01 -4.87601E+01 -3.11345E+01 -3.10007E+01 -4.78512E+01
  -6.62304E+01 -5.95679E+01 -6.45168E+01 -7.29441E+01 -6.00319E+01 -9.08147E+01 -9.63500E+01 -1.10994E+02 -1.46321E+02 -1.31807E+02
  -1.31106E+02 -1.28030E+02 -1.11383E+02 -1.26782E+02 -1.30326E+02 -1.07313E+02 -9.91493E+01 -9.29783E+01 -9.57899E+01 -9.77542E+01
  -9.55507E+01 -8.55414E+01 -1.02979E+02 -1.36290E+02 -1.36617E+02 -1.41835E+02 -1.38255E+02 -1.22975E+02 -7.58057E+01 -5.40046E+01
  -3.46662E+01  1.50378E+01  1.51858E+01  1.75339E+01  2.42271E+01  2.54817E+01  1.23791E+01 -3.97786E+00  5.50163E+00 -2.74969E+00
  -1.99239E+01 -2.39731E+01 -3.10265E+01 -1.42584E+01 -2.10704E+01 -4.06208E+01 -2.03559E+01 -2.59755E+01 -2.01490E+01 -2.41876E+01
  -1.84901E+01 -2.72069E-01  5.03826E+00  1.70895E+01  1.11064E+01  6.72944E+00 -1.90245E+01 -2.32384E+01 -5.30365E+01 -6.18458E+01
  -6.03568E+01 -8.33461E+01 -5.90394E+01 -8.53244E+01 -1.00522E+02 -8.56267E+01 -6.29976E+01 -4.97632E+01 -5.35629E+01 -6.48572E+01
  -8.06550E+01 -7.86718E+01 -7.90034E+01 -6.36968E+01 -5.50294E+01 -2.66847E+01 -4.09974E+01 -3.85369E+01  1.75380E+00  8.76125E+00
   2.35546E+01  2.03026E+01  2.98575E+01  1.52698E+01  2.79072E+01  5.96491E+01  6.30140E+01  6.45671E+01  6.64433E+01  6.31332E+01
   3.06741E+01  5.44395E+01  6.38108E+01  4.68168E+01  6.53641E+01  5.87831E+01  3.21282E+01  3.40664E+01  4.58927E+01  3.78334E+01
   4.74941E+01  4.83825E+01  2.77075E+01  1.48546E+01  7.80675E+00 -6.69855E+00 -1.07202E+01 -9.30209E+00 -5.03714E+00 -1.45603E+01
  -1.07511E+01  1.76164E+01 -2.18809E+00 -2.92484E+00  5.81105E+00  2.24123E+01  2.58675E+01  4.66916E+00  1.90317E+01  1.26135E+01
   2.16905E+01  6.77117E+00 -1.88255E+00  2.98800E+01  6.96789E+00  8.36716E+00  2.31618E+01  9.39040E+00  1.29082E+01 -1.97230E+01
  -3.71700E+01 -1.39784E+01 -3.12830E+01 -1.85631E+01 -9.94944E+00 -4.07383E+01 -2.67432E+01 -1.37593E+01 -3.11391E+01 -3.14576E+01
  -3.39470E+01 -3.32435E+01 -6.91641E+00 -5.01253E+00 -2.67892E+00 -6.64709E-01  4.09936E+00  2.37635E+01  2.20935E+01  1.44510E+01
   1.53787E+01  3.74963E+01  3.33753E+01  3.45046E+01  4.75172E+01  3.97909E+01  7.57935E+01  9.65638E+01  9.38447E+01  1.05790E+02
   9.15366E+01  8.35874E+01  1.04261E+02  9.64363E+01  6.71734E+01  8.40299E+01  7.84967E+01  4.12983E+01  4.84970E+01  2.62008E+01
   1.52549E+01  2.89973E+01  1.13263E+01  5.91156E+00 -1.44565E+01 -2.29724E+01 -4.02777E+01 -4.25150E+01 -3.40858E+01 -7.85321E+01
  -6.70432E+01 -5.18538E+01 -6.48585E+01 -6.58549E+01 -6.19477E+01 -5.87386E+01 -7.82879E+01 -6.83950E+01 -6.52130E+01 -6.74352E+01
  -6.55273E+01 -6.14102E+01 -4.69726E+01 -6.38220E+01 -6.12902E+01 -6.41481E+01 -5.99034E+01 -4.69270E+01 -6.95564E+01 -6.44808E+01
  -5.62927E+01 -6.93265E+01 -5.74340E+01 -4.69586E+01 -7.37208E+01 -5.96012E+01 -5.41075E+01 -6.76439E+01 -4.71488E+01 -5.63762E+01
  -5.01217E+01 -6.33933E+01 -7.28984E+01 -6.36577E+01 -6.80746E+01 -4.71054E+01 -4.88450E+01 -6.28200E+01 -5.67101E+01 -3.66260E+01
  -5.46637E+01 -6.41752E+01 -4.71635E+01 -4.20129E+01 -4.49133E+01 -4.17050E+01 -3.71070E+01 -4.87149E+01 -2.92489E+01 -3.43794E+01
  -2.95959E+01 -4.38381E+01 -5.74394E+01 -4.14460E+01 -4.91405E+01 -3.79092E+01 -5.74504E+01 -2.70562E+01 -2.24222E+01 -4.53166E+01
  -3.99651E+01 -4.78801E+01 -4.22393E+01 -3.52895E+01 -1.66939E+01 -4.44184E+01 -3.46020E+01 -2.75433E+01 -2.09035E+01 -1.57575E+01
 NY points of the fit to the data follow
   1.42225E+02  1.33688E+02  1.25739E+02  1.20961E+02  1.19748E+02  1.21448E+02  1.24327E+02  1.26566E+02  1.27071E+02  1.24683E+02
   1.18213E+02  1.07503E+02  9.46935E+01  8.47759E+01  8.28717E+01  8.34698E+01  7.87783E+01  6.97775E+01  6.12566E+01  5.69665E+01
   5.80086E+01  6.33843E+01  7.08501E+01  7.88419E+01  8.73288E+01  9.63714E+01  1.05227E+02  1.11917E+02  1.14107E+02  1.13788E+02
   1.13252E+02  1.12207E+02  1.11324E+02  1.12404E+02  1.15961E+02  1.20007E+02  1.18975E+02  1.10596E+02  9.57298E+01  7.73615E+01
   5.88746E+01  4.31292E+01  3.17884E+01  2.55207E+01  2.45777E+01  2.90436E+01  3.76074E+01  4.77883E+01  5.72804E+01  6.51344E+01
   7.14737E+01  7.44602E+01  7.62469E+01  7.82703E+01  7.64414E+01  7.08712E+01  6.35958E+01  5.39820E+01  4.24472E+01  3.08060E+01
   2.14774E+01  1.60641E+01  1.70206E+01  2.60450E+01  3.77102E+01  4.62047E+01  4.93503E+01  4.64000E+01  3.88268E+01  2.71843E+01
   1.38398E+01  2.47976E+00 -5.23939E+00 -8.35532E+00 -6.59987E+00 -7.39151E-01  6.51665E+00  1.27606E+01  1.82112E+01  2.26995E+01
   2.46712E+01  2.41949E+01  2.22375E+01  1.96016E+01  1.69256E+01  1.46974E+01  1.31960E+01  1.25697E+01  1.29278E+01  1.40914E+01
   1.59125E+01  1.77557E+01  1.94444E+01  2.19905E+01  2.43501E+01  2.60095E+01  2.86495E+01  3.12943E+01  3.24273E+01  3.26227E+01
   3.09848E+01  2.79824E+01  2.39379E+01  2.22498E+01  2.33361E+01  2.27929E+01  1.63825E+01  2.78186E+00 -1.52989E+01 -3.45852E+01
  -5.30046E+01 -6.79035E+01 -7.80987E+01 -8.40094E+01 -8.50604E+01 -8.19680E+01 -7.58156E+01 -6.95980E+01 -6.50988E+01 -6.19942E+01
  -5.95409E+01 -5.59898E+01 -4.97252E+01 -4.16400E+01 -3.55123E+01 -3.57153E+01 -2.75816E+01 -5.97566E+00  2.10470E+01  4.25165E+01
   5.18246E+01  4.80129E+01  3.35407E+01  1.29111E+01 -9.54351E+00 -3.21092E+01 -5.34180E+01 -7.12489E+01 -8.22070E+01 -8.37268E+01
  -8.34727E+01 -8.40709E+01 -8.52901E+01 -8.66008E+01 -8.75165E+01 -8.78138E+01 -8.74905E+01 -8.66156E+01 -8.53248E+01 -8.38923E+01
  -8.25506E+01 -8.11510E+01 -7.94669E+01 -7.75516E+01 -7.55877E+01 -7.40903E+01 -7.30200E+01 -7.19428E+01 -7.07523E+01 -6.97964E+01
  -6.93251E+01 -6.89378E+01 -6.80766E+01 -6.65343E+01 -6.50518E+01 -6.52389E+01 -6.77261E+01 -7.05101E+01 -7.06563E+01 -6.73606E+01
  -6.26428E+01 -5.93079E+01 -5.77642E+01 -5.57816E+01 -5.22843E+01 -4.77460E+01 -4.37019E+01 -4.16510E+01 -4.21592E+01 -4.45234E+01
  -4.77205E+01 -5.14627E+01 -5.59722E+01 -6.09424E+01 -6.57924E+01 -6.96826E+01 -7.14268E+01 -7.17587E+01 -7.27050E+01 -7.42133E+01
  -7.50021E+01 -7.47915E+01 -7.43621E+01 -7.39913E+01 -7.25935E+01 -7.01193E+01 -6.78103E+01 -6.66660E+01 -6.65297E+01 -6.62626E+01
  -6.58435E+01 -6.46411E+01 -6.10071E+01 -5.56872E+01 -5.00649E+01 -4.47867E+01 -4.20334E+01 -4.24174E+01 -4.71630E+01 -5.71617E+01
  -6.75781E+01 -7.66541E+01 -8.15665E+01 -8.07654E+01 -7.46773E+01 -6.53927E+01 -5.57664E+01 -4.75272E+01 -4.15340E+01 -3.80725E+01
  -3.58700E+01 -3.46204E+01 -3.33734E+01 -3.09974E+01 -2.88072E+01 -2.62647E+01 -2.42428E+01 -2.46782E+01 -2.77528E+01 -3.36794E+01
  -4.35658E+01 -5.58891E+01 -6.96778E+01 -8.37804E+01 -9.62375E+01 -1.05931E+02 -1.13944E+02 -1.20245E+02 -1.25408E+02 -1.29222E+02
  -1.30942E+02 -1.29497E+02 -1.24631E+02 -1.18124E+02 -1.09525E+02 -1.00487E+02 -8.98448E+01 -8.14930E+01 -8.31446E+01 -9.01497E+01
  -9.05684E+01 -8.99928E+01 -1.00405E+02 -1.18999E+02 -1.35283E+02 -1.41035E+02 -1.33818E+02 -1.14542E+02 -8.84474E+01 -6.11330E+01
  -3.73779E+01 -1.69228E+01  1.86039E+00  1.49166E+01  1.72149E+01  1.30732E+01  8.69835E+00  4.68264E+00  1.21855E+00 -1.82878E+00
  -4.32355E+00 -6.34307E+00 -7.77830E+00 -8.59697E+00 -8.72418E+00 -8.38857E+00 -7.83182E+00 -7.15980E+00 -6.41650E+00 -5.85031E+00
  -5.42470E+00 -5.16798E+00 -5.13689E+00 -5.10616E+00 -5.20841E+00 -5.31933E+00 -5.58168E+00 -6.21841E+00 -7.61940E+00 -1.00213E+01
  -1.35447E+01 -1.80187E+01 -2.29029E+01 -2.75869E+01 -3.16573E+01 -3.47155E+01 -3.65249E+01 -3.69973E+01 -3.61156E+01 -3.40987E+01
  -3.13217E+01 -2.83013E+01 -2.52498E+01 -2.22322E+01 -1.90508E+01 -1.56607E+01 -1.22052E+01 -8.69369E+00 -4.98899E+00 -1.14697E+00
   2.82289E+00  7.01224E+00  1.13877E+01  1.56311E+01  1.96441E+01  2.33924E+01  2.67003E+01  2.95284E+01  3.16885E+01  3.34168E+01
   3.51521E+01  3.70173E+01  3.86351E+01  3.94768E+01  3.89815E+01  3.64738E+01  3.16044E+01  2.42261E+01  1.45014E+01  3.19787E+00
  -8.42770E+00 -1.89467E+01 -2.71120E+01 -3.23614E+01 -3.51189E+01 -3.56486E+01 -3.31656E+01 -2.89089E+01 -2.28584E+01 -1.63936E+01
  -1.10948E+01 -7.75469E+00 -6.22450E+00 -5.60859E+00 -5.16834E+00 -4.40535E+00 -2.91987E+00 -6.91312E-01  1.95314E+00  4.34027E+00
   5.37591E+00  4.97134E+00  2.42540E+00 -1.81671E+00 -7.04308E+00 -1.24456E+01 -1.74499E+01 -2.14416E+01 -2.40120E+01 -2.50022E+01
  -2.45370E+01 -2.30544E+01 -2.08808E+01 -1.83303E+01 -1.56184E+01 -1.28470E+01 -1.01830E+01 -7.71813E+00 -5.68721E+00 -3.92477E+00
  -2.29233E+00 -8.89623E-01  3.52033E-01  1.69570E+00  3.25338E+00  5.05759E+00  7.23867E+00  1.00115E+01  1.37120E+01  1.89025E+01
   2.61105E+01  3.59679E+01  4.84706E+01  6.25793E+01  7.64466E+01  8.82429E+01  9.64960E+01  1.00239E+02  9.95239E+01  9.53817E+01
   8.91421E+01  8.18988E+01  7.46166E+01  6.76011E+01  6.07461E+01  5.33844E+01  4.52396E+01  3.61013E+01  2.61716E+01  1.57315E+01
   5.36606E+00 -4.23984E+00 -1.25652E+01 -1.94408E+01 -2.49839E+01 -2.94470E+01 -3.31248E+01 -3.61171E+01 -3.86182E+01 -4.07557E+01
  -4.25895E+01 -4.39909E+01 -4.51419E+01 -4.62014E+01 -4.70938E+01 -4.77643E+01 -4.82927E+01 -4.88070E+01 -4.92523E+01 -4.95492E+01
  -4.97593E+01 -5.00427E+01 -5.03979E+01 -5.07459E+01 -5.10497E+01 -5.12661E+01 -5.13503E+01 -5.12336E+01 -5.11690E+01 -5.11886E+01
  -5.13087E+01 -5.14566E+01 -5.15956E+01 -5.16987E+01 -5.17687E+01 -5.17933E+01 -5.16623E+01 -5.13982E+01 -5.10143E+01 -5.06407E+01
  -5.03881E+01 -5.02684E+01 -5.02371E+01 -5.02644E+01 -5.01877E+01 -5.00399E+01 -4.98776E+01 -4.97575E+01 -4.96286E+01 -4.94778E+01
  -4.92677E+01 -4.90097E+01 -4.87112E+01 -4.84464E+01 -4.81130E+01 -4.76847E+01 -4.71663E+01 -4.66268E+01 -4.61334E+01 -4.57470E+01
  -4.55135E+01 -4.54835E+01 -4.55013E+01 -4.54226E+01 -4.51051E+01 -4.45659E+01 -4.39559E+01 -4.33549E+01 -4.28227E+01 -4.24314E+01
  -4.21755E+01 -4.19510E+01 -4.16925E+01 -4.15102E+01 -4.13703E+01 -4.13397E+01 -4.14423E+01 -4.16563E+01 -4.19051E+01 -4.20660E+01
 NY background values follow
     1.645E+02    1.623E+02    1.601E+02    1.579E+02    1.557E+02    1.535E+02    1.514E+02    1.492E+02    1.470E+02    1.448E+02
     1.426E+02    1.404E+02    1.383E+02    1.361E+02    1.339E+02    1.317E+02    1.296E+02    1.274E+02    1.253E+02    1.231E+02
     1.209E+02    1.188E+02    1.166E+02    1.145E+02    1.123E+02    1.102E+02    1.080E+02    1.059E+02    1.037E+02    1.016E+02
     9.946E+01    9.733E+01    9.520E+01    9.307E+01    9.095E+01    8.884E+01    8.673E+01    8.463E+01    8.253E+01    8.045E+01
     7.837E+01    7.631E+01    7.425E+01    7.221E+01    7.018E+01    6.816E+01    6.615E+01    6.416E+01    6.218E+01    6.022E+01
     5.828E+01    5.635E+01    5.445E+01    5.256E+01    5.069E+01    4.884E+01    4.701E+01    4.520E+01    4.341E+01    4.165E+01
     3.991E+01    3.819E+01    3.650E+01    3.484E+01    3.319E+01    3.157E+01    2.998E+01    2.840E+01    2.685E+01    2.533E+01
     2.382E+01    2.234E+01    2.088E+01    1.944E+01    1.802E+01    1.663E+01    1.525E+01    1.390E+01    1.257E+01    1.126E+01
     9.966E+00    8.696E+00    7.446E+00    6.215E+00    5.005E+00    3.814E+00    2.642E+00    1.490E+00    3.560E-01   -7.587E-01
    -1.855E+00   -2.933E+00   -3.992E+00   -5.033E+00   -6.056E+00   -7.061E+00   -8.047E+00   -9.015E+00   -9.964E+00   -1.090E+01
    -1.181E+01   -1.270E+01   -1.358E+01   -1.444E+01   -1.528E+01   -1.610E+01   -1.691E+01   -1.769E+01   -1.846E+01   -1.921E+01
    -1.994E+01   -2.066E+01   -2.135E+01   -2.203E+01   -2.269E+01   -2.333E+01   -2.396E+01   -2.456E+01   -2.515E+01   -2.572E+01
    -2.627E+01   -2.681E+01   -2.733E+01   -2.783E+01   -2.831E+01   -2.877E+01   -2.922E+01   -2.966E+01   -3.007E+01   -3.048E+01
    -3.086E+01   -3.123E+01   -3.159E+01   -3.193E+01   -3.226E+01   -3.257E+01   -3.286E+01   -3.315E+01   -3.342E+01   -3.368E+01
    -3.392E+01   -3.415E+01   -3.437E+01   -3.457E+01   -3.477E+01   -3.495E+01   -3.512E+01   -3.528E+01   -3.543E+01   -3.556E+01
    -3.569E+01   -3.581E+01   -3.591E+01   -3.601E+01   -3.610E+01   -3.618E+01   -3.625E+01   -3.632E+01   -3.638E+01   -3.643E+01
    -3.648E+01   -3.653E+01   -3.657E+01   -3.661E+01   -3.664E+01   -3.667E+01   -3.670E+01   -3.673E+01   -3.676E+01   -3.679E+01
    -3.682E+01   -3.686E+01   -3.689E+01   -3.693E+01   -3.696E+01   -3.701E+01   -3.705E+01   -3.711E+01   -3.716E+01   -3.723E+01
    -3.729E+01   -3.737E+01   -3.745E+01   -3.754E+01   -3.764E+01   -3.775E+01   -3.786E+01   -3.798E+01   -3.811E+01   -3.824E+01
    -3.839E+01   -3.854E+01   -3.870E+01   -3.887E+01   -3.904E+01   -3.923E+01   -3.942E+01   -3.963E+01   -3.984E+01   -4.006E+01
    -4.029E+01   -4.053E+01   -4.077E+01   -4.103E+01   -4.130E+01   -4.158E+01   -4.186E+01   -4.216E+01   -4.247E+01   -4.279E+01
    -4.311E+01   -4.345E+01   -4.380E+01   -4.415E+01   -4.452E+01   -4.489E+01   -4.527E+01   -4.566E+01   -4.605E+01   -4.645E+01
    -4.686E+01   -4.727E+01   -4.768E+01   -4.810E+01   -4.853E+01   -4.895E+01   -4.938E+01   -4.981E+01   -5.024E+01   -5.067E+01
    -5.110E+01   -5.153E+01   -5.196E+01   -5.239E+01   -5.282E+01   -5.325E+01   -5.367E+01   -5.409E+01   -5.450E+01   -5.491E+01
    -5.532E+01   -5.572E+01   -5.611E+01   -5.650E+01   -5.688E+01   -5.725E+01   -5.761E+01   -5.796E+01   -5.831E+01   -5.864E+01
    -5.895E+01   -5.926E+01   -5.955E+01   -5.983E+01   -6.009E+01   -6.034E+01   -6.057E+01   -6.078E+01   -6.098E+01   -6.115E+01
    -6.131E+01   -6.145E+01   -6.157E+01   -6.166E+01   -6.173E+01   -6.178E+01   -6.181E+01   -6.181E+01   -6.179E+01   -6.174E+01
    -6.167E+01   -6.157E+01   -6.144E+01   -6.128E+01   -6.110E+01   -6.089E+01   -6.066E+01   -6.039E+01   -6.011E+01   -5.979E+01
    -5.945E+01   -5.908E+01   -5.868E+01   -5.826E+01   -5.781E+01   -5.734E+01   -5.684E+01   -5.631E+01   -5.576E+01   -5.518E+01
    -5.457E+01   -5.394E+01   -5.328E+01   -5.259E+01   -5.188E+01   -5.114E+01   -5.038E+01   -4.959E+01   -4.877E+01   -4.793E+01
    -4.706E+01   -4.616E+01   -4.525E+01   -4.431E+01   -4.336E+01   -4.238E+01   -4.140E+01   -4.040E+01   -3.939E+01   -3.837E+01
    -3.735E+01   -3.632E+01   -3.529E+01   -3.426E+01   -3.323E+01   -3.221E+01   -3.119E+01   -3.018E+01   -2.918E+01   -2.819E+01
    -2.722E+01   -2.626E+01   -2.533E+01   -2.441E+01   -2.352E+01   -2.265E+01   -2.181E+01   -2.099E+01   -2.021E+01   -1.946E+01
    -1.875E+01   -1.807E+01   -1.743E+01   -1.682E+01   -1.624E+01   -1.570E+01   -1.519E+01   -1.472E+01   -1.427E+01   -1.386E+01
    -1.348E+01   -1.313E+01   -1.281E+01   -1.251E+01   -1.225E+01   -1.202E+01   -1.181E+01   -1.163E+01   -1.148E+01   -1.136E+01
    -1.126E+01   -1.119E+01   -1.114E+01   -1.112E+01   -1.112E+01   -1.114E+01   -1.119E+01   -1.126E+01   -1.135E+01   -1.147E+01
    -1.160E+01   -1.176E+01   -1.193E+01   -1.213E+01   -1.234E+01   -1.257E+01   -1.282E+01   -1.308E+01   -1.337E+01   -1.366E+01
    -1.397E+01   -1.430E+01   -1.464E+01   -1.499E+01   -1.535E+01   -1.573E+01   -1.611E+01   -1.651E+01   -1.691E+01   -1.732E+01
    -1.775E+01   -1.818E+01   -1.861E+01   -1.905E+01   -1.950E+01   -1.995E+01   -2.041E+01   -2.087E+01   -2.133E+01   -2.180E+01
    -2.227E+01   -2.274E+01   -2.320E+01   -2.367E+01   -2.414E+01   -2.461E+01   -2.507E+01   -2.553E+01   -2.599E+01   -2.645E+01
    -2.690E+01   -2.734E+01   -2.778E+01   -2.822E+01   -2.865E+01   -2.907E+01   -2.948E+01   -2.988E+01   -3.028E+01   -3.067E+01
    -3.104E+01   -3.141E+01   -3.176E+01   -3.210E+01   -3.243E+01   -3.275E+01   -3.305E+01   -3.334E+01   -3.361E+01   -3.387E+01
    -3.412E+01   -3.434E+01   -3.455E+01   -3.475E+01   -3.493E+01   -3.509E+01   -3.524E+01   -3.538E+01   -3.549E+01   -3.560E+01
    -3.569E+01   -3.576E+01   -3.582E+01   -3.587E+01   -3.590E+01   -3.592E+01   -3.593E+01   -3.592E+01   -3.590E+01   -3.586E+01
    -3.581E+01   -3.575E+01   -3.567E+01   -3.558E+01   -3.548E+01   -3.537E+01   -3.524E+01   -3.511E+01   -3.496E+01   -3.479E+01
    -3.462E+01   -3.443E+01   -3.424E+01   -3.403E+01   -3.381E+01   -3.359E+01   -3.335E+01   -3.311E+01   -3.285E+01   -3.259E+01
    -3.233E+01   -3.205E+01   -3.177E+01   -3.148E+01   -3.119E+01   -3.090E+01   -3.059E+01   -3.029E+01   -2.998E+01   -2.967E+01
    -2.935E+01   -2.904E+01   -2.872E+01   -2.840E+01   -2.808E+01   -2.776E+01   -2.744E+01   -2.712E+01   -2.680E+01   -2.649E+01
 Mac      Conc. = 2.58E-04
   1.50189E+02  1.48229E+02  1.46253E+02  1.43938E+02  1.41161E+02  1.37848E+02  1.34074E+02  1.30220E+02  1.26751E+02  1.23920E+02
   1.21021E+02  1.17011E+02  1.11977E+02  1.06481E+02  1.00983E+02  9.60938E+01  9.23972E+01  9.03095E+01  8.96136E+01  9.00761E+01
   9.12791E+01  9.26176E+01  9.35373E+01  9.38113E+01  9.36727E+01  9.34118E+01  9.31033E+01  9.29255E+01  9.30996E+01  9.33604E+01
   9.31143E+01  9.18796E+01  8.98605E+01  8.77342E+01  8.60120E+01  8.47848E+01  8.38133E+01  8.26726E+01  8.13932E+01  8.02105E+01
   7.93378E+01  7.87544E+01  7.83523E+01  7.80048E+01  7.75202E+01  7.68898E+01  7.59681E+01  7.44979E+01  7.24337E+01  6.97579E+01
   6.64313E+01  6.27213E+01  5.90062E+01  5.54854E+01  5.22312E+01  4.95750E+01  4.76402E+01  4.65584E+01  4.62484E+01  4.63251E+01
   4.63688E+01  4.61611E+01  4.55803E+01  4.43598E+01  4.21901E+01  3.91529E+01  3.57099E+01  3.24264E+01  2.99792E+01  2.85326E+01
   2.81611E+01  2.86008E+01  2.94206E+01  3.02679E+01  3.08822E+01  3.09860E+01  3.02510E+01  2.86925E+01  2.65914E+01  2.42847E+01
   2.19322E+01  1.98548E+01  1.81473E+01  1.68553E+01  1.59207E+01  1.52932E+01  1.49053E+01  1.47208E+01  1.48287E+01  1.52153E+01
   1.58867E+01  1.66422E+01  1.71511E+01  1.69936E+01  1.61860E+01  1.48439E+01  1.31219E+01  1.13038E+01  9.65157E+00  8.58705E+00
   8.00206E+00  7.10167E+00  4.86925E+00  5.73666E-01 -5.82901E+00 -1.39103E+01 -2.27607E+01 -3.12673E+01 -3.86248E+01 -4.43267E+01
