 
 $NMID
 ID=''
 FMTDAT='(2E13.5)'
 TRAMP=   1.00000E+0
 VOLUME=   1.00000E+0
 $END
  -4.27032E+4   5.93814E+5
  -6.29707E+5   1.45794E+6
  -4.25448E+5   1.50052E+6
  -4.80198E+5   1.36768E+6
  -5.79951E+5   1.38362E+6
  -5.79979E+5   1.34924E+6
  -6.35201E+5   1.28935E+6
  -6.76411E+5   1.32292E+6
  -6.39223E+5   1.30765E+6
  -6.62167E+5   1.25195E+6
  -6.97475E+5   1.24355E+6
  -6.97316E+5   1.21663E+6
  -7.22816E+5   1.19021E+6
  -7.31077E+5   1.19909E+6
  -7.14346E+5   1.17472E+6
  -7.27788E+5   1.13874E+6
  -7.49923E+5   1.13285E+6
  -7.63099E+5   1.10492E+6
  -7.93860E+5   1.07242E+6
  -8.10353E+5   1.05976E+6
  -8.17932E+5   1.02867E+6
  -8.40008E+5   9.96990E+5
  -8.53857E+5   9.81591E+5
  -8.63139E+5   9.55058E+5
  -8.80195E+5   9.27849E+5
  -8.81615E+5   9.17907E+5
  -8.81647E+5   8.99114E+5
  -8.90524E+5   8.81253E+5
  -8.92419E+5   8.66475E+5
  -8.93234E+5   8.47816E+5
  -9.07847E+5   8.27100E+5
  -9.15181E+5   8.07150E+5
  -9.21717E+5   7.81343E+5
  -9.33453E+5   7.59110E+5
  -9.41558E+5   7.37814E+5
  -9.50768E+5   7.11693E+5
  -9.64504E+5   6.89311E+5
  -9.72886E+5   6.67247E+5
  -9.76814E+5   6.43629E+5
  -9.82026E+5   6.25517E+5
  -9.83948E+5   6.09036E+5
  -9.85599E+5   5.90679E+5
  -9.86590E+5   5.75489E+5
  -9.87206E+5   5.62401E+5
  -9.87792E+5   5.46589E+5
  -9.91043E+5   5.32003E+5
  -9.94133E+5   5.14445E+5
  -9.96525E+5   4.92742E+5
  -9.98502E+5   4.72386E+5
  -1.00110E+6   4.53342E+5
  -1.00423E+6   4.33482E+5
  -1.00713E+6   4.13150E+5
  -1.00941E+6   3.94309E+5
  -1.01225E+6   3.74879E+5
  -1.01311E+6   3.56324E+5
  -1.01273E+6   3.38857E+5
  -1.01192E+6   3.22068E+5
  -1.01048E+6   3.05834E+5
  -1.00730E+6   2.90884E+5
  -1.00634E+6   2.76773E+5
  -1.00553E+6   2.61566E+5
  -1.00426E+6   2.45461E+5
  -1.00247E+6   2.28868E+5
  -1.00020E+6   2.11722E+5
  -9.97410E+5   1.93940E+5
  -9.93480E+5   1.76961E+5
  -9.89534E+5   1.61003E+5
  -9.85767E+5   1.44981E+5
  -9.83214E+5   1.28889E+5
  -9.80281E+5   1.12841E+5
  -9.75663E+5   9.72299E+4
  -9.69725E+5   8.32891E+4
  -9.65816E+5   7.01519E+4
  -9.61698E+5   5.54749E+4
  -9.55995E+5   4.06034E+4
  -9.49990E+5   2.69807E+4
  -9.44731E+5   1.29208E+4
  -9.39379E+5  -2.20560E+3
  -9.32986E+5  -1.74353E+4
  -9.26238E+5  -3.28990E+4
  -9.19452E+5  -4.79222E+4
  -9.12473E+5  -6.18160E+4
  -9.04827E+5  -7.57039E+4
  -8.97446E+5  -8.92343E+4
  -8.89346E+5  -1.02932E+5
  -8.81337E+5  -1.14691E+5
  -8.73504E+5  -1.25679E+5
  -8.65745E+5  -1.36769E+5
  -8.57823E+5  -1.47356E+5
  -8.49301E+5  -1.57024E+5
  -8.40766E+5  -1.66686E+5
  -8.32791E+5  -1.77011E+5
  -8.24364E+5  -1.87751E+5
  -8.14588E+5  -1.98691E+5
  -8.04443E+5  -2.08812E+5
  -7.94907E+5  -2.18355E+5
  -7.86364E+5  -2.28492E+5
  -7.76830E+5  -2.38768E+5
  -7.66467E+5  -2.48027E+5
  -7.56973E+5  -2.56402E+5
  -7.47459E+5  -2.64802E+5
  -7.37931E+5  -2.73845E+5
  -7.26836E+5  -2.81635E+5
  -7.16359E+5  -2.88201E+5
  -7.06521E+5  -2.94358E+5
  -6.97478E+5  -3.00347E+5
  -6.87586E+5  -3.07177E+5
  -6.76923E+5  -3.13811E+5
  -6.65565E+5  -3.19924E+5
  -6.54846E+5  -3.24789E+5
  -6.45012E+5  -3.29841E+5
  -6.34925E+5  -3.36743E+5
  -6.24164E+5  -3.43133E+5
  -6.12687E+5  -3.48946E+5
  -6.01742E+5  -3.54372E+5
  -5.90929E+5  -3.60144E+5
  -5.79787E+5  -3.65613E+5
  -5.68039E+5  -3.70438E+5
  -5.56734E+5  -3.74125E+5
  -5.46112E+5  -3.77398E+5
  -5.36264E+5  -3.81119E+5
  -5.25680E+5  -3.85395E+5
  -5.15060E+5  -3.89346E+5
  -5.04236E+5  -3.93064E+5
  -4.92822E+5  -3.96724E+5
  -4.81403E+5  -3.99757E+5
  -4.70326E+5  -4.02261E+5
  -4.59586E+5  -4.05047E+5
  -4.48469E+5  -4.08032E+5
  -4.37817E+5  -4.11042E+5
  -4.26318E+5  -4.14556E+5
  -4.14854E+5  -4.17155E+5
  -4.03545E+5  -4.19090E+5
  -3.92995E+5  -4.20855E+5
  -3.81957E+5  -4.23293E+5
  -3.70741E+5  -4.24699E+5
  -3.60116E+5  -4.26018E+5
  -3.49609E+5  -4.27477E+5
  -3.39058E+5  -4.29057E+5
  -3.28236E+5  -4.30358E+5
  -3.17388E+5  -4.30945E+5
  -3.06846E+5  -4.31200E+5
  -2.96689E+5  -4.31073E+5
  -2.87279E+5  -4.31586E+5
  -2.77486E+5  -4.32351E+5
  -2.67002E+5  -4.32193E+5
  -2.57088E+5  -4.31630E+5
  -2.47469E+5  -4.30861E+5
  -2.38172E+5  -4.29916E+5
  -2.28809E+5  -4.28797E+5
  -2.19707E+5  -4.27455E+5
  -2.10927E+5  -4.26002E+5
  -2.02384E+5  -4.24766E+5
  -1.94109E+5  -4.23416E+5
  -1.85243E+5  -4.21931E+5
  -1.76571E+5  -4.19935E+5
  -1.68713E+5  -4.17748E+5
  -1.60605E+5  -4.15967E+5
  -1.52149E+5  -4.13724E+5
  -1.44491E+5  -4.11367E+5
  -1.36777E+5  -4.09121E+5
  -1.28972E+5  -4.06495E+5
  -1.21079E+5  -4.03935E+5
  -1.13746E+5  -4.00764E+5
  -1.06504E+5  -3.97730E+5
  -9.97787E+4  -3.94621E+5
  -9.29616E+4  -3.92035E+5
  -8.58447E+4  -3.89235E+5
  -7.93841E+4  -3.85665E+5
  -7.28792E+4  -3.82275E+5
  -6.66472E+4  -3.78872E+5
  -6.03719E+4  -3.75881E+5
  -5.44262E+4  -3.72640E+5
  -4.82436E+4  -3.68733E+5
  -4.23411E+4  -3.64867E+5
  -3.64194E+4  -3.61826E+5
  -3.03938E+4  -3.58290E+5
  -2.42503E+4  -3.54638E+5
  -1.87916E+4  -3.50161E+5
  -1.35635E+4  -3.46331E+5
  -8.29541E+3  -3.42730E+5
  -2.56971E+3  -3.39214E+5
   2.95655E+3  -3.35219E+5
   8.21758E+3  -3.31297E+5
   1.31804E+4  -3.27307E+5
   1.79182E+4  -3.23206E+5
   2.27183E+4  -3.19097E+5
   2.73298E+4  -3.14949E+5
   3.12190E+4  -3.10628E+5
   3.52074E+4  -3.07298E+5
   4.00241E+4  -3.03576E+5
   4.49698E+4  -2.99296E+5
   4.91734E+4  -2.94663E+5
   5.32197E+4  -2.90276E+5
   5.69906E+4  -2.85992E+5
   6.09703E+4  -2.82119E+5
   6.49863E+4  -2.77711E+5
   6.88117E+4  -2.73446E+5
   7.27253E+4  -2.69459E+5
   7.64810E+4  -2.65176E+5
   8.05455E+4  -2.60496E+5
   8.34960E+4  -2.55743E+5
   8.65907E+4  -2.51248E+5
   8.97557E+4  -2.47231E+5
   9.27695E+4  -2.42753E+5
   9.57630E+4  -2.38436E+5
   9.89796E+4  -2.34051E+5
   1.01531E+5  -2.29367E+5
   1.04302E+5  -2.25038E+5
   1.06878E+5  -2.20365E+5
   1.09483E+5  -2.15709E+5
   1.11674E+5  -2.11266E+5
   1.13857E+5  -2.07331E+5
   1.16225E+5  -2.03136E+5
   1.18465E+5  -1.98409E+5
   1.20244E+5  -1.93501E+5
   1.21993E+5  -1.89096E+5
   1.23446E+5  -1.84697E+5
   1.25084E+5  -1.80616E+5
   1.26365E+5  -1.76105E+5
   1.27534E+5  -1.71827E+5
   1.28798E+5  -1.67688E+5
   1.30073E+5  -1.63441E+5
   1.31289E+5  -1.59252E+5
   1.32359E+5  -1.55068E+5
   1.32788E+5  -1.50791E+5
   1.33280E+5  -1.46815E+5
   1.33798E+5  -1.43040E+5
   1.34856E+5  -1.38860E+5
   1.35566E+5  -1.34828E+5
   1.35501E+5  -1.30848E+5
   1.35793E+5  -1.27341E+5
   1.35946E+5  -1.23539E+5
   1.36060E+5  -1.19801E+5
   1.35700E+5  -1.16347E+5
   1.35831E+5  -1.12748E+5
   1.35620E+5  -1.09615E+5
   1.35730E+5  -1.06169E+5
   1.35359E+5  -1.02659E+5
   1.34876E+5  -9.93316E+4
   1.34537E+5  -9.61320E+4
   1.33898E+5  -9.32675E+4
   1.33854E+5  -8.99293E+4
   1.33279E+5  -8.65051E+4
   1.32868E+5  -8.34111E+4
   1.32089E+5  -8.06059E+4
   1.31829E+5  -7.76576E+4
   1.31280E+5  -7.46908E+4
   1.30304E+5  -7.17867E+4
   1.29618E+5  -6.89615E+4
   1.29066E+5  -6.64875E+4
   1.28526E+5  -6.38553E+4
   1.27518E+5  -6.10378E+4
   1.26684E+5  -5.84005E+4
   1.25590E+5  -5.56643E+4
   1.24737E+5  -5.32184E+4
   1.24136E+5  -5.06960E+4
   1.23540E+5  -4.81178E+4
   1.22672E+5  -4.57493E+4
   1.21867E+5  -4.31372E+4
   1.21001E+5  -4.08536E+4
   1.19811E+5  -3.80667E+4
   1.18630E+5  -3.58702E+4
   1.17307E+5  -3.35061E+4
   1.16358E+5  -3.15595E+4
   1.15446E+5  -2.93372E+4
   1.14690E+5  -2.72556E+4
   1.13536E+5  -2.49693E+4
   1.12281E+5  -2.28188E+4
   1.11006E+5  -2.08431E+4
   1.09931E+5  -1.88591E+4
   1.08774E+5  -1.69183E+4
   1.07697E+5  -1.51353E+4
   1.06638E+5  -1.30187E+4
   1.05438E+5  -1.15927E+4
   1.04430E+5  -9.31656E+3
   1.03032E+5  -7.54539E+3
   1.01832E+5  -5.98761E+3
   1.00378E+5  -4.35260E+3
   9.88936E+4  -2.55509E+3
   9.76795E+4  -9.57426E+2
   9.63593E+4   3.92374E+2
   9.54486E+4   1.73124E+3
   9.42297E+4   3.38388E+3
   9.31255E+4   4.85360E+3
   9.15212E+4   6.38672E+3
   9.03417E+4   7.56976E+3
   8.89032E+4   8.43126E+3
   8.77309E+4   9.78466E+3
   8.66254E+4   1.11620E+4
   8.52790E+4   1.23186E+4
   8.39453E+4   1.34075E+4
   8.27270E+4   1.45707E+4
   8.12521E+4   1.54408E+4
   8.03508E+4   1.66081E+4
   7.88494E+4   1.74697E+4
   7.76139E+4   1.84410E+4
   7.64678E+4   1.92493E+4
   7.54713E+4   2.02002E+4
   7.39698E+4   2.13113E+4
   7.27805E+4   2.16535E+4
   7.13906E+4   2.26909E+4
   7.04873E+4   2.35126E+4
   6.91862E+4   2.43072E+4
   6.80948E+4   2.51292E+4
   6.69149E+4   2.58273E+4
   6.56154E+4   2.60456E+4
   6.43887E+4   2.68552E+4
   6.32979E+4   2.77295E+4
   6.21843E+4   2.79912E+4
   6.09765E+4   2.86214E+4
   6.00631E+4   2.90932E+4
   5.90172E+4   2.96341E+4
   5.77970E+4   2.98912E+4
   5.66815E+4   3.03923E+4
   5.55217E+4   3.08913E+4
   5.45040E+4   3.12790E+4
   5.34397E+4   3.17124E+4
   5.24278E+4   3.22825E+4
   5.13811E+4   3.24066E+4
   5.00991E+4   3.28245E+4
   4.93941E+4   3.28174E+4
   4.82041E+4   3.33927E+4
   4.72328E+4   3.35773E+4
   4.62636E+4   3.37756E+4
   4.52988E+4   3.42685E+4
   4.45912E+4   3.45015E+4
   4.36055E+4   3.47965E+4
   4.23194E+4   3.47118E+4
   4.13806E+4   3.46707E+4
   4.04737E+4   3.51003E+4
   3.94403E+4   3.51231E+4
   3.88025E+4   3.51694E+4
   3.78168E+4   3.52951E+4
   3.69934E+4   3.50696E+4
   3.59652E+4   3.53839E+4
   3.50452E+4   3.55470E+4
   3.42785E+4   3.56594E+4
   3.33828E+4   3.54582E+4
   3.24173E+4   3.56244E+4
   3.19076E+4   3.56337E+4
   3.09817E+4   3.55627E+4
   3.00517E+4   3.54980E+4
   2.91895E+4   3.53691E+4
   2.83904E+4   3.53985E+4
   2.79400E+4   3.54350E+4
   2.68745E+4   3.52097E+4
   2.61620E+4   3.51193E+4
   2.54671E+4   3.50983E+4
   2.47366E+4   3.51630E+4
   2.41796E+4   3.50423E+4
   2.33800E+4   3.50540E+4
   2.23204E+4   3.47358E+4
   2.17519E+4   3.46850E+4
   2.12605E+4   3.45801E+4
   2.05047E+4   3.43522E+4
   1.96618E+4   3.39742E+4
   1.92620E+4   3.38215E+4
   1.83671E+4   3.36443E+4
   1.78125E+4   3.38402E+4
   1.72808E+4   3.36407E+4
   1.66346E+4   3.34105E+4
   1.60456E+4   3.30928E+4
   1.56740E+4   3.28681E+4
   1.53135E+4   3.26971E+4
   1.44641E+4   3.25428E+4
   1.39529E+4   3.20610E+4
