 
 $NMID
 ID=''
 FMTDAT='(2E13.5)'
 TRAMP=   1.00000E+0
 VOLUME=   1.00000E+0
 $END
   2.99883E+5   5.39126E+5
   2.65137E+5   1.64645E+6
   4.63988E+5   1.58662E+6
   3.53150E+5   1.49588E+6
   2.70310E+5   1.54532E+6
   2.26505E+5   1.50990E+6
   1.28942E+5   1.50415E+6
   1.12191E+5   1.56791E+6
   1.37578E+5   1.53069E+6
   7.63510E+4   1.48432E+6
   2.05086E+4   1.48997E+6
  -1.13326E+4   1.47116E+6
  -5.54189E+4   1.47148E+6
  -6.11941E+4   1.48315E+6
  -6.90826E+4   1.44290E+6
  -1.14424E+5   1.41003E+6
  -1.53235E+5   1.41520E+6
  -1.90167E+5   1.40086E+6
  -2.35376E+5   1.38759E+6
  -2.57443E+5   1.37727E+6
  -2.87573E+5   1.34223E+6
  -3.35006E+5   1.31880E+6
  -3.66158E+5   1.31069E+6
  -3.94280E+5   1.29115E+6
  -4.23958E+5   1.27047E+6
  -4.33006E+5   1.25256E+6
  -4.53188E+5   1.22528E+6
  -4.83143E+5   1.20625E+6
  -5.00543E+5   1.19015E+6
  -5.13630E+5   1.17091E+6
  -5.37337E+5   1.15116E+6
  -5.56945E+5   1.12385E+6
  -5.81999E+5   1.09164E+6
  -6.09740E+5   1.07037E+6
  -6.30373E+5   1.04995E+6
  -6.50167E+5   1.02335E+6
  -6.71916E+5   9.97106E+5
  -6.92298E+5   9.66973E+5
  -7.12308E+5   9.36839E+5
  -7.29942E+5   9.15761E+5
  -7.40620E+5   8.93269E+5
  -7.50337E+5   8.67202E+5
  -7.59615E+5   8.42129E+5
  -7.70588E+5   8.17593E+5
  -7.82798E+5   7.93004E+5
  -7.93945E+5   7.72573E+5
  -8.04445E+5   7.47682E+5
  -8.15353E+5   7.17287E+5
  -8.24796E+5   6.86436E+5
  -8.35419E+5   6.58729E+5
  -8.47422E+5   6.31869E+5
  -8.57602E+5   6.04114E+5
  -8.65246E+5   5.76157E+5
  -8.73492E+5   5.48808E+5
  -8.80391E+5   5.20622E+5
  -8.86317E+5   4.92787E+5
  -8.91208E+5   4.66308E+5
  -8.93885E+5   4.42037E+5
  -8.95756E+5   4.17904E+5
  -8.98900E+5   3.93251E+5
  -9.01575E+5   3.67762E+5
  -9.03734E+5   3.42910E+5
  -9.06566E+5   3.17859E+5
  -9.07880E+5   2.90682E+5
  -9.06721E+5   2.64518E+5
  -9.04790E+5   2.38998E+5
  -9.03304E+5   2.13790E+5
  -9.01871E+5   1.88477E+5
  -9.00955E+5   1.64968E+5
  -8.98864E+5   1.41492E+5
  -8.94910E+5   1.17671E+5
  -8.89340E+5   9.47981E+4
  -8.85296E+5   7.34553E+4
  -8.82055E+5   5.14223E+4
  -8.76538E+5   2.90316E+4
  -8.69299E+5   7.83712E+3
  -8.62538E+5  -1.25052E+4
  -8.56047E+5  -3.46338E+4
  -8.48253E+5  -5.72859E+4
  -8.40362E+5  -7.83975E+4
  -8.31986E+5  -9.85377E+4
  -8.22051E+5  -1.17992E+5
  -8.12274E+5  -1.38143E+5
  -8.02198E+5  -1.57965E+5
  -7.92173E+5  -1.77195E+5
  -7.81506E+5  -1.93660E+5
  -7.70733E+5  -2.09906E+5
  -7.58769E+5  -2.26027E+5
  -7.46983E+5  -2.42173E+5
  -7.35178E+5  -2.56929E+5
  -7.23930E+5  -2.70693E+5
  -7.11934E+5  -2.84619E+5
  -6.98600E+5  -2.99115E+5
  -6.84691E+5  -3.13314E+5
  -6.70460E+5  -3.26582E+5
  -6.57328E+5  -3.39617E+5
  -6.44535E+5  -3.51773E+5
  -6.30260E+5  -3.63937E+5
  -6.15238E+5  -3.75446E+5
  -6.00476E+5  -3.86664E+5
  -5.87066E+5  -3.97024E+5
  -5.72857E+5  -4.07573E+5
  -5.57434E+5  -4.16585E+5
  -5.42110E+5  -4.23955E+5
  -5.27610E+5  -4.31410E+5
  -5.13749E+5  -4.39122E+5
  -4.99746E+5  -4.47150E+5
  -4.84532E+5  -4.54027E+5
  -4.68767E+5  -4.59669E+5
  -4.54099E+5  -4.64473E+5
  -4.39902E+5  -4.70360E+5
  -4.24987E+5  -4.76887E+5
  -4.09657E+5  -4.82494E+5
  -3.94117E+5  -4.86925E+5
  -3.79139E+5  -4.91090E+5
  -3.63852E+5  -4.95807E+5
  -3.48424E+5  -4.99991E+5
  -3.33011E+5  -5.03081E+5
  -3.18750E+5  -5.04874E+5
  -3.04980E+5  -5.06607E+5
  -2.91008E+5  -5.09125E+5
  -2.76822E+5  -5.11354E+5
  -2.62751E+5  -5.13407E+5
  -2.48919E+5  -5.14851E+5
  -2.34299E+5  -5.15591E+5
  -2.20416E+5  -5.15763E+5
  -2.06506E+5  -5.15479E+5
  -1.93230E+5  -5.15663E+5
  -1.79732E+5  -5.15334E+5
  -1.66323E+5  -5.15189E+5
  -1.52364E+5  -5.14429E+5
  -1.38487E+5  -5.13334E+5
  -1.25573E+5  -5.11155E+5
  -1.13137E+5  -5.09437E+5
  -1.00456E+5  -5.07627E+5
  -8.75854E+4  -5.05008E+5
  -7.53275E+4  -5.01987E+5
  -6.38781E+4  -4.99279E+5
  -5.16470E+4  -4.96724E+5
  -3.91777E+4  -4.93414E+5
  -2.76223E+4  -4.88920E+5
  -1.69867E+4  -4.84595E+5
  -6.62146E+3  -4.80695E+5
   4.33327E+3  -4.76622E+5
   1.48616E+4  -4.72246E+5
   2.50678E+4  -4.66941E+5
   3.51290E+4  -4.61458E+5
   4.44124E+4  -4.56104E+5
   5.36777E+4  -4.50192E+5
   6.20716E+4  -4.44529E+5
   7.04673E+4  -4.38579E+5
   7.88999E+4  -4.32741E+5
   8.66194E+4  -4.27112E+5
   9.44129E+4  -4.20587E+5
   1.02408E+5  -4.14542E+5
   1.09727E+5  -4.07547E+5
   1.16414E+5  -4.01357E+5
   1.23138E+5  -3.95012E+5
   1.29436E+5  -3.88226E+5
   1.35740E+5  -3.81189E+5
   1.41806E+5  -3.74549E+5
   1.47577E+5  -3.67820E+5
   1.53268E+5  -3.60630E+5
   1.58430E+5  -3.52944E+5
   1.63040E+5  -3.45879E+5
   1.67248E+5  -3.39366E+5
   1.72150E+5  -3.32309E+5
   1.76662E+5  -3.25556E+5
   1.80861E+5  -3.18212E+5
   1.84433E+5  -3.11292E+5
   1.87914E+5  -3.04094E+5
   1.91469E+5  -2.97031E+5
   1.94855E+5  -2.90026E+5
   1.97746E+5  -2.82929E+5
   2.00344E+5  -2.75836E+5
   2.03074E+5  -2.69098E+5
   2.06253E+5  -2.62078E+5
   2.09179E+5  -2.54620E+5
   2.10832E+5  -2.47117E+5
   2.12915E+5  -2.40673E+5
   2.15104E+5  -2.33856E+5
   2.17362E+5  -2.27075E+5
   2.19056E+5  -2.19692E+5
   2.20671E+5  -2.12933E+5
   2.22133E+5  -2.06219E+5
   2.23293E+5  -1.99438E+5
   2.24223E+5  -1.92648E+5
   2.25088E+5  -1.86252E+5
   2.25525E+5  -1.79918E+5
   2.26476E+5  -1.74124E+5
   2.27746E+5  -1.67604E+5
   2.28292E+5  -1.60631E+5
   2.28578E+5  -1.54077E+5
   2.28874E+5  -1.47754E+5
   2.28841E+5  -1.41503E+5
   2.29156E+5  -1.35767E+5
   2.29440E+5  -1.29318E+5
   2.29126E+5  -1.23227E+5
   2.29144E+5  -1.17137E+5
   2.28911E+5  -1.11025E+5
   2.28400E+5  -1.04769E+5
   2.27674E+5  -9.89646E+4
   2.26340E+5  -9.31420E+4
   2.25833E+5  -8.76279E+4
   2.24999E+5  -8.18859E+4
   2.24166E+5  -7.63830E+4
   2.22778E+5  -7.06492E+4
   2.21503E+5  -6.54153E+4
   2.20034E+5  -6.02405E+4
   2.18855E+5  -5.45621E+4
   2.17163E+5  -4.94022E+4
   2.15506E+5  -4.45670E+4
   2.13625E+5  -3.98849E+4
   2.12362E+5  -3.46925E+4
   2.10661E+5  -2.97110E+4
   2.08438E+5  -2.49679E+4
   2.06087E+5  -2.07126E+4
   2.04028E+5  -1.64293E+4
   2.01413E+5  -1.22776E+4
   1.99427E+5  -8.20852E+3
   1.97339E+5  -4.16242E+3
   1.94627E+5  -3.26027E+2
   1.92318E+5   3.61145E+3
   1.90001E+5   7.48097E+3
   1.87445E+5   1.10690E+4
   1.84287E+5   1.45946E+4
   1.81626E+5   1.76702E+4
   1.79260E+5   2.08464E+4
   1.76864E+5   2.42021E+4
   1.73895E+5   2.73795E+4
   1.71173E+5   3.04886E+4
   1.68189E+5   3.30873E+4
   1.65372E+5   3.57475E+4
   1.62837E+5   3.88415E+4
   1.59976E+5   4.10131E+4
   1.57032E+5   4.33355E+4
   1.54491E+5   4.58069E+4
   1.51610E+5   4.82073E+4
   1.48742E+5   5.05247E+4
   1.45903E+5   5.23695E+4
   1.43409E+5   5.40910E+4
   1.40664E+5   5.64352E+4
   1.37608E+5   5.81988E+4
   1.34759E+5   6.01533E+4
   1.31847E+5   6.18129E+4
   1.29131E+5   6.33855E+4
   1.26593E+5   6.51785E+4
   1.23638E+5   6.68048E+4
   1.21008E+5   6.82115E+4
   1.18553E+5   6.92410E+4
   1.15973E+5   7.04878E+4
   1.13190E+5   7.18875E+4
   1.10713E+5   7.32320E+4
   1.07952E+5   7.41622E+4
   1.05316E+5   7.51997E+4
   1.02869E+5   7.60447E+4
   1.00222E+5   7.70157E+4
   9.78790E+4   7.82176E+4
   9.53528E+4   7.91819E+4
   9.28690E+4   8.00279E+4
   9.02768E+4   8.09151E+4
   8.76562E+4   8.18293E+4
   8.49385E+4   8.22944E+4
   8.26108E+4   8.26538E+4
   8.05091E+4   8.33820E+4
   7.79523E+4   8.40115E+4
   7.57033E+4   8.45485E+4
   7.29874E+4   8.49776E+4
   7.08551E+4   8.49880E+4
   6.84290E+4   8.54528E+4
   6.63013E+4   8.55970E+4
   6.40343E+4   8.56986E+4
   6.17514E+4   8.60311E+4
   5.95851E+4   8.60785E+4
   5.74268E+4   8.63567E+4
   5.52079E+4   8.61820E+4
   5.31050E+4   8.60266E+4
   5.06386E+4   8.59279E+4
   4.88166E+4   8.59719E+4
   4.67488E+4   8.56318E+4
   4.48268E+4   8.55288E+4
   4.27865E+4   8.52465E+4
   4.08582E+4   8.49433E+4
   3.86330E+4   8.43847E+4
   3.68679E+4   8.43248E+4
   3.51183E+4   8.36312E+4
   3.34405E+4   8.31645E+4
   3.15415E+4   8.28599E+4
   2.99041E+4   8.23214E+4
   2.82699E+4   8.20702E+4
   2.61833E+4   8.12650E+4
   2.43941E+4   8.07550E+4
   2.30124E+4   7.98262E+4
   2.12590E+4   7.93163E+4
   1.97178E+4   7.85248E+4
   1.82644E+4   7.79079E+4
   1.68335E+4   7.72079E+4
   1.51306E+4   7.64818E+4
   1.37050E+4   7.56795E+4
   1.23558E+4   7.50086E+4
   1.08458E+4   7.43150E+4
   9.75343E+3   7.32052E+4
   8.21955E+3   7.23441E+4
   6.97777E+3   7.15301E+4
   5.58856E+3   7.07435E+4
   4.27682E+3   6.96740E+4
   3.04295E+3   6.88097E+4
   1.89129E+3   6.77458E+4
   7.31102E+2   6.70995E+4
  -5.67340E+2   6.62725E+4
  -1.77858E+3   6.52238E+4
  -2.59875E+3   6.43106E+4
  -3.84067E+3   6.35323E+4
  -4.76250E+3   6.25988E+4
  -5.90676E+3   6.15901E+4
  -6.56847E+3   6.04889E+4
  -7.76736E+3   5.96304E+4
  -8.57893E+3   5.85976E+4
  -9.65508E+3   5.77303E+4
  -1.02494E+4   5.67028E+4
  -1.10767E+4   5.56974E+4
  -1.19592E+4   5.48131E+4
  -1.27263E+4   5.36303E+4
  -1.35961E+4   5.28478E+4
  -1.41603E+4   5.17324E+4
  -1.50849E+4   5.07387E+4
  -1.57639E+4   4.99176E+4
  -1.63940E+4   4.88068E+4
  -1.65053E+4   4.78139E+4
  -1.73701E+4   4.69152E+4
  -1.79717E+4   4.57916E+4
  -1.84587E+4   4.48002E+4
  -1.91148E+4   4.38816E+4
  -1.93536E+4   4.30029E+4
  -2.00467E+4   4.20815E+4
  -2.02195E+4   4.08942E+4
  -2.09686E+4   4.00488E+4
  -2.10168E+4   3.92096E+4
  -2.16213E+4   3.80467E+4
  -2.18418E+4   3.70814E+4
  -2.20334E+4   3.62706E+4
  -2.24330E+4   3.52936E+4
  -2.25510E+4   3.44156E+4
  -2.26888E+4   3.37136E+4
  -2.30458E+4   3.26595E+4
  -2.33822E+4   3.17403E+4
  -2.36084E+4   3.07763E+4
  -2.35294E+4   2.99459E+4
  -2.35481E+4   2.89525E+4
  -2.37472E+4   2.77589E+4
  -2.38293E+4   2.72606E+4
  -2.41691E+4   2.60189E+4
  -2.40297E+4   2.53779E+4
  -2.42063E+4   2.44885E+4
  -2.39901E+4   2.38108E+4
  -2.42137E+4   2.27815E+4
  -2.40525E+4   2.19648E+4
  -2.39699E+4   2.10266E+4
  -2.40207E+4   2.02510E+4
  -2.40171E+4   1.93338E+4
  -2.39450E+4   1.86717E+4
  -2.37896E+4   1.78977E+4
  -2.35738E+4   1.72518E+4
  -2.37084E+4   1.62164E+4
  -2.34041E+4   1.57532E+4
  -2.33447E+4   1.47158E+4
  -2.33666E+4   1.40229E+4
