 
 $NMID
 ID=''
 FMTDAT='(2E13.5)'
 TRAMP=   1.00000E+0
 VOLUME=   1.00000E+0
 $END
  -2.46777E+4  -3.30264E+4
  -4.16291E+4   3.23988E+3
  -8.02138E+3   3.41380E+4
   2.97238E+4   2.06713E+4
   2.38568E+4  -1.69925E+4
  -6.59831E+3  -3.05040E+4
  -2.29861E+4  -7.45226E+3
  -1.27256E+4   1.99918E+4
   1.24140E+4   2.05764E+4
   2.31984E+4  -1.17882E+3
   5.66045E+3  -1.57154E+4
  -1.43969E+4  -1.05445E+4
  -1.35197E+4   5.30837E+3
  -1.60901E+3   1.44144E+4
   8.33657E+3   6.56827E+3
   8.84122E+3  -8.18271E+3
  -5.70100E+2  -1.13758E+4
  -9.04683E+3  -1.93397E+3
  -6.14223E+3   5.74605E+3
   2.94788E+3   6.24702E+3
   6.55567E+3   1.87606E+2
   3.77882E+3  -6.39894E+3
  -1.74504E+3  -4.77810E+3
  -5.98199E+3   2.54765E+3
  -3.32083E+3   4.95417E+3
   4.44954E+3   2.41886E+3
   6.64063E+3   3.90715E+2
  -6.96803E+2  -2.59534E+3
  -6.61633E+3  -3.84551E+3
  -3.15833E+3   3.45931E+2
   1.95177E+3   5.38405E+3
   2.78645E+3   3.32604E+3
   6.05365E+2  -2.58863E+3
  -1.62575E+3  -5.13743E+3
  -2.48796E+3  -1.75006E+3
  -6.80026E+2   2.80687E+3
   1.83846E+3   3.87835E+3
   2.84974E+3   7.35532E+2
   1.24428E+3  -2.23485E+3
  -1.96265E+3  -1.96753E+3
  -3.35153E+3   8.35394E+2
  -5.46092E+2   1.38615E+3
   2.83711E+3   7.24789E+2
   2.46691E+3  -1.02829E+3
   5.39223E+2  -1.91216E+3
  -5.58902E+2  -7.41927E+1
  -1.29178E+3   2.77886E+3
  -1.56933E+3   1.91413E+3
  -1.56699E+2  -9.60720E+2
   1.42369E+3  -1.66943E+3
   3.01543E+2  -9.79791E+2
  -8.86834E+2  -3.51842E+2
   8.55672E+1   2.59119E+1
   9.92220E+2   1.01427E+3
   9.74817E+2   9.16629E+2
   9.87536E+1   8.49628E+1
  -8.68127E+2  -1.25464E+3
  -5.98143E+2  -9.55916E+2
   2.98694E+2  -8.94367E+1
   7.64263E+2   7.66024E+2
   9.83255E+2   5.54460E+2
   9.80251E+2   4.35610E+2
   7.87022E+1   6.14976E+2
  -1.82400E+3   4.51396E+2
  -1.87702E+3  -3.75136E+2
  -4.89479E+2  -6.74554E+2
   9.63254E+2  -6.50598E+2
   1.25557E+3  -6.12178E+2
   8.37980E+2  -5.42198E+2
  -5.02039E+1   1.86088E+2
  -3.98069E+2   4.36535E+2
   7.16475E+2   2.84111E+1
   1.48569E+3   3.25717E+2
   5.07691E+2   4.74455E+2
  -7.38872E+2  -1.03837E+2
  -5.21445E+2  -3.22925E+2
   1.65091E+2   3.34082E+2
   3.42555E+2   7.35867E+2
   1.68550E+1   3.70780E+2
  -1.55012E+2  -6.36450E+2
  -3.86321E+1  -9.30123E+2
  -1.31761E+2  -9.43084E+1
   2.24812E+2   3.02245E+2
   8.03646E+2  -8.80256E-1
   8.10442E+2  -9.28393E+2
   3.93151E+2  -8.14373E+2
   2.75572E+2   3.14047E+2
  -6.70892E+1   4.20805E+2
   2.17750E+2   1.23680E+2
   8.26971E+2   7.92070E+1
   8.19129E+2  -1.21638E+2
  -1.05005E+2  -8.01722E+1
  -1.01050E+3   1.58638E+2
  -8.09670E+2  -1.11878E+2
   5.36813E+2  -5.44767E+2
   9.65492E+2  -6.40076E+2
   5.27988E+2  -4.50404E+2
  -3.46513E+2  -7.89462E+1
  -1.80415E+2  -2.32068E+2
   7.09302E+2   1.95106E+2
   6.66620E+2   5.57589E+2
  -2.69473E+2   2.81962E+2
  -6.66304E+2  -8.84747E+2
   1.27399E+2  -8.62255E+2
   5.31881E+2   1.50768E+2
   2.39082E+2   8.27526E+2
  -4.15718E+2   4.64148E+2
  -4.62616E+2  -6.48628E+2
  -3.02406E+2  -1.14943E+3
   7.00888E+2  -5.11123E+2
   8.80868E+2   3.76683E+2
   7.25685E+1   6.47231E+2
  -3.54819E+2   8.51911E+1
   4.62375E+1  -1.67347E+2
  -1.23805E+2  -3.61811E+1
  -5.11525E+2  -5.83664E+1
  -4.28716E+2   8.54953E+1
   2.23154E+1  -9.24172E+2
   6.36862E+2  -7.55422E+2
   5.43896E+2  -2.10412E+1
   2.97924E+1   3.97327E+2
  -2.16341E+2   2.42287E+2
  -1.94288E+2   3.00661E+2
  -6.29731E+1   3.38421E+2
  -6.38049E+2  -1.42730E+2
  -4.41487E+2  -5.36527E+2
   1.78990E+2  -2.47014E+2
   1.58919E+2   2.63579E+2
  -3.04085E+0   4.06640E+2
  -1.79749E+2   3.74257E+2
  -6.29211E+2  -4.42528E+1
  -3.33715E+2  -3.70571E+2
   3.99789E+1  -4.72142E+1
   1.74494E+2   2.62846E+2
   3.15165E+2   1.77432E+1
   1.43578E+2  -6.65464E+1
   4.21588E+2  -5.90608E+1
   2.39428E+2   1.83354E+1
  -1.49729E+2   5.52731E+2
  -4.18630E+2   2.12065E+1
   7.06399E+1  -2.63563E+2
   5.55184E+2  -1.82142E+1
   3.22365E+2   4.71256E+2
  -1.28239E+2   5.68183E+2
  -5.54906E+2   2.43269E+2
  -9.76243E+1  -4.97969E+2
  -5.42519E+0  -4.42298E+2
  -3.42136E+1  -1.85064E+2
   3.34776E+2  -4.27896E+2
   5.57105E+1  -4.10243E+2
   5.13872E+2   2.58367E+1
   2.02434E+2   1.55098E+2
   5.44693E+1   4.25035E+2
  -2.03736E+2   1.61198E+2
   3.70580E+1  -3.36662E+0
  -1.50756E+2  -1.21286E+2
  -1.63532E+2   6.88581E+1
  -1.67582E+2   4.50757E+1
  -2.09373E+2  -2.10194E+2
  -1.37250E+2  -1.86931E+2
  -1.54664E+2  -1.18388E+2
  -1.43077E+2  -3.80932E+1
   8.26691E+1  -3.58146E+1
  -1.26684E+2  -5.23112E+2
   6.10202E+2  -2.83319E+2
   3.27687E+2   1.81569E+2
  -1.55970E+2   2.47809E+2
  -1.40974E+2   4.08930E+1
   2.02650E+2  -2.58964E+2
   1.99838E+2  -1.59386E+2
  -9.46347E+1   1.70935E+2
  -2.53055E+2  -1.44644E+2
  -2.41346E+2   3.65109E+1
   5.40922E+1  -1.86272E+2
  -9.33110E+1   2.53304E+2
  -3.38472E+2  -8.29462E+1
  -3.36854E+2  -3.10895E+2
  -1.27919E+2  -4.15650E+2
   3.70104E+2  -1.13196E+2
   9.57286E+1   2.71299E+2
  -2.90135E+2   2.43385E+2
  -3.35961E+2  -4.29596E+1
  -3.02549E+2  -4.24453E+2
   4.34020E+1  -1.86839E+2
   1.09216E+2  -2.15702E+2
  -2.52392E+2  -1.21320E+2
   8.30909E+1  -2.52479E+2
   2.44702E+2   4.32665E+1
   2.27750E+2   2.91848E+2
  -2.59402E+2   7.81095E+2
  -5.06545E+2   6.28938E+1
  -4.48868E+2  -6.05913E+2
   7.65914E+1  -4.90176E+2
   2.88029E+2  -2.54382E+2
  -1.98655E+0   1.85863E+2
   1.11849E+2  -2.13231E+2
  -7.51864E+1   9.10126E+1
  -6.38134E+1   1.35393E+2
  -3.05231E+2  -3.79178E+1
  -3.30455E+2  -9.45275E+1
  -1.25838E+2  -5.01606E+2
   4.49480E+2  -2.10351E+2
   3.00850E+2   2.99864E+2
  -3.67722E+1   3.63630E+2
  -3.60828E+2  -2.04824E+2
  -2.80088E+2  -3.58015E+2
   1.39101E+1  -9.82309E+1
   1.52688E+2  -7.76851E+1
  -2.01416E+2   8.54827E+1
  -1.39568E+2  -1.83872E+2
   3.38437E+2   1.58647E+2
   1.79199E+2  -8.66713E+1
  -9.16598E+1   2.63040E+2
  -5.78051E+2  -1.42788E+2
  -1.25514E+2  -5.57588E+2
   2.70130E+2  -6.45253E+2
   3.17899E+2  -2.43255E+2
  -1.66794E+1   8.06350E+1
   1.81012E+2  -5.37758E+1
   3.38453E+1  -8.83903E+1
   1.43662E+2   1.46051E+2
   1.52930E+1   1.51384E+2
  -4.42005E+2   8.45319E+1
  -2.71718E+2  -1.92204E+2
   2.58199E+2  -5.08441E+2
   2.65865E+2   1.49328E+1
  -9.14688E+1   4.73593E+1
  -4.16701E+2   6.54324E+1
  -1.29886E+2  -3.76033E+2
   6.66005E+1  -2.32026E+2
   1.25026E+2   1.51377E+0
  -2.66570E+1  -8.07448E+1
  -1.72804E+2  -8.54874E+1
  -2.75382E+2  -2.02999E+2
   9.13544E+1  -8.30420E+1
  -1.77021E+2  -5.55441E+1
  -3.07056E+2  -7.75487E+1
  -6.48967E+1  -8.00204E+1
   1.96411E+2  -7.08016E+1
   1.99373E+2  -2.90309E+2
  -9.76294E+1   1.79331E+2
  -2.32472E+2  -1.64632E+2
  -2.59353E+2  -1.21061E+2
   4.38795E+1  -2.44625E+2
   2.67616E+2  -1.19912E+2
  -2.06760E+2   3.77872E+2
  -2.09731E+1  -2.48563E+2
   1.07081E+2  -3.48871E+2
   3.10491E+2  -6.74762E+1
  -1.64305E+2   3.72674E+2
  -1.73962E+2   1.48778E+1
  -3.80005E+2  -2.74828E+2
   1.26900E+2  -2.50942E+2
   6.67180E+0  -7.16123E+1
   5.21614E+1   8.40841E+1
  -1.06174E+2   1.37418E+2
  -2.37009E+2  -1.43072E+1
  -2.05814E+2  -1.27248E+2
  -6.99190E+1   4.18551E+1
  -1.46191E+2  -1.62993E+1
   2.02368E+1  -1.16285E+0
   2.50328E+2  -4.68987E+1
   4.02789E+2  -3.28154E+1
   1.02989E+2   1.42576E+2
  -2.17777E+2   2.54289E+2
  -7.73716E+1   4.72086E+1
   1.47279E+1  -1.72346E+2
   1.56067E+2  -1.81586E+2
   6.93469E+1   2.32413E+2
  -7.33314E+0  -1.35235E+2
   2.30656E+2  -8.52993E+1
   7.37841E+1   1.99283E+1
   8.57388E+1  -1.91043E+1
  -1.50090E+2   2.81546E+1
  -1.84517E+2  -8.98090E+1
   1.35392E+2  -1.74476E+2
   5.70361E+1  -3.34618E+2
   1.87999E+2  -1.32205E+2
  -4.81352E+1  -2.12798E+1
  -8.47926E+1  -2.60971E+1
   1.14262E+2  -1.86908E+1
   1.25782E+2   4.75270E+1
   6.67103E+1  -8.44199E+1
  -1.83445E+2  -3.18937E+1
   1.41577E+2  -4.20756E+2
   2.83052E+2  -7.92917E+1
   4.43041E+2   1.01306E+2
   6.82553E+0   1.98354E+2
  -2.39136E+2  -1.90559E+1
  -3.11095E+0   2.08819E+1
   2.24042E+2  -1.22035E+2
   5.18944E+0  -2.13248E+2
   6.17302E+1   1.93381E+2
   9.22145E+1  -1.23212E+2
   1.93010E+2  -1.94558E+2
  -1.88501E+1  -7.63914E+1
  -8.73269E+1   3.63591E+1
  -2.36610E+2  -3.76501E+0
   7.56679E+1  -4.16877E+2
   1.03587E+2  -2.92798E+2
   2.50632E+2   9.13863E+1
   8.47996E+1   1.62257E+2
  -1.90687E+2  -1.80127E+2
   2.21338E+2  -3.74132E+2
   2.44246E+2   7.31403E+1
   1.93729E+2   5.39726E+1
   9.56450E+1   1.10675E+2
  -1.86207E+2  -1.00630E+2
   1.25919E+2  -8.04607E+1
  -2.49918E+1   1.46633E+2
  -2.04555E+2   2.24071E+1
  -1.84058E+2  -9.95089E+1
  -2.35489E+1  -1.58775E+2
  -5.63060E+1  -2.08607E+2
   1.29142E+2   5.25231E+1
   2.32253E+2  -5.90003E-1
  -2.69978E+0  -4.13061E+1
  -7.42070E+1  -1.22667E+0
  -2.51998E+1  -1.93288E+1
  -7.89904E+1   1.84923E+2
  -8.39943E+1   9.67107E+0
   8.50727E+1   1.49986E+2
   1.99916E+2   6.43964E+1
   1.70936E+2  -2.87866E+1
   2.37254E+1   1.85291E+2
  -4.28994E+2  -1.19245E+1
  -1.00638E+2   2.44747E+0
   2.24311E+2  -1.60236E+2
   3.81339E+2   1.84912E+1
   4.22876E+1   1.72616E+2
   1.14848E+2   2.47277E+2
   5.30681E+1  -1.55488E+2
  -1.25203E+2   1.94544E+2
   5.75774E+1   7.56712E+1
  -9.01227E+1   9.87268E+1
  -1.25174E+2  -2.16907E+2
   9.70587E+1  -3.36750E+2
   4.21995E+2   4.87456E+1
   2.17050E+2   7.50855E+1
  -6.31765E+1   1.90564E+2
  -2.03483E+2   1.58645E+2
   7.97193E+1   2.34931E+1
   2.72142E+2   1.04870E+2
  -8.89288E+1   7.21749E+1
  -8.02975E+1   1.58960E+1
  -1.66350E+2  -5.36036E+1
   7.65720E+0   9.47278E+1
   1.66084E+2   1.09186E+2
  -1.54001E+2   2.83337E+2
   3.45694E+1   1.68090E+0
   5.40204E+0  -2.39137E+2
   1.78742E+2   4.24778E+1
   7.12062E+1  -2.05658E+1
  -4.92696E+1   1.23530E+2
   1.97111E+2   1.22009E+2
   1.40825E+1  -3.50059E+1
   1.05936E+2   1.79515E+2
  -1.21280E+2   4.15215E+1
  -1.97292E+2  -1.30150E+2
  -2.50856E+1  -1.73528E+2
   2.75853E+2  -1.13536E+2
  -3.35710E+1   2.02813E+2
   1.47499E+2   6.34755E+1
  -2.76469E+2   1.11757E+1
  -1.89166E+0  -2.65933E+2
   1.77998E+1   9.41031E+0
   1.25196E+2  -1.03279E+2
