 
 $NMID
 ID=''
 FMTDAT='(2E13.5)'
 TRAMP=   1.00000E+0
 VOLUME=   1.00000E+0
 $END
  -3.47881E+5   6.35649E+5
  -1.53065E+6   1.26967E+6
  -1.36200E+6   1.43057E+6
  -1.32029E+6   1.27533E+6
  -1.41537E+6   1.24885E+6
  -1.39128E+6   1.27081E+6
  -1.37275E+6   1.23426E+6
  -1.39688E+6   1.22410E+6
  -1.38159E+6   1.19328E+6
  -1.40817E+6   1.14834E+6
  -1.42473E+6   1.14875E+6
  -1.39735E+6   1.11489E+6
  -1.41533E+6   1.06579E+6
  -1.43637E+6   1.06139E+6
  -1.41712E+6   1.03129E+6
  -1.42356E+6   9.88676E+5
  -1.44086E+6   9.81460E+5
  -1.43433E+6   9.53943E+5
  -1.44221E+6   9.15352E+5
  -1.44810E+6   9.07340E+5
  -1.44190E+6   8.81877E+5
  -1.45038E+6   8.49247E+5
  -1.45536E+6   8.35639E+5
  -1.45084E+6   8.09959E+5
  -1.45707E+6   7.75983E+5
  -1.45601E+6   7.64569E+5
  -1.45457E+6   7.42022E+5
  -1.46120E+6   7.12717E+5
  -1.45944E+6   6.89680E+5
  -1.45340E+6   6.68763E+5
  -1.46048E+6   6.45550E+5
  -1.45833E+6   6.27924E+5
  -1.45354E+6   6.03373E+5
  -1.45502E+6   5.83247E+5
  -1.45043E+6   5.68667E+5
  -1.44590E+6   5.52641E+5
  -1.44997E+6   5.36040E+5
  -1.44848E+6   5.18123E+5
  -1.44140E+6   4.97165E+5
  -1.44010E+6   4.79956E+5
  -1.43661E+6   4.62117E+5
  -1.43048E+6   4.42030E+5
  -1.42516E+6   4.25957E+5
  -1.42103E+6   4.10038E+5
  -1.41624E+6   3.89720E+5
  -1.41382E+6   3.72471E+5
  -1.41012E+6   3.54946E+5
  -1.40484E+6   3.33698E+5
  -1.39714E+6   3.14879E+5
  -1.39132E+6   3.00199E+5
  -1.38707E+6   2.84041E+5
  -1.38249E+6   2.67471E+5
  -1.37694E+6   2.52150E+5
  -1.37232E+6   2.35927E+5
  -1.36636E+6   2.18982E+5
  -1.36020E+6   2.02037E+5
  -1.35345E+6   1.84671E+5
  -1.34515E+6   1.68697E+5
  -1.33635E+6   1.54331E+5
  -1.33025E+6   1.39368E+5
  -1.32441E+6   1.23350E+5
  -1.31709E+6   1.07680E+5
  -1.31020E+6   9.24607E+4
  -1.30262E+6   7.64531E+4
  -1.29322E+6   6.07765E+4
  -1.28319E+6   4.75014E+4
  -1.27434E+6   3.44549E+4
  -1.26600E+6   2.11553E+4
  -1.25850E+6   7.85756E+3
  -1.25119E+6  -6.83600E+3
  -1.24140E+6  -2.15735E+4
  -1.23159E+6  -3.48509E+4
  -1.22351E+6  -4.63805E+4
  -1.21517E+6  -5.97535E+4
  -1.20482E+6  -7.36522E+4
  -1.19483E+6  -8.59731E+4
  -1.18552E+6  -9.77950E+4
  -1.17606E+6  -1.10338E+5
  -1.16590E+6  -1.22850E+5
  -1.15518E+6  -1.35728E+5
  -1.14450E+6  -1.47870E+5
  -1.13382E+6  -1.58698E+5
  -1.12369E+6  -1.70159E+5
  -1.11295E+6  -1.82908E+5
  -1.10111E+6  -1.95454E+5
  -1.08987E+6  -2.06360E+5
  -1.07897E+6  -2.16582E+5
  -1.06812E+6  -2.27973E+5
  -1.05637E+6  -2.38593E+5
  -1.04464E+6  -2.47632E+5
  -1.03360E+6  -2.56356E+5
  -1.02317E+6  -2.65470E+5
  -1.01216E+6  -2.75355E+5
  -9.99944E+5  -2.83986E+5
  -9.87244E+5  -2.91828E+5
  -9.76305E+5  -2.98791E+5
  -9.65813E+5  -3.06207E+5
  -9.54700E+5  -3.14462E+5
  -9.43141E+5  -3.22390E+5
  -9.31710E+5  -3.29223E+5
  -9.20933E+5  -3.36249E+5
  -9.09816E+5  -3.44440E+5
  -8.97149E+5  -3.52019E+5
  -8.84196E+5  -3.58274E+5
  -8.73010E+5  -3.63174E+5
  -8.62884E+5  -3.69021E+5
  -8.52591E+5  -3.75040E+5
  -8.40193E+5  -3.81977E+5
  -8.27797E+5  -3.86888E+5
  -8.16489E+5  -3.90548E+5
  -8.06609E+5  -3.95099E+5
  -7.95726E+5  -4.01245E+5
  -7.84272E+5  -4.07492E+5
  -7.72435E+5  -4.12747E+5
  -7.61185E+5  -4.17985E+5
  -7.49907E+5  -4.23311E+5
  -7.38045E+5  -4.28958E+5
  -7.25547E+5  -4.33420E+5
  -7.13720E+5  -4.36258E+5
  -7.03270E+5  -4.39602E+5
  -6.93317E+5  -4.43784E+5
  -6.82772E+5  -4.47692E+5
  -6.71991E+5  -4.51347E+5
  -6.61042E+5  -4.55285E+5
  -6.49986E+5  -4.59116E+5
  -6.38450E+5  -4.62258E+5
  -6.27439E+5  -4.64747E+5
  -6.16511E+5  -4.67986E+5
  -6.06009E+5  -4.71133E+5
  -5.94919E+5  -4.74921E+5
  -5.83078E+5  -4.79068E+5
  -5.70794E+5  -4.82553E+5
  -5.59224E+5  -4.85010E+5
  -5.48506E+5  -4.87487E+5
  -5.37312E+5  -4.90429E+5
  -5.25927E+5  -4.92709E+5
  -5.15004E+5  -4.94488E+5
  -5.04751E+5  -4.96673E+5
  -4.94250E+5  -4.99088E+5
  -4.83265E+5  -5.01607E+5
  -4.71809E+5  -5.02779E+5
  -4.61144E+5  -5.03213E+5
  -4.51403E+5  -5.04068E+5
  -4.41889E+5  -5.05704E+5
  -4.31096E+5  -5.07757E+5
  -4.20034E+5  -5.08556E+5
  -4.09556E+5  -5.08787E+5
  -3.98449E+5  -5.09596E+5
  -3.88554E+5  -5.09718E+5
  -3.79132E+5  -5.09819E+5
  -3.69226E+5  -5.09536E+5
  -3.59490E+5  -5.09370E+5
  -3.50699E+5  -5.08978E+5
  -3.41580E+5  -5.09063E+5
  -3.32039E+5  -5.08630E+5
  -3.22650E+5  -5.07714E+5
  -3.14295E+5  -5.06379E+5
  -3.05809E+5  -5.05709E+5
  -2.96955E+5  -5.04980E+5
  -2.88239E+5  -5.03574E+5
  -2.79923E+5  -5.02233E+5
  -2.71270E+5  -5.01048E+5
  -2.62633E+5  -4.99521E+5
  -2.54050E+5  -4.97413E+5
  -2.45879E+5  -4.95411E+5
  -2.38757E+5  -4.93461E+5
  -2.31052E+5  -4.92188E+5
  -2.23099E+5  -4.91171E+5
  -2.15060E+5  -4.88909E+5
  -2.07746E+5  -4.86543E+5
  -2.00841E+5  -4.84466E+5
  -1.93646E+5  -4.82354E+5
  -1.86730E+5  -4.80375E+5
  -1.79365E+5  -4.77995E+5
  -1.72194E+5  -4.75463E+5
  -1.65540E+5  -4.73196E+5
  -1.58642E+5  -4.71518E+5
  -1.51165E+5  -4.69015E+5
  -1.43726E+5  -4.66152E+5
  -1.37912E+5  -4.63655E+5
  -1.31327E+5  -4.61384E+5
  -1.24505E+5  -4.59362E+5
  -1.17621E+5  -4.56672E+5
  -1.11145E+5  -4.53706E+5
  -1.05107E+5  -4.51089E+5
  -9.91535E+4  -4.48254E+5
  -9.29977E+4  -4.45515E+5
  -8.69493E+4  -4.42157E+5
  -8.18198E+4  -4.39241E+5
  -7.66660E+4  -4.36968E+5
  -7.04993E+4  -4.34621E+5
  -6.39451E+4  -4.31866E+5
  -5.78342E+4  -4.28618E+5
  -5.21440E+4  -4.25154E+5
  -4.63430E+4  -4.21950E+5
  -4.12485E+4  -4.19158E+5
  -3.56044E+4  -4.16259E+5
  -2.96426E+4  -4.12881E+5
  -2.37817E+4  -4.09594E+5
  -1.83870E+4  -4.06697E+5
  -1.25093E+4  -4.03248E+5
  -7.15723E+3  -3.99301E+5
  -2.35520E+3  -3.95418E+5
   2.29963E+3  -3.92394E+5
   7.64985E+3  -3.89341E+5
   1.28142E+4  -3.85808E+5
   1.79598E+4  -3.81999E+5
   2.26717E+4  -3.78085E+5
   2.70852E+4  -3.74624E+5
   3.19252E+4  -3.70665E+5
   3.69783E+4  -3.66850E+5
   4.12376E+4  -3.62652E+5
   4.52708E+4  -3.59602E+5
   4.95667E+4  -3.56091E+5
   5.45814E+4  -3.52048E+5
   5.89501E+4  -3.47715E+5
   6.25013E+4  -3.43205E+5
   6.59978E+4  -3.39150E+5
   6.95738E+4  -3.35604E+5
   7.35287E+4  -3.31779E+5
   7.68785E+4  -3.27883E+5
   8.01616E+4  -3.23523E+5
   8.36132E+4  -3.19960E+5
   8.69095E+4  -3.16016E+5
   9.03469E+4  -3.11417E+5
   9.30012E+4  -3.07052E+5
   9.55329E+4  -3.03021E+5
   9.83133E+4  -2.99789E+5
   1.01513E+5  -2.95963E+5
   1.04375E+5  -2.91722E+5
   1.06796E+5  -2.87072E+5
   1.08885E+5  -2.83191E+5
   1.11063E+5  -2.79609E+5
   1.13561E+5  -2.75846E+5
   1.15458E+5  -2.71754E+5
   1.17218E+5  -2.68089E+5
   1.19126E+5  -2.64546E+5
   1.21003E+5  -2.60943E+5
   1.23042E+5  -2.56700E+5
   1.24377E+5  -2.53263E+5
   1.25765E+5  -2.49615E+5
   1.27229E+5  -2.46111E+5
   1.29129E+5  -2.42396E+5
   1.30798E+5  -2.38742E+5
   1.32035E+5  -2.34758E+5
   1.33061E+5  -2.31431E+5
   1.34400E+5  -2.28012E+5
   1.35782E+5  -2.24463E+5
   1.36772E+5  -2.20380E+5
   1.37413E+5  -2.17311E+5
   1.38386E+5  -2.14301E+5
   1.39683E+5  -2.11292E+5
   1.41037E+5  -2.07349E+5
   1.41663E+5  -2.03714E+5
   1.42030E+5  -2.00479E+5
   1.42964E+5  -1.97449E+5
   1.44056E+5  -1.94288E+5
   1.44768E+5  -1.90457E+5
   1.45854E+5  -1.87350E+5
   1.46623E+5  -1.83961E+5
   1.47361E+5  -1.80827E+5
   1.48290E+5  -1.76968E+5
   1.48708E+5  -1.73281E+5
   1.48886E+5  -1.70247E+5
   1.49484E+5  -1.67643E+5
   1.50438E+5  -1.64325E+5
   1.51158E+5  -1.61246E+5
   1.51716E+5  -1.57653E+5
   1.51788E+5  -1.54433E+5
   1.51777E+5  -1.51222E+5
   1.52006E+5  -1.48483E+5
   1.52561E+5  -1.45050E+5
   1.52419E+5  -1.41860E+5
   1.52719E+5  -1.39195E+5
   1.53410E+5  -1.36197E+5
   1.53717E+5  -1.32895E+5
   1.53581E+5  -1.29641E+5
   1.53407E+5  -1.26451E+5
   1.53519E+5  -1.23650E+5
   1.53480E+5  -1.20960E+5
   1.53828E+5  -1.17776E+5
   1.53640E+5  -1.14871E+5
   1.53315E+5  -1.12135E+5
   1.53391E+5  -1.09585E+5
   1.53355E+5  -1.06385E+5
   1.53201E+5  -1.03347E+5
   1.52551E+5  -1.00650E+5
   1.51847E+5  -9.84085E+4
   1.51793E+5  -9.62463E+4
   1.51751E+5  -9.32671E+4
   1.51557E+5  -9.03487E+4
   1.50834E+5  -8.78231E+4
   1.50135E+5  -8.53903E+4
   1.49614E+5  -8.28826E+4
   1.49140E+5  -8.03708E+4
   1.48493E+5  -7.78494E+4
   1.48008E+5  -7.57021E+4
   1.47590E+5  -7.36261E+4
   1.47039E+5  -7.10388E+4
   1.46376E+5  -6.83288E+4
   1.45320E+5  -6.61459E+4
   1.44556E+5  -6.42212E+4
   1.44265E+5  -6.22011E+4
   1.43741E+5  -5.98299E+4
   1.42777E+5  -5.73715E+4
   1.41739E+5  -5.52074E+4
   1.40900E+5  -5.34663E+4
   1.40377E+5  -5.13113E+4
   1.39516E+5  -4.93196E+4
   1.38526E+5  -4.71683E+4
   1.37853E+5  -4.52390E+4
   1.36798E+5  -4.36558E+4
   1.36076E+5  -4.17576E+4
   1.35308E+5  -3.94992E+4
   1.34166E+5  -3.77522E+4
   1.33161E+5  -3.58763E+4
   1.32114E+5  -3.43421E+4
   1.31037E+5  -3.25478E+4
   1.30208E+5  -3.06793E+4
   1.28947E+5  -2.87498E+4
   1.28040E+5  -2.73663E+4
   1.27269E+5  -2.56298E+4
   1.26115E+5  -2.38231E+4
   1.24780E+5  -2.21780E+4
   1.23501E+5  -2.09697E+4
   1.22701E+5  -1.93594E+4
   1.22071E+5  -1.76664E+4
   1.20919E+5  -1.60403E+4
   1.19558E+5  -1.43100E+4
   1.18219E+5  -1.28164E+4
   1.17299E+5  -1.16271E+4
   1.16188E+5  -1.00934E+4
   1.14918E+5  -8.71370E+3
   1.13649E+5  -7.38053E+3
   1.12911E+5  -6.10291E+3
   1.11896E+5  -4.46668E+3
   1.10851E+5  -3.10770E+3
   1.09377E+5  -1.62687E+3
   1.08005E+5  -4.26650E+2
   1.06809E+5   4.88692E+2
   1.05857E+5   1.63048E+3
   1.04645E+5   2.93149E+3
   1.03270E+5   4.33595E+3
   1.01971E+5   5.35775E+3
   1.00956E+5   6.54315E+3
   9.96328E+4   7.65496E+3
   9.83719E+4   8.79616E+3
   9.69849E+4   9.72885E+3
   9.56918E+4   1.03743E+4
   9.48626E+4   1.13785E+4
   9.36686E+4   1.26703E+4
   9.23093E+4   1.35172E+4
   9.07790E+4   1.46637E+4
   8.96709E+4   1.50899E+4
   8.86021E+4   1.60377E+4
   8.70803E+4   1.70340E+4
   8.59165E+4   1.80882E+4
   8.48755E+4   1.86174E+4
   8.36404E+4   1.91537E+4
   8.24998E+4   1.99436E+4
   8.12520E+4   2.09645E+4
   7.97480E+4   2.14816E+4
   7.84790E+4   2.18346E+4
   7.74189E+4   2.25655E+4
   7.63459E+4   2.33031E+4
   7.51019E+4   2.42134E+4
   7.38071E+4   2.46308E+4
