 
 $NMID
 ID=''
 FMTDAT='(2E13.5)'
 TRAMP=   1.00000E+0
 VOLUME=   1.00000E+0
 $END
  -8.15957E+2   1.40883E+4
   7.75634E+3  -3.60040E+3
  -7.32488E+3  -8.58810E+3
  -2.18190E+2   7.09368E+3
   7.02775E+3   1.73189E+3
  -5.50289E+3  -5.38399E+3
  -2.20507E+3   2.16048E+3
   7.12278E+3  -1.70579E+3
  -3.63855E+2  -4.18148E+3
  -1.39587E+3   5.56563E+3
   3.46170E+3   3.47263E+3
  -3.00108E+3  -3.43524E+3
  -1.41599E+3   9.50492E+2
   3.75723E+3   2.91109E+3
  -3.39361E+3  -1.43113E+3
  -3.83799E+3  -1.71690E+3
   3.86269E+3  -1.53520E+3
   1.27284E+3  -5.12944E+1
  -2.17454E+3   1.65217E+3
   1.03026E+3  -9.81681E+2
  -5.96374E+2  -1.34892E+3
  -1.53984E+3   8.41225E+2
   2.00161E+3  -6.67845E+2
   4.09309E+2  -1.23314E+2
  -2.28238E+3   1.12550E+3
   5.79440E+1  -1.79771E+3
   2.20873E+3  -9.91594E+2
   6.25027E+2   3.09193E+3
  -1.16658E+3   1.02111E+3
  -2.69783E+2  -1.37302E+3
   1.47131E+3   8.28862E+2
   1.43574E+2   1.31166E+3
  -1.27466E+3   3.32681E+2
  -6.54387E+2   6.97154E+2
  -1.08890E+3  -4.94068E+2
  -7.17867E+2  -2.50948E+3
   1.90474E+3  -1.22839E+3
   1.84330E+3   1.20565E+3
  -3.55511E+2   9.70907E+2
  -6.58607E-1   1.38245E+2
   7.85834E+2   9.71983E+2
  -7.27280E+2   7.54002E+2
  -1.29261E+3  -1.03604E+3
  -2.68210E+2  -1.96770E+3
   8.79446E+2  -8.52165E+2
   1.47231E+3   3.35625E+0
   1.31776E+3   8.30256E+2
  -1.16677E+2   1.76419E+3
  -1.42709E+3   7.63956E+2
  -1.33839E+3  -9.35740E+1
  -7.17174E+2  -6.91308E+2
  -2.24236E+2  -5.47821E+2
   1.43176E+2  -6.83168E+2
   4.72958E+2  -2.22464E+2
   4.11782E+2  -2.99940E+2
   4.32521E+2   1.59813E+2
   3.18672E+1   1.24032E+3
  -7.41010E+2   5.83811E+2
  -1.22676E+3  -1.37793E+3
   2.42895E+2  -1.34077E+3
   7.20300E+2  -1.89435E+2
   6.03125E+2   1.29929E+2
   1.19880E+3   1.10073E+1
   9.24864E+2   9.75287E+2
  -4.10323E+2   1.55533E+3
  -1.54840E+3   1.14321E+3
  -1.12298E+3  -5.45628E+2
  -9.61650E+2  -8.09639E+2
  -7.13603E+1  -9.32769E+2
   5.18244E+2  -2.37524E+2
   4.05084E+2   3.43578E+2
  -5.55624E+2  -3.92065E+1
  -3.52341E+2  -4.61945E+2
   7.68536E+2  -4.49943E+2
   4.45866E+2   2.41970E+2
  -4.34257E+2   3.39964E+2
  -3.27871E+2  -2.46893E+2
   5.07320E+2  -2.18021E+2
   7.27948E+2   1.76531E+2
   1.37553E+2   8.09016E+2
  -6.01121E+2   6.98286E+2
  -2.95524E+2  -9.49480E+0
  -1.48258E+2  -1.63179E+2
  -3.24986E+1   2.00601E+2
  -2.36827E+2   1.20111E+2
  -7.16913E+2  -3.68549E+2
  -2.88227E+1  -7.77092E+2
   4.82986E+2  -1.89686E+2
   2.58989E+2   1.24872E+2
   4.18391E+1   3.08938E+1
   1.41477E+2  -4.17778E+2
   3.08425E+2  -2.23505E+2
   5.20066E+2   2.97453E+2
   3.16239E+2   1.08824E+3
  -6.05523E+2   8.48933E+2
  -8.91898E+2  -1.05745E+2
  -2.94656E+2  -5.46267E+2
   2.47543E+2  -1.18695E+2
  -1.00305E+2   1.36700E+2
  -5.02614E+2  -2.06839E+2
  -5.63378E+0  -6.89621E+2
   5.95241E+2   9.69242E+1
   2.16787E+2   4.38872E+2
  -5.90961E+2   4.67891E+2
  -4.78123E+2  -3.42909E+2
   3.05112E+2  -5.01897E+2
   6.27049E+2  -9.77679E+1
   2.62755E+2   7.32927E+2
  -4.65851E+2   5.82430E+2
  -7.54344E+2  -2.21950E+1
  -3.97643E+2  -9.70824E+2
   4.33332E+2  -4.65789E+2
   5.20131E+2  -1.57864E+2
   6.87399E+1   4.38823E+1
   3.10633E+2   7.59840E+0
   3.55726E+2   1.15753E+2
   4.20695E+2   5.24739E+2
  -2.22484E+2   6.54319E+2
  -8.58343E+2   3.77168E+2
  -6.91147E+2  -2.78490E+2
   2.15322E-1  -6.24860E+2
   3.50724E+2  -2.86125E+2
   1.48310E+2  -1.66528E+2
   6.22321E+1  -1.65384E+2
   3.65195E+2   3.55058E+2
   2.47930E+2   2.76260E+2
  -3.28613E+2   2.05344E+2
  -3.03366E+2   9.63938E+1
  -1.16202E+2  -2.95943E+2
   2.37531E+2  -5.28343E+2
   4.22518E+2   9.25490E+0
   1.22906E+2   7.40100E+2
  -2.84014E+2   2.61549E+2
  -3.46979E+2  -2.76995E+2
   1.23139E+2  -6.87129E+1
   8.76388E+1   1.70692E+2
  -2.65923E+2  -1.03533E+2
  -6.10651E+1  -4.34663E+2
   2.39720E+2  -8.43529E+1
   3.85518E+2   2.06049E+2
   1.95833E+2   4.34070E+2
  -2.29076E+2   3.23160E+2
  -5.08471E+2  -3.96094E+2
   1.71546E+2  -5.44582E+2
   4.76304E+2  -1.20699E+2
   2.96766E+2   3.90999E+2
   2.93001E+2   2.64336E+2
   1.08820E+2  -6.45127E+1
  -3.18031E+1   1.95321E+2
  -5.64536E+1   1.92280E+2
  -1.20227E+2   2.54659E+2
  -3.55109E+2  -9.54431E+1
  -2.66462E+1  -4.32270E+2
  -2.91180E+1  -1.61021E+2
   6.61834E+1  -1.08730E+2
  -9.07084E+1   1.92318E+2
   1.09087E+2   1.65172E+2
   1.51359E+2  -4.36465E+1
   2.15892E+2   8.97895E+1
   2.71046E+2   3.02181E+2
   1.00588E+2   3.72477E+2
   2.61742E+1  -3.92449E+1
   1.95687E+0   2.99006E+2
  -4.57168E+1   2.87051E+2
  -2.17337E+2  -2.37081E+1
  -2.67171E+2  -1.16367E+2
  -1.23878E+1  -2.52155E+2
   4.24181E+2   2.66225E+1
   1.86539E+2   1.68496E+2
   3.75615E+1   3.93486E+0
  -1.99572E+2  -6.50198E+1
   1.19294E+2  -2.82733E+2
  -3.38696E+0  -1.37617E+2
   1.57474E+2  -2.09009E+2
  -8.90704E+1   7.46289E+0
   1.61230E+2  -1.70220E+2
   2.07955E+2   8.98021E+1
   3.02262E+2   1.58820E+2
  -6.65199E+1  -1.04990E+1
  -4.81220E+1  -1.32282E+2
   1.86205E+2  -2.28618E+2
   3.92894E+2  -1.62416E+2
   3.97248E+2  -5.81361E+0
   8.83388E+1   3.86695E+2
   3.02943E+1   1.63828E+2
  -7.24786E+1   1.69746E+2
   1.10125E+2  -1.24139E+2
  -1.09442E+1  -1.10696E+2
  -2.38337E+2  -3.16460E+2
   2.24401E+2  -4.62602E+2
   3.35190E+2  -3.05996E+2
   3.01191E+2   1.80817E+2
   1.24976E+2   2.28380E+2
  -8.74378E+1   4.42533E+1
  -2.28540E+2   3.34492E+1
  -7.79845E+0  -1.02960E+2
   6.21891E+1  -1.15670E+2
  -1.83272E+2  -1.65112E+2
   1.13452E+2  -4.65010E+1
   6.60836E+1   7.23838E+1
   2.36273E+2   2.78277E+2
   5.75776E+1  -7.06554E+0
  -6.36789E+1  -1.04986E+1
   1.87242E+2  -8.11275E+1
  -4.18904E+1  -7.21072E+1
  -3.41042E-1   4.36347E+1
   1.20243E+1  -1.07469E+2
   1.20961E+1   2.95182E+1
  -1.32125E+2   1.12717E+2
   8.38631E+1  -5.90371E+1
   1.10519E+2  -3.98980E+1
  -3.29292E-1   1.36845E+2
  -8.52368E+1  -3.15167E+2
  -1.26755E+2  -9.71391E+1
   2.21286E+2   1.19736E+2
   7.97414E+1   1.51646E+2
  -1.72035E+2  -4.66438E+1
  -1.47996E+1  -8.17045E+1
   6.72014E+1  -5.32307E+1
   1.29687E+2  -1.84191E+1
  -2.93794E+1   1.84207E+2
  -6.62479E+1   2.19682E+1
  -1.71718E+1  -2.10547E+1
   8.38011E+1   5.69200E+1
  -1.07911E+2   8.90155E+1
  -2.31523E+2  -6.71360E+1
  -1.34963E+2   2.20975E+1
   2.47147E+1  -1.12425E+2
   2.48059E+2   4.01860E+1
   2.55343E+2   4.64303E+1
   5.68290E+0   1.73687E+2
  -2.22180E+2  -6.32910E+1
   3.93968E+0  -1.84953E+2
  -6.64529E+1  -6.28683E+1
  -3.25840E+1   2.22570E+2
   9.00513E+1   2.87237E+2
   1.81857E+2  -8.16019E+1
   1.45238E+2   2.00260E+2
  -1.81550E+2   4.77569E+1
  -3.14651E+2   2.34669E+2
  -3.04391E+2  -2.72003E+2
   3.72616E+2  -2.60935E+2
   1.15356E+2   1.55865E+2
  -5.37881E+0   1.63934E+2
   1.65052E+2  -8.64609E+1
  -1.55868E+2   1.90637E+1
   1.69691E+1  -1.19605E+2
   2.98017E+1   1.14779E+2
   8.70274E+1   1.36756E+1
   7.68466E+1  -1.45400E+2
  -3.02829E+1  -7.56869E+1
   3.25788E+2   7.28416E+1
  -1.18562E+2  -9.14550E+0
  -2.09156E+1   2.53352E+2
  -1.78601E+2  -1.59794E+2
   9.65129E+1  -3.43279E+2
   7.09416E+1  -1.60115E+2
   1.89541E+2   1.63787E+2
  -8.88300E+1   3.36118E+1
  -2.01013E+2  -1.91737E+2
   3.55517E+1  -4.42314E+1
  -6.33795E+1   1.72005E+2
   3.27641E+1  -7.48286E+1
  -2.71969E+2  -2.79078E+2
  -3.53355E+1  -3.20594E+1
   1.07035E+2  -9.84449E+1
   7.65989E+1  -9.94516E+1
  -7.21886E+1   1.01237E+2
  -6.50577E+1  -1.74719E+1
  -8.97672E+1   1.95967E+2
  -5.48669E+1  -1.04762E+2
  -1.35501E+1   8.81953E+1
   6.65114E+0  -4.96383E+1
  -3.83064E+1  -1.04395E+2
  -6.46743E+1  -3.22633E+0
   6.49350E+1   6.47304E+1
  -2.15713E+2   1.58100E+1
  -3.22821E+2  -3.81954E+1
   1.21553E+2  -1.72001E+2
   1.76349E+2  -2.48548E+1
  -1.34288E+2   9.26139E+1
  -1.37367E+2   1.48501E+2
   4.45876E+1  -1.08602E+2
   2.51438E+2  -1.87327E+2
   4.48399E+1  -1.51499E+1
  -1.38861E+2  -1.70228E+1
  -7.43724E+1  -1.11462E+2
  -2.13257E+2  -1.25997E+2
  -1.37886E+2  -2.08141E+2
   1.29161E+2   2.32937E+1
  -1.95312E+2   9.26491E+1
  -3.67635E+1   1.15009E+2
  -6.03519E+1   1.53784E+2
  -1.20883E+1   3.35849E+1
  -2.11854E+2  -1.14386E+2
   2.60043E+1  -8.75909E+1
  -3.02409E+2   1.92312E+2
  -5.84459E+1   8.65680E+1
  -1.16974E+2  -6.76796E+1
   5.34702E+1   7.60494E+1
  -1.60147E+2   8.83768E+1
  -1.99733E+2  -1.50692E+2
  -9.79749E+1  -2.04158E+1
   1.30397E+2  -1.51435E+2
  -2.46610E+2   9.94194E+1
  -5.17606E+1   2.98838E+2
  -6.18046E+1   1.31791E+2
  -6.66859E+1  -1.01331E+2
   1.30342E+2   2.17501E+2
   4.06828E+1   2.21618E+1
   8.46688E+1  -4.67195E+0
  -6.32959E+1  -5.15673E+1
  -1.57515E+2  -1.61445E+2
  -9.05957E+1   3.06126E+2
  -1.14645E+2   1.48127E+2
   3.69331E+1   2.28147E+2
   8.45178E+1   1.26917E+2
  -9.42489E+1   8.67150E+1
  -6.19299E+1  -6.24199E+0
  -8.20721E+1  -5.69898E+1
  -1.33004E+2  -1.38491E+2
  -1.24459E+2  -8.42625E+1
   2.04849E+1   1.27213E+2
   4.58930E+1   1.57629E+2
  -3.83432E+1   5.18050E+1
   1.58531E+1   1.12979E+2
   1.77765E+2   1.82065E+2
   4.09764E+1  -1.17341E+2
  -1.50463E+2   1.48493E+2
   9.67812E+1   2.88868E+1
  -8.14793E+1   1.35906E+2
   1.77680E+1   2.40056E+1
  -6.84567E+0  -5.13217E+1
  -3.15301E+1   1.79951E+2
  -1.33875E+2   2.94427E+1
   5.22239E+1  -1.35840E+2
   6.32626E+1   9.92592E+1
  -2.89283E+1   2.01265E+2
  -9.05946E+1  -2.74392E+0
  -2.08875E+1  -1.18473E+2
   1.59439E+2  -2.93466E+2
   5.36175E+1   5.49105E+1
  -1.89040E+2   1.55579E+2
  -1.06257E+2   9.75008E+1
  -2.03841E+1   1.83864E+2
   8.77693E+1  -1.52741E+2
  -2.05368E+2  -1.25426E+2
  -1.53739E+2   2.62131E+1
   8.52225E+1   1.45612E+2
   2.35588E+2  -8.60719E+1
   7.59114E+1  -5.09969E+1
   9.75723E+1   1.13216E+1
   2.82121E+1  -1.86899E+2
  -1.45539E+2   4.61116E+1
  -4.99224E+2   2.86107E+2
   3.20368E+1  -1.05599E+2
  -1.50948E+2   1.50116E+2
  -3.49844E+1  -1.11984E+2
   1.12577E+2   3.14951E+1
   1.58821E+2  -2.31208E+1
  -1.09450E+2   9.55437E+1
  -1.52863E+2  -1.22637E+2
  -2.13672E+2  -2.21296E+2
   2.37864E+2  -1.26783E+2
  -4.43301E+1  -5.22079E+1
   2.13852E+2   8.55757E+1
  -6.46535E+1   2.23377E+1
