 
 $NMID
 ID=''
 FMTDAT='(2E13.5)'
 TRAMP=   1.00000E+0
 VOLUME=   1.00000E+0
 $END
   4.40113E+5   6.12146E+5
   4.65158E+5   1.95919E+6
   6.62688E+5   1.85879E+6
   5.75835E+5   1.76866E+6
   6.22447E+5   1.83221E+6
   7.45443E+5   1.75679E+6
   7.48026E+5   1.69569E+6
   7.72119E+5   1.72532E+6
   8.15525E+5   1.68000E+6
   7.90169E+5   1.64620E+6
   8.01437E+5   1.65478E+6
   8.28151E+5   1.61332E+6
   8.14873E+5   1.58804E+6
   8.18793E+5   1.59476E+6
   8.21184E+5   1.56132E+6
   8.06028E+5   1.53714E+6
   8.22812E+5   1.53486E+6
   8.43032E+5   1.50137E+6
   8.46906E+5   1.47004E+6
   8.77056E+5   1.44887E+6
   8.95238E+5   1.41339E+6
   8.95128E+5   1.38764E+6
   9.10952E+5   1.37009E+6
   9.22275E+5   1.33886E+6
   9.17231E+5   1.31624E+6
   9.27218E+5   1.29435E+6
   9.27991E+5   1.27314E+6
   9.14843E+5   1.26093E+6
   9.10914E+5   1.24425E+6
   9.14114E+5   1.21606E+6
   9.13719E+5   1.19818E+6
   9.19686E+5   1.17585E+6
   9.24207E+5   1.14491E+6
   9.29400E+5   1.12020E+6
   9.38545E+5   1.09269E+6
   9.48248E+5   1.05822E+6
   9.57075E+5   1.03046E+6
   9.64461E+5   1.00676E+6
   9.62363E+5   9.79962E+5
   9.60608E+5   9.56926E+5
   9.59446E+5   9.35232E+5
   9.53939E+5   9.14027E+5
   9.48060E+5   8.93307E+5
   9.45049E+5   8.73051E+5
   9.38859E+5   8.54127E+5
   9.33166E+5   8.38294E+5
   9.28480E+5   8.18959E+5
   9.22668E+5   7.97488E+5
   9.18497E+5   7.74784E+5
   9.16542E+5   7.53142E+5
   9.13193E+5   7.30392E+5
   9.09980E+5   7.08841E+5
   9.07005E+5   6.88052E+5
   9.02411E+5   6.68615E+5
   8.95703E+5   6.48975E+5
   8.89551E+5   6.30152E+5
   8.81286E+5   6.14463E+5
   8.71636E+5   5.98398E+5
   8.62844E+5   5.80430E+5
   8.56391E+5   5.63614E+5
   8.48336E+5   5.49309E+5
   8.39687E+5   5.34008E+5
   8.30978E+5   5.18259E+5
   8.22759E+5   5.02356E+5
   8.14122E+5   4.86846E+5
   8.04840E+5   4.70747E+5
   7.95655E+5   4.54628E+5
   7.86891E+5   4.39007E+5
   7.78118E+5   4.25485E+5
   7.68470E+5   4.13183E+5
   7.58105E+5   4.00621E+5
   7.47840E+5   3.87791E+5
   7.37709E+5   3.75435E+5
   7.27689E+5   3.64327E+5
   7.16779E+5   3.53477E+5
   7.05711E+5   3.41485E+5
   6.95438E+5   3.30339E+5
   6.85125E+5   3.19553E+5
   6.75022E+5   3.08616E+5
   6.64363E+5   2.98483E+5
   6.53388E+5   2.88464E+5
   6.42515E+5   2.78618E+5
   6.31575E+5   2.69757E+5
   6.20606E+5   2.61995E+5
   6.09157E+5   2.54342E+5
   5.97704E+5   2.46942E+5
   5.86511E+5   2.39746E+5
   5.75905E+5   2.33003E+5
   5.65081E+5   2.26668E+5
   5.53657E+5   2.20202E+5
   5.42882E+5   2.12847E+5
   5.32696E+5   2.05712E+5
   5.22222E+5   1.99430E+5
   5.11464E+5   1.92574E+5
   5.00811E+5   1.85887E+5
   4.90950E+5   1.78430E+5
   4.80648E+5   1.72609E+5
   4.70742E+5   1.66684E+5
   4.60643E+5   1.61326E+5
   4.50363E+5   1.56047E+5
   4.40174E+5   1.51202E+5
   4.30003E+5   1.46916E+5
   4.19723E+5   1.42411E+5
   4.09677E+5   1.38700E+5
   3.99589E+5   1.34075E+5
   3.90327E+5   1.30058E+5
   3.81254E+5   1.26255E+5
   3.71382E+5   1.22775E+5
   3.61547E+5   1.19225E+5
   3.52209E+5   1.15069E+5
   3.43664E+5   1.11456E+5
   3.35020E+5   1.08270E+5
   3.25844E+5   1.05614E+5
   3.16886E+5   1.02827E+5
   3.08295E+5   1.00357E+5
   2.99451E+5   9.82610E+4
   2.90504E+5   9.60134E+4
   2.82311E+5   9.37443E+4
   2.73656E+5   9.11827E+4
   2.65434E+5   8.91757E+4
   2.57525E+5   8.70924E+4
   2.49989E+5   8.52258E+4
   2.41995E+5   8.31119E+4
   2.34364E+5   8.17669E+4
   2.26671E+5   7.99519E+4
   2.18913E+5   7.83375E+4
   2.11765E+5   7.72146E+4
   2.04201E+5   7.62467E+4
   1.97275E+5   7.52122E+4
   1.90287E+5   7.37228E+4
   1.83166E+5   7.33496E+4
   1.76268E+5   7.27965E+4
   1.69355E+5   7.15540E+4
   1.63000E+5   7.05919E+4
   1.56279E+5   6.99591E+4
   1.49702E+5   6.92231E+4
   1.43562E+5   6.82656E+4
   1.37599E+5   6.74604E+4
   1.31731E+5   6.67878E+4
   1.25716E+5   6.58924E+4
   1.19860E+5   6.48781E+4
   1.14506E+5   6.42547E+4
   1.08944E+5   6.35283E+4
   1.03595E+5   6.27524E+4
   9.82032E+4   6.20443E+4
   9.28689E+4   6.13682E+4
   8.81381E+4   6.04957E+4
   8.26503E+4   5.99642E+4
   7.78812E+4   5.90902E+4
   7.29894E+4   5.85710E+4
   6.87349E+4   5.76589E+4
   6.40498E+4   5.65998E+4
   5.98003E+4   5.60331E+4
   5.53271E+4   5.55006E+4
   5.13051E+4   5.47351E+4
   4.70635E+4   5.36376E+4
   4.33912E+4   5.28577E+4
   3.95950E+4   5.17570E+4
   3.58028E+4   5.10561E+4
   3.22091E+4   5.01521E+4
   2.88917E+4   4.94863E+4
   2.51408E+4   4.85541E+4
   2.20483E+4   4.75199E+4
   1.88370E+4   4.67616E+4
   1.57933E+4   4.55636E+4
   1.26946E+4   4.49816E+4
   9.75628E+3   4.41869E+4
   6.77897E+3   4.33686E+4
   3.78957E+3   4.24095E+4
   1.33895E+3   4.13113E+4
  -1.30326E+3   4.04607E+4
  -3.85807E+3   3.96328E+4
  -6.36866E+3   3.87513E+4
  -8.62032E+3   3.79470E+4
  -1.09688E+4   3.67555E+4
  -1.31276E+4   3.62250E+4
  -1.54119E+4   3.52744E+4
  -1.77320E+4   3.44620E+4
  -1.93990E+4   3.35449E+4
  -2.12806E+4   3.28910E+4
  -2.32295E+4   3.14724E+4
  -2.53221E+4   3.08958E+4
  -2.67648E+4   2.99403E+4
  -2.84731E+4   2.91518E+4
  -3.01639E+4   2.80165E+4
  -3.16056E+4   2.72497E+4
  -3.28434E+4   2.63817E+4
  -3.42392E+4   2.53934E+4
  -3.56186E+4   2.43719E+4
  -3.67574E+4   2.39300E+4
  -3.82172E+4   2.31616E+4
  -3.92923E+4   2.19765E+4
  -4.05714E+4   2.07924E+4
  -4.14720E+4   1.99399E+4
  -4.24616E+4   1.87993E+4
  -4.34343E+4   1.79656E+4
  -4.44494E+4   1.70450E+4
  -4.54117E+4   1.60568E+4
  -4.61592E+4   1.50566E+4
  -4.71671E+4   1.43556E+4
  -4.77544E+4   1.30160E+4
  -4.83253E+4   1.19428E+4
  -4.86227E+4   1.10831E+4
  -4.94096E+4   1.04654E+4
  -4.97477E+4   9.44904E+3
  -5.04783E+4   8.37796E+3
  -5.05568E+4   7.30606E+3
  -5.09017E+4   6.41496E+3
  -5.15793E+4   5.66787E+3
  -5.19857E+4   4.59932E+3
  -5.20095E+4   3.73969E+3
  -5.20787E+4   2.54606E+3
  -5.22420E+4   1.99917E+3
  -5.26482E+4   9.95679E+2
  -5.28224E+4  -3.02245E+2
  -5.26162E+4  -1.06816E+3
  -5.25871E+4  -1.88817E+3
  -5.26512E+4  -2.96967E+3
  -5.24897E+4  -3.72277E+3
  -5.26109E+4  -4.38846E+3
  -5.23735E+4  -5.41809E+3
  -5.24359E+4  -6.04435E+3
  -5.21943E+4  -6.85402E+3
  -5.22117E+4  -7.71003E+3
  -5.19748E+4  -8.71331E+3
  -5.16129E+4  -9.39206E+3
  -5.15307E+4  -9.64619E+3
  -5.10109E+4  -1.04189E+4
  -5.07057E+4  -1.15131E+4
  -5.06982E+4  -1.21976E+4
  -5.00665E+4  -1.28354E+4
  -4.98181E+4  -1.34641E+4
  -4.94774E+4  -1.42498E+4
  -4.89186E+4  -1.48662E+4
  -4.87805E+4  -1.53944E+4
  -4.84471E+4  -1.60217E+4
  -4.79083E+4  -1.67323E+4
  -4.76348E+4  -1.71744E+4
  -4.73623E+4  -1.81640E+4
  -4.65846E+4  -1.88520E+4
  -4.64370E+4  -1.88691E+4
  -4.59360E+4  -1.95425E+4
  -4.55902E+4  -1.99247E+4
  -4.51375E+4  -2.05715E+4
  -4.44362E+4  -2.11231E+4
  -4.40763E+4  -2.15806E+4
  -4.39013E+4  -2.19315E+4
  -4.31356E+4  -2.27024E+4
  -4.25631E+4  -2.29244E+4
  -4.21411E+4  -2.32396E+4
  -4.18230E+4  -2.38089E+4
  -4.13469E+4  -2.45485E+4
  -4.07779E+4  -2.51744E+4
  -4.02828E+4  -2.53873E+4
  -3.95933E+4  -2.58583E+4
  -3.90840E+4  -2.62890E+4
  -3.89933E+4  -2.67877E+4
  -3.82567E+4  -2.71056E+4
  -3.78517E+4  -2.73522E+4
  -3.72479E+4  -2.82185E+4
  -3.68976E+4  -2.85642E+4
  -3.59491E+4  -2.90124E+4
  -3.54454E+4  -2.93135E+4
  -3.52156E+4  -2.99365E+4
  -3.46383E+4  -3.00074E+4
  -3.41012E+4  -3.04374E+4
  -3.35447E+4  -3.05927E+4
  -3.29965E+4  -3.14009E+4
  -3.23059E+4  -3.16539E+4
  -3.16457E+4  -3.18248E+4
  -3.13226E+4  -3.23582E+4
  -3.06491E+4  -3.25281E+4
  -3.02079E+4  -3.27618E+4
  -2.95382E+4  -3.30515E+4
  -2.90537E+4  -3.33881E+4
  -2.83371E+4  -3.38098E+4
  -2.75426E+4  -3.42526E+4
  -2.69846E+4  -3.45942E+4
  -2.64873E+4  -3.47215E+4
  -2.60122E+4  -3.48758E+4
  -2.54778E+4  -3.53888E+4
  -2.46184E+4  -3.58036E+4
  -2.41084E+4  -3.60939E+4
  -2.35862E+4  -3.59220E+4
  -2.29170E+4  -3.64879E+4
  -2.22773E+4  -3.65285E+4
  -2.16674E+4  -3.67673E+4
  -2.11408E+4  -3.65944E+4
  -2.06955E+4  -3.69009E+4
  -2.01923E+4  -3.73586E+4
  -1.96741E+4  -3.73563E+4
  -1.89202E+4  -3.73619E+4
  -1.80750E+4  -3.76942E+4
  -1.78305E+4  -3.77041E+4
  -1.72326E+4  -3.78829E+4
  -1.66777E+4  -3.77633E+4
  -1.58625E+4  -3.80274E+4
  -1.55702E+4  -3.81653E+4
  -1.47215E+4  -3.84564E+4
  -1.40917E+4  -3.85613E+4
  -1.33285E+4  -3.82056E+4
  -1.32124E+4  -3.84405E+4
  -1.23875E+4  -3.86810E+4
  -1.18509E+4  -3.86287E+4
  -1.11449E+4  -3.86613E+4
  -1.08384E+4  -3.85559E+4
  -1.01451E+4  -3.85424E+4
  -9.74470E+3  -3.85239E+4
  -8.87624E+3  -3.89241E+4
  -8.59185E+3  -3.86885E+4
  -7.73563E+3  -3.88172E+4
  -7.52321E+3  -3.88771E+4
  -6.94602E+3  -3.88916E+4
  -6.10727E+3  -3.87598E+4
  -5.57353E+3  -3.89265E+4
  -5.08430E+3  -3.86033E+4
  -4.73839E+3  -3.90137E+4
  -4.18510E+3  -3.87614E+4
  -3.55297E+3  -3.87938E+4
  -3.29526E+3  -3.86879E+4
  -2.61523E+3  -3.87204E+4
  -2.36944E+3  -3.88269E+4
  -1.41749E+3  -3.87358E+4
  -1.17843E+3  -3.88127E+4
  -6.27797E+2  -3.87203E+4
  -1.65170E+2  -3.86506E+4
   3.58947E+2  -3.85150E+4
   7.15013E+2  -3.86758E+4
   1.44953E+3  -3.84535E+4
   1.84248E+3  -3.84862E+4
   2.20659E+3  -3.83758E+4
   2.54178E+3  -3.79714E+4
   2.98560E+3  -3.82275E+4
   3.36958E+3  -3.80905E+4
   3.93338E+3  -3.81064E+4
   4.01059E+3  -3.81648E+4
   4.82572E+3  -3.79666E+4
   5.36133E+3  -3.76729E+4
   5.74772E+3  -3.74035E+4
   5.75454E+3  -3.75432E+4
   6.36274E+3  -3.73286E+4
   6.67628E+3  -3.72380E+4
   7.17462E+3  -3.70442E+4
   7.27783E+3  -3.69294E+4
   7.96537E+3  -3.66516E+4
   8.35843E+3  -3.63293E+4
   8.50029E+3  -3.61322E+4
   8.75173E+3  -3.58469E+4
   9.01907E+3  -3.58185E+4
   9.09347E+3  -3.57051E+4
   1.00476E+4  -3.55927E+4
   1.03989E+4  -3.51002E+4
   1.05153E+4  -3.45768E+4
   1.09153E+4  -3.46938E+4
   1.12065E+4  -3.43173E+4
   1.14951E+4  -3.41073E+4
   1.15560E+4  -3.37943E+4
   1.19368E+4  -3.36840E+4
   1.19860E+4  -3.34361E+4
   1.24755E+4  -3.32690E+4
   1.29572E+4  -3.28610E+4
   1.30409E+4  -3.24618E+4
   1.33009E+4  -3.21417E+4
   1.34362E+4  -3.18473E+4
   1.33888E+4  -3.18209E+4
   1.39577E+4  -3.13141E+4
   1.38926E+4  -3.10031E+4
