 
 $NMID
 ID=''
 FMTDAT='(2E13.5)'
 TRAMP=   1.00000E+0
 VOLUME=   1.00000E+0
 $END
   2.26057E+5   5.23975E+5
   6.81381E+4   1.53430E+6
   2.25780E+5   1.50570E+6
   1.19969E+5   1.44118E+6
   5.81589E+4   1.49588E+6
   4.04819E+4   1.44024E+6
  -5.93517E+4   1.39350E+6
  -1.14211E+5   1.44121E+6
  -1.11915E+5   1.42845E+6
  -1.60564E+5   1.40092E+6
  -1.93904E+5   1.39905E+6
  -2.16027E+5   1.35818E+6
  -2.73421E+5   1.33655E+6
  -3.01976E+5   1.34565E+6
  -3.13455E+5   1.31843E+6
  -3.46524E+5   1.29097E+6
  -3.78437E+5   1.28454E+6
  -4.16131E+5   1.25242E+6
  -4.66882E+5   1.22728E+6
  -4.95502E+5   1.21608E+6
  -5.24508E+5   1.18189E+6
  -5.65125E+5   1.15120E+6
  -5.92341E+5   1.13169E+6
  -6.22009E+5   1.10286E+6
  -6.55098E+5   1.07612E+6
  -6.65638E+5   1.05646E+6
  -6.81289E+5   1.02722E+6
  -7.07486E+5   1.00200E+6
  -7.25234E+5   9.77282E+5
  -7.40097E+5   9.51586E+5
  -7.62806E+5   9.28223E+5
  -7.79151E+5   8.99243E+5
  -7.99330E+5   8.61440E+5
  -8.21817E+5   8.29840E+5
  -8.39378E+5   8.01369E+5
  -8.58691E+5   7.70368E+5
  -8.78293E+5   7.39903E+5
  -8.91326E+5   7.04956E+5
  -9.03019E+5   6.69139E+5
  -9.17508E+5   6.40985E+5
  -9.26425E+5   6.12439E+5
  -9.32614E+5   5.83269E+5
  -9.37052E+5   5.57165E+5
  -9.42763E+5   5.29062E+5
  -9.48886E+5   4.98495E+5
  -9.55619E+5   4.72495E+5
  -9.61705E+5   4.43829E+5
  -9.66635E+5   4.10391E+5
  -9.67845E+5   3.76346E+5
  -9.69775E+5   3.44476E+5
  -9.74974E+5   3.12841E+5
  -9.78238E+5   2.80785E+5
  -9.78501E+5   2.49358E+5
  -9.78542E+5   2.19060E+5
  -9.77113E+5   1.88263E+5
  -9.75116E+5   1.57057E+5
  -9.71988E+5   1.27649E+5
  -9.67738E+5   1.01374E+5
  -9.62345E+5   7.55886E+4
  -9.57493E+5   4.91476E+4
  -9.51921E+5   2.13739E+4
  -9.45838E+5  -5.53220E+3
  -9.40357E+5  -3.25063E+4
  -9.32893E+5  -6.02878E+4
  -9.22829E+5  -8.66307E+4
  -9.12076E+5  -1.12250E+5
  -9.01705E+5  -1.37544E+5
  -8.91443E+5  -1.62733E+5
  -8.82009E+5  -1.86833E+5
  -8.71139E+5  -2.10603E+5
  -8.58362E+5  -2.33341E+5
  -8.44990E+5  -2.54460E+5
  -8.33083E+5  -2.75095E+5
  -8.21240E+5  -2.96326E+5
  -8.06779E+5  -3.16883E+5
  -7.91941E+5  -3.36146E+5
  -7.77229E+5  -3.54581E+5
  -7.62532E+5  -3.74057E+5
  -7.46051E+5  -3.93179E+5
  -7.29608E+5  -4.11076E+5
  -7.12912E+5  -4.28149E+5
  -6.95344E+5  -4.44175E+5
  -6.77993E+5  -4.59904E+5
  -6.60330E+5  -4.74975E+5
  -6.42606E+5  -4.89360E+5
  -6.24592E+5  -5.01274E+5
  -6.07148E+5  -5.12990E+5
  -5.88934E+5  -5.24063E+5
  -5.71100E+5  -5.34747E+5
  -5.53285E+5  -5.43803E+5
  -5.36052E+5  -5.52120E+5
  -5.18290E+5  -5.60659E+5
  -4.99137E+5  -5.68808E+5
  -4.79628E+5  -5.76381E+5
  -4.60324E+5  -5.82291E+5
  -4.42018E+5  -5.88589E+5
  -4.24009E+5  -5.93853E+5
  -4.04755E+5  -5.99268E+5
  -3.85355E+5  -6.02891E+5
  -3.66734E+5  -6.06556E+5
  -3.49199E+5  -6.09650E+5
  -3.30501E+5  -6.12547E+5
  -3.11813E+5  -6.13780E+5
  -2.93833E+5  -6.13053E+5
  -2.77095E+5  -6.13194E+5
  -2.60052E+5  -6.13503E+5
  -2.42935E+5  -6.13536E+5
  -2.25149E+5  -6.12456E+5
  -2.07763E+5  -6.09804E+5
  -1.91630E+5  -6.06891E+5
  -1.75806E+5  -6.04762E+5
  -1.58855E+5  -6.02767E+5
  -1.41736E+5  -6.00006E+5
  -1.25051E+5  -5.96291E+5
  -1.09510E+5  -5.92149E+5
  -9.32587E+4  -5.88227E+5
  -7.73960E+4  -5.83830E+5
  -6.18397E+4  -5.78421E+5
  -4.78298E+4  -5.72130E+5
  -3.43707E+4  -5.66480E+5
  -2.07427E+4  -5.61132E+5
  -6.92700E+3  -5.55205E+5
   6.27979E+3  -5.48931E+5
   1.94525E+4  -5.42491E+5
   3.26220E+4  -5.35510E+5
   4.50956E+4  -5.27762E+5
   5.69210E+4  -5.19801E+5
   6.84911E+4  -5.12163E+5
   8.01783E+4  -5.04459E+5
   9.14611E+4  -4.96424E+5
   1.03234E+5  -4.88109E+5
   1.14140E+5  -4.79303E+5
   1.23996E+5  -4.69960E+5
   1.33619E+5  -4.61197E+5
   1.43205E+5  -4.52265E+5
   1.52561E+5  -4.42780E+5
   1.60859E+5  -4.33006E+5
   1.69026E+5  -4.23888E+5
   1.77370E+5  -4.14684E+5
   1.85675E+5  -4.04398E+5
   1.92882E+5  -3.93794E+5
   1.98957E+5  -3.83767E+5
   2.04810E+5  -3.74218E+5
   2.11250E+5  -3.64382E+5
   2.17119E+5  -3.54209E+5
   2.22224E+5  -3.43440E+5
   2.27005E+5  -3.32843E+5
   2.31181E+5  -3.22668E+5
   2.35143E+5  -3.12298E+5
   2.38319E+5  -3.02103E+5
   2.41385E+5  -2.91840E+5
   2.44435E+5  -2.81797E+5
   2.46975E+5  -2.71987E+5
   2.49396E+5  -2.61974E+5
   2.51550E+5  -2.52150E+5
   2.53279E+5  -2.41813E+5
   2.54444E+5  -2.32257E+5
   2.55649E+5  -2.22999E+5
   2.56306E+5  -2.13096E+5
   2.56735E+5  -2.03656E+5
   2.57408E+5  -1.94185E+5
   2.57294E+5  -1.85102E+5
   2.57315E+5  -1.75617E+5
   2.56675E+5  -1.65974E+5
   2.55530E+5  -1.57162E+5
   2.54433E+5  -1.49178E+5
   2.53807E+5  -1.40303E+5
   2.52889E+5  -1.31995E+5
   2.51516E+5  -1.23546E+5
   2.49564E+5  -1.15453E+5
   2.47707E+5  -1.07661E+5
   2.46190E+5  -9.97226E+4
   2.44109E+5  -9.18341E+4
   2.41656E+5  -8.42968E+4
   2.39111E+5  -7.71978E+4
   2.36783E+5  -7.01949E+4
   2.34628E+5  -6.26682E+4
   2.32051E+5  -5.57046E+4
   2.28586E+5  -4.86355E+4
   2.25870E+5  -4.24039E+4
   2.23187E+5  -3.60075E+4
   2.20390E+5  -2.95684E+4
   2.17012E+5  -2.32277E+4
   2.13731E+5  -1.73979E+4
   2.10482E+5  -1.17423E+4
   2.06957E+5  -6.22073E+3
   2.03276E+5  -9.10558E+2
   1.99935E+5   3.93033E+3
   1.96266E+5   8.75792E+3
   1.92998E+5   1.33061E+4
   1.89724E+5   1.82691E+4
   1.85774E+5   2.31931E+4
   1.81853E+5   2.75135E+4
   1.77863E+5   3.16554E+4
   1.73994E+5   3.58662E+4
   1.70487E+5   3.92775E+4
   1.66538E+5   4.32389E+4
   1.62409E+5   4.70274E+4
   1.58671E+5   5.03305E+4
   1.54569E+5   5.37596E+4
   1.50432E+5   5.70616E+4
   1.46211E+5   5.97588E+4
   1.41947E+5   6.23774E+4
   1.38119E+5   6.50588E+4
   1.33844E+5   6.76825E+4
   1.29857E+5   7.00677E+4
   1.25591E+5   7.21275E+4
   1.21774E+5   7.40535E+4
   1.17330E+5   7.60782E+4
   1.13341E+5   7.79812E+4
   1.08967E+5   7.95504E+4
   1.05014E+5   8.07688E+4
   1.01069E+5   8.22064E+4
   9.70130E+4   8.37061E+4
   9.32610E+4   8.48689E+4
   8.90164E+4   8.57037E+4
   8.51556E+4   8.62416E+4
   8.16038E+4   8.70196E+4
   7.73687E+4   8.74597E+4
   7.39819E+4   8.80025E+4
   7.04630E+4   8.82379E+4
   6.67341E+4   8.83089E+4
   6.33704E+4   8.86635E+4
   5.97844E+4   8.86906E+4
   5.62141E+4   8.87036E+4
   5.28669E+4   8.83201E+4
   4.98761E+4   8.80110E+4
   4.66444E+4   8.79357E+4
   4.37314E+4   8.72606E+4
   4.04848E+4   8.67404E+4
   3.75292E+4   8.64677E+4
   3.46556E+4   8.57740E+4
   3.19928E+4   8.51948E+4
   2.94939E+4   8.45786E+4
   2.67133E+4   8.36972E+4
   2.44274E+4   8.26741E+4
   2.19762E+4   8.21801E+4
   1.97084E+4   8.11600E+4
   1.72639E+4   8.04716E+4
   1.52310E+4   7.91844E+4
   1.33705E+4   7.80612E+4
   1.13756E+4   7.76499E+4
   9.14479E+3   7.63663E+4
   7.28540E+3   7.54259E+4
   5.37631E+3   7.40852E+4
   3.75373E+3   7.30147E+4
   2.26331E+3   7.22460E+4
   5.36782E+2   7.07430E+4
  -9.66097E+2   6.98313E+4
  -2.15534E+3   6.84083E+4
  -3.47007E+3   6.72883E+4
  -4.82844E+3   6.63145E+4
  -6.10464E+3   6.50444E+4
  -7.20175E+3   6.37053E+4
  -8.31231E+3   6.26399E+4
  -9.31720E+3   6.11715E+4
  -1.03360E+4   6.00613E+4
  -1.11969E+4   5.89882E+4
  -1.21663E+4   5.76229E+4
  -1.29079E+4   5.65684E+4
  -1.39634E+4   5.51766E+4
  -1.46748E+4   5.39456E+4
  -1.54199E+4   5.25984E+4
  -1.58839E+4   5.12060E+4
  -1.62367E+4   5.03454E+4
  -1.71726E+4   4.91416E+4
  -1.74266E+4   4.78060E+4
  -1.80436E+4   4.65953E+4
  -1.83293E+4   4.52425E+4
  -1.87844E+4   4.39570E+4
  -1.89774E+4   4.28100E+4
  -1.90357E+4   4.15789E+4
  -1.97477E+4   4.04289E+4
  -1.98268E+4   3.94459E+4
  -1.98744E+4   3.82598E+4
  -2.01439E+4   3.68564E+4
  -2.02010E+4   3.54711E+4
  -2.05450E+4   3.46178E+4
  -2.04842E+4   3.36093E+4
  -2.06567E+4   3.24217E+4
  -2.05316E+4   3.15391E+4
  -2.04204E+4   3.03799E+4
  -2.04956E+4   2.93283E+4
  -2.05846E+4   2.82133E+4
  -2.04074E+4   2.74261E+4
  -2.00154E+4   2.62163E+4
  -1.97561E+4   2.52565E+4
  -1.99078E+4   2.47085E+4
  -1.95826E+4   2.36735E+4
  -1.93277E+4   2.28606E+4
  -1.94452E+4   2.19764E+4
  -1.91530E+4   2.09488E+4
  -1.87705E+4   2.00649E+4
  -1.85378E+4   1.94146E+4
  -1.83374E+4   1.84132E+4
  -1.77954E+4   1.77927E+4
  -1.73992E+4   1.70696E+4
  -1.75009E+4   1.64994E+4
  -1.71062E+4   1.54818E+4
  -1.65977E+4   1.50353E+4
  -1.63206E+4   1.46027E+4
  -1.59043E+4   1.38819E+4
  -1.55532E+4   1.31762E+4
  -1.51477E+4   1.24275E+4
  -1.49288E+4   1.19997E+4
  -1.43724E+4   1.13890E+4
  -1.40587E+4   1.08522E+4
  -1.35545E+4   1.02492E+4
  -1.34306E+4   9.82651E+3
  -1.28999E+4   9.55370E+3
  -1.26044E+4   8.76420E+3
  -1.22172E+4   8.48132E+3
  -1.17815E+4   8.13243E+3
  -1.13626E+4   7.73696E+3
  -1.10483E+4   7.29957E+3
  -1.03602E+4   6.73867E+3
  -1.01684E+4   6.60405E+3
  -9.69333E+3   6.09584E+3
  -9.44962E+3   5.95757E+3
  -9.02365E+3   5.57529E+3
  -8.53522E+3   5.39462E+3
  -7.98410E+3   5.04484E+3
  -7.83483E+3   4.56886E+3
  -7.21884E+3   4.64180E+3
  -6.98671E+3   4.35224E+3
  -6.87330E+3   3.92890E+3
  -6.47232E+3   3.84255E+3
  -6.00557E+3   3.75185E+3
  -5.36709E+3   3.70203E+3
  -5.11332E+3   3.41348E+3
  -4.99736E+3   3.07252E+3
  -4.65339E+3   2.95649E+3
  -4.40525E+3   2.91800E+3
  -3.84977E+3   3.02222E+3
  -3.57523E+3   2.77412E+3
  -3.12596E+3   2.37326E+3
  -3.10179E+3   2.58179E+3
  -2.27063E+3   2.40789E+3
  -2.58288E+3   2.22575E+3
  -2.03559E+3   2.25592E+3
  -1.72737E+3   2.11975E+3
  -1.26733E+3   2.23957E+3
  -9.34266E+2   2.31099E+3
  -5.54602E+2   2.31817E+3
  -4.15107E+2   2.07904E+3
  -1.01296E+2   2.13942E+3
   3.11972E+1   2.19097E+3
   3.22131E+2   2.13151E+3
   6.83947E+2   2.09689E+3
   9.42624E+2   1.88590E+3
   1.05129E+3   2.07560E+3
   1.24379E+3   1.98736E+3
   1.51565E+3   2.26950E+3
   1.61815E+3   2.00130E+3
   2.03243E+3   2.21650E+3
   2.02448E+3   2.28226E+3
   2.30347E+3   2.27223E+3
   2.59625E+3   2.12915E+3
   2.57000E+3   2.23808E+3
   2.74140E+3   2.04401E+3
   3.09122E+3   2.51812E+3
   3.21160E+3   2.34300E+3
   3.07852E+3   2.40534E+3
   3.24376E+3   2.14905E+3
   3.56782E+3   2.59303E+3
   3.62418E+3   2.36400E+3
   3.80348E+3   2.54575E+3
