 LCModel (Version 6.3-1N) Copyright: S.W. Provencher.          Ref.: Magn. Reson. Med. 30:672-679 (1993).                
 Slice_N1@18_20  28-Feb-2025 11:38:13
 27 lines in following concentration table = NCONC+1
    Conc.  %SD /Cr+PCr  Metabolite                                         
 3.22E-04   3% 2.9E-04 Mac                                                 
    3.694  17%   3.360 Cr                                                  
    5.100  13%   4.640 PCr                                                 
    9.336   8%   8.493 Ins                                                 
   11.160   6%  10.153 NAA                                                 
    6.967   9%   6.339 Tau                                                 
    0.000 999%   0.000 PCho                                                
    1.509  13%   1.373 GPC                                                 
    9.806   8%   8.921 Glu                                                 
    4.455  15%   4.053 Gln                                                 
    1.108  46%   1.008 Ala                                                 
    5.023  18%   4.570 Asc                                                 
    3.954  21%   3.597 Asp                                                 
    0.670  67%   0.610 GABA                                                
    0.935  71%   0.851 Glc                                                 
    1.932  21%   1.757 GSH                                                 
    1.316  38%   1.197 Lac                                                 
    1.505  28%   1.369 NAAG                                                
    1.705  47%   1.551 PE                                                  
    1.509  13%   1.373 GPC+PCho                                            
   12.665   5%  11.522 NAA+NAAG                                            
   14.261   7%  12.974 Glu+Gln                                             
    8.793   6%   8.000 Cr+PCr                                              
   12.665   5%  11.522 NAA+NAAG                                            
    8.793   6%   8.000 Cr+PCr                                              
   14.261   7%  12.974 Glu+Gln                                             
   6 lines in following misc. output table
  FWHM = 0.016 ppm    S/N =   7                                            
  Data shift = 0.024 ppm                                                   
  Ph: -76 deg       0.0 deg/ppm                                            
  alphaB,S = 7.6E+00,   5.1E+00                                            
   19 spline knots.   Ns = 5(1)                                            
   3 inflections.     2 extrema                                            
  480 points on ppm-axis = NY
      4.100000     4.091866     4.083733     4.075600     4.067466     4.059333     4.051199     4.043066     4.034933     4.026799
      4.018666     4.010532     4.002399     3.994265     3.986132     3.977998     3.969864     3.961731     3.953597     3.945463
      3.937330     3.929196     3.921062     3.912929     3.904795     3.896662     3.888528     3.880394     3.872261     3.864127
      3.855993     3.847860     3.839726     3.831592     3.823459     3.815325     3.807191     3.799058     3.790924     3.782790
      3.774657     3.766523     3.758389     3.750256     3.742122     3.733989     3.725855     3.717721     3.709588     3.701454
      3.693320     3.685187     3.677053     3.668919     3.660786     3.652652     3.644518     3.636385     3.628251     3.620117
      3.611984     3.603850     3.595716     3.587583     3.579449     3.571316     3.563182     3.555048     3.546915     3.538781
      3.530647     3.522514     3.514380     3.506246     3.498113     3.489979     3.481845     3.473712     3.465578     3.457444
      3.449311     3.441177     3.433043     3.424910     3.416776     3.408643     3.400509     3.392375     3.384242     3.376108
      3.367974     3.359841     3.351707     3.343573     3.335440     3.327306     3.319172     3.311039     3.302905     3.294771
      3.286638     3.278504     3.270370     3.262237     3.254103     3.245970     3.237836     3.229702     3.221569     3.213435
      3.205301     3.197168     3.189034     3.180900     3.172767     3.164633     3.156499     3.148366     3.140232     3.132098
      3.123965     3.115831     3.107697     3.099564     3.091430     3.083297     3.075163     3.067029     3.058896     3.050762
      3.042628     3.034495     3.026361     3.018227     3.010094     3.001960     2.993826     2.985693     2.977559     2.969425
      2.961292     2.953158     2.945024     2.936891     2.928757     2.920624     2.912490     2.904356     2.896223     2.888089
      2.879955     2.871822     2.863688     2.855554     2.847421     2.839287     2.831153     2.823020     2.814886     2.806752
      2.798619     2.790485     2.782351     2.774218     2.766084     2.757951     2.749817     2.741683     2.733550     2.725416
      2.717282     2.709149     2.701015     2.692881     2.684748     2.676614     2.668480     2.660347     2.652213     2.644079
      2.635946     2.627812     2.619678     2.611545     2.603411     2.595278     2.587144     2.579010     2.570877     2.562743
      2.554609     2.546476     2.538342     2.530208     2.522075     2.513941     2.505807     2.497674     2.489540     2.481406
      2.473273     2.465139     2.457006     2.448872     2.440738     2.432605     2.424471     2.416337     2.408204     2.400070
      2.391936     2.383803     2.375669     2.367535     2.359402     2.351268     2.343134     2.335001     2.326867     2.318733
      2.310600     2.302466     2.294333     2.286199     2.278065     2.269932     2.261798     2.253664     2.245531     2.237397
      2.229263     2.221130     2.212996     2.204862     2.196729     2.188595     2.180461     2.172328     2.164194     2.156060
      2.147927     2.139793     2.131660     2.123526     2.115392     2.107259     2.099125     2.090991     2.082858     2.074724
      2.066590     2.058457     2.050323     2.042189     2.034056     2.025922     2.017788     2.009655     2.001521     1.993387
      1.985254     1.977120     1.968987     1.960853     1.952719     1.944586     1.936452     1.928318     1.920185     1.912051
      1.903917     1.895784     1.887650     1.879516     1.871383     1.863249     1.855115     1.846982     1.838848     1.830714
      1.822581     1.814447     1.806314     1.798180     1.790046     1.781913     1.773779     1.765645     1.757512     1.749378
      1.741244     1.733111     1.724977     1.716843     1.708710     1.700576     1.692442     1.684309     1.676175     1.668041
      1.659908     1.651774     1.643641     1.635507     1.627373     1.619240     1.611106     1.602972     1.594839     1.586705
      1.578571     1.570438     1.562304     1.554170     1.546037     1.537903     1.529769     1.521636     1.513502     1.505368
      1.497235     1.489101     1.480968     1.472834     1.464700     1.456567     1.448433     1.440299     1.432166     1.424032
      1.415898     1.407765     1.399631     1.391497     1.383364     1.375230     1.367096     1.358963     1.350829     1.342695
      1.334562     1.326428     1.318295     1.310161     1.302027     1.293894     1.285760     1.277626     1.269493     1.261359
      1.253225     1.245092     1.236958     1.228824     1.220691     1.212557     1.204423     1.196290     1.188156     1.180022
      1.171889     1.163755     1.155622     1.147488     1.139354     1.131221     1.123087     1.114953     1.106820     1.098686
      1.090552     1.082419     1.074285     1.066151     1.058018     1.049884     1.041750     1.033617     1.025483     1.017349
      1.009216     1.001082     0.992949     0.984815     0.976681     0.968548     0.960414     0.952280     0.944147     0.936013
      0.927879     0.919746     0.911612     0.903478     0.895345     0.887211     0.879077     0.870944     0.862810     0.854676
      0.846543     0.838409     0.830276     0.822142     0.814008     0.805875     0.797741     0.789607     0.781474     0.773340
      0.765206     0.757073     0.748939     0.740805     0.732672     0.724538     0.716404     0.708271     0.700137     0.692003
      0.683870     0.675736     0.667603     0.659469     0.651335     0.643202     0.635068     0.626934     0.618801     0.610667
      0.602533     0.594400     0.586266     0.578132     0.569999     0.561865     0.553731     0.545598     0.537464     0.529330
      0.521197     0.513063     0.504930     0.496796     0.488662     0.480529     0.472395     0.464261     0.456128     0.447994
      0.439861     0.431727     0.423593     0.415460     0.407326     0.399192     0.391059     0.382925     0.374792     0.366658
      0.358524     0.350391     0.342257     0.334124     0.325990     0.317856     0.309723     0.301589     0.293455     0.285322
      0.277188     0.269055     0.260921     0.252787     0.244654     0.236520     0.228386     0.220253     0.212119     0.203986
 NY phased data points follow
  -7.40341E+01 -6.26956E+01 -6.00621E+01 -7.05006E+01 -7.57662E+01 -7.66168E+01 -6.21977E+01 -5.05375E+01 -5.55256E+01 -8.79653E+01
  -8.50390E+01 -7.08717E+01 -8.62666E+01 -9.49904E+01 -9.31131E+01 -1.05033E+02 -1.09856E+02 -9.66215E+01 -1.20404E+02 -1.46026E+02
  -1.61692E+02 -1.23720E+02 -7.64897E+01 -9.17254E+01 -4.51960E+01 -1.94199E+00 -2.65723E+01 -3.88766E+01 -2.61110E+01 -2.01292E+01
  -2.02237E+01 -2.05042E+01 -3.38310E+01 -2.36703E+01 -2.89572E+01 -4.47358E+01 -3.05017E+01 -4.56063E+01 -6.81592E+01 -8.28808E+01
  -1.20669E+02 -1.17019E+02 -1.01324E+02 -9.79978E+01 -7.49804E+01 -5.67200E+01 -1.68472E+01 -1.08292E+01  5.87368E-01  2.30954E+01
   1.04307E+00  2.66846E+00 -4.25452E-01 -6.53634E+00 -2.73542E+01 -4.07334E+01 -4.06271E+01 -4.04082E+01 -5.03881E+01 -9.78928E+01
  -6.35117E+01 -3.97591E+01 -6.66136E+01 -2.56494E+01  5.26694E-01  6.14002E+00  1.11487E+01  8.52057E-01 -2.26553E+01 -1.00720E+02
  -1.15452E+02 -4.77440E+01 -6.42996E+01 -8.31090E+01 -2.03350E+01  1.14705E+01 -1.25528E+00  8.74827E+00  1.59967E+01  1.27826E+01
   1.98737E+01  1.68200E+01 -2.38894E+00 -3.13523E+01 -5.58356E+01 -7.37220E+01 -5.84328E+01 -3.00179E+01 -1.12405E+01  8.17446E+00
   1.55696E+01  1.22253E+01  1.65250E+01  2.79512E+01  2.53425E+01  4.38457E+01  5.13522E+01  5.57152E+01  6.67663E+01  3.94106E+01
   2.89529E+01  4.24228E+01  1.66871E+01 -2.47979E+01 -2.33274E+01 -5.20426E+01 -6.46688E+01 -5.54727E+01 -6.93324E+01 -8.17385E+01
  -1.67787E+02 -2.08729E+02 -1.64931E+02 -1.30344E+02 -1.09758E+02 -9.59047E+01 -7.78216E+01 -6.51952E+01 -6.11181E+01 -6.28694E+01
  -4.35768E+01 -3.68935E+01 -3.58488E+01 -2.21799E+01 -1.88856E+01 -5.71333E+00  6.63035E+00  1.72667E+01  4.02313E+01  6.62374E+01
   1.19813E+02  1.60313E+02  4.85070E+01 -1.19144E+02 -1.55843E+02 -1.29462E+02 -1.20027E+02 -1.09012E+02 -1.09027E+02 -9.96911E+01
  -9.59148E+01 -1.07256E+02 -1.05697E+02 -1.05746E+02 -9.06074E+01 -1.00972E+02 -1.01927E+02 -9.08590E+01 -9.43195E+01 -8.08206E+01
  -8.74592E+01 -8.11370E+01 -7.71317E+01 -6.76506E+01 -6.17185E+01 -7.23554E+01 -6.53897E+01 -6.78633E+01 -7.31955E+01 -7.04694E+01
  -5.88849E+01 -5.39706E+01 -4.71469E+01 -5.48878E+01 -5.46713E+01 -5.92265E+01 -7.12596E+01 -4.44894E+01 -5.30502E+01 -5.30854E+01
  -3.16167E+01 -3.93661E+01 -2.53766E+01 -1.08195E+01 -2.76075E+01 -3.95342E+01 -3.06236E+01 -7.80755E+00 -6.51333E+00 -3.39862E+01
  -5.88492E+01 -7.15181E+01 -7.29131E+01 -8.39799E+01 -8.62184E+01 -8.54083E+01 -8.19774E+01 -8.50079E+01 -8.12633E+01 -6.21743E+01
  -7.50749E+01 -6.44723E+01 -5.50386E+01 -6.36955E+01 -3.20482E+01 -2.09478E+01 -6.49565E+01 -5.21196E+01 -3.20012E+01 -5.50271E+01
  -4.48322E+01 -5.29929E+01 -3.26903E+01 -1.10282E+01 -2.66420E+01 -4.52457E+01 -4.97445E+01 -4.25378E+01 -6.68410E+01 -7.85407E+01
  -8.77728E+01 -7.12005E+01 -6.59456E+01 -6.27842E+01 -4.10964E+01 -2.31419E+01  2.54172E+01  2.01895E+01  1.05734E+01  4.84956E+00
  -2.32096E+01 -2.83032E+01 -3.78690E+01 -2.91388E+01 -2.48142E+01 -3.84568E+01 -2.30704E+01 -1.34547E+01 -2.88635E+01 -3.26282E+01
  -3.22192E+01 -4.45684E+01 -5.48552E+01 -5.63963E+01 -7.35190E+01 -7.68020E+01 -9.29297E+01 -1.07299E+02 -9.94159E+01 -1.23437E+02
  -1.14603E+02 -1.06448E+02 -1.02086E+02 -7.34527E+01 -6.50909E+01 -5.08756E+01 -4.57431E+01 -6.54930E+01 -6.45756E+01 -7.37476E+01
  -8.84175E+01 -7.22387E+01 -9.07358E+01 -9.90468E+01 -9.71204E+01 -1.06752E+02 -2.02189E+02 -1.79468E+02  1.29580E+02  2.19561E+02
   1.36830E+02  1.32652E+02  1.04401E+02  9.53692E+01  9.04627E+01  8.26800E+01  7.25502E+01  6.01428E+01  4.87339E+01  5.42981E+01
   4.32891E+01  2.83554E+01  4.20594E+01  4.85601E+01  5.11379E+01  3.88177E+01  5.17004E+01  5.30705E+01  3.20072E+01  4.57842E+01
   5.53439E+01  5.05811E+01  3.94285E+01  3.77349E+01  3.77977E+01  2.85691E+01  4.18481E+01  3.80280E+01  2.54597E+01  2.23581E+01
   2.23640E+01  2.98016E+01  1.67444E+01  2.04597E+01  1.57128E+01  7.93438E+00  1.10191E+00  1.27075E+01  1.65479E+01 -8.75550E+00
   1.38811E+01  2.52217E+00  2.02958E+01  2.72923E+01  1.27498E+01  3.86440E+01  2.65449E+01  3.69908E+01  3.38754E+01  2.72590E+01
   2.82583E+01  3.84860E+01  3.82506E+01  2.42590E+01  2.00484E+01  6.44042E+00  1.79601E+01  1.03816E+01  2.04824E+01  3.52254E+01
   3.82498E+01  4.43122E+01  4.98527E+01  4.22755E+01  2.42449E+01  2.46182E+01 -7.39020E-01 -3.61440E+00 -7.78206E+00 -2.60442E+01
  -2.49176E+01 -2.79307E+01 -4.88843E+01 -4.35052E+01 -3.85072E+01 -4.77804E+01 -2.41228E+01 -3.60111E+01 -3.17782E+01 -2.52158E+01
  -1.05779E+01  1.67337E+00 -1.47278E+01 -1.84392E+01 -2.88269E+01 -1.68904E+01 -2.10282E+01 -3.49994E+00 -2.48364E+00 -9.06057E+00
  -1.81321E+00 -9.02811E+00 -6.99689E+00 -1.34404E+01  1.26521E+00 -2.23255E+01 -2.88543E+01 -3.74235E+01 -5.32587E+01 -3.94214E+01
  -4.45260E+01 -2.90646E+01 -3.60816E+01 -3.95822E+01 -2.51997E+01 -6.53174E+00  1.23144E+00 -6.04219E+00 -5.90920E-01  4.67699E+00
   7.55514E+00  9.85669E+00  1.46424E+01  6.36690E+00  1.53264E+01  3.15418E+01  3.81159E+01  4.34185E+01  4.19051E+01  3.69319E+01
   4.76281E+01  5.65629E+01  6.07834E+01  8.15871E+01  7.53326E+01  8.40562E+01  9.34258E+01  9.60472E+01  1.17970E+02  1.29654E+02
   1.27195E+02  1.03445E+02  9.22182E+01  8.11885E+01  6.58473E+01  4.91955E+01  4.19470E+01  4.90447E+01  4.71016E+01  2.87571E+01
  -4.22079E-01 -2.93652E+00 -4.73725E+00 -2.44608E+01 -2.93630E+01 -3.16640E+01 -4.83195E+01 -4.35558E+01 -3.74759E+01 -3.69431E+01
  -4.98088E+01 -5.70779E+01 -3.57961E+01 -5.00514E+01 -4.11518E+01 -3.89459E+01 -5.09179E+01 -4.15352E+01 -4.28524E+01 -3.73464E+01
  -4.34526E+01 -3.33828E+01 -3.94992E+01 -4.01012E+01 -2.90096E+01 -4.41771E+01 -4.49325E+01 -3.73773E+01 -3.40195E+01 -4.23593E+01
  -3.85439E+01 -4.41602E+01 -4.53496E+01 -3.70019E+01 -4.31545E+01 -4.53259E+01 -3.99167E+01 -4.04505E+01 -4.89477E+01 -3.22564E+01
  -5.11528E+01 -5.32442E+01 -3.13146E+01 -4.03717E+01 -3.74546E+01 -4.68445E+01 -3.23097E+01 -4.28100E+01 -4.75954E+01 -2.49577E+01
  -4.30325E+01 -4.02463E+01 -3.73739E+01 -3.41932E+01 -4.13674E+01 -4.93614E+01 -3.58546E+01 -3.72351E+01 -2.74666E+01 -2.53513E+01
  -3.31085E+01 -3.29989E+01 -4.48638E+01 -4.24061E+01 -3.16515E+01 -4.74359E+01 -3.62625E+01 -2.73790E+01 -5.11265E+01 -4.07279E+01
  -3.03122E+01 -3.62222E+01 -4.16285E+01 -4.23646E+01 -4.16236E+01 -4.22178E+01 -3.17369E+01 -2.16445E+01 -1.93741E+01 -3.99774E+01
 NY points of the fit to the data follow
  -7.31801E+01 -7.83774E+01 -8.69426E+01 -9.96430E+01 -1.08282E+02 -8.71267E+01 -4.62949E+01 -3.27443E+01 -4.97396E+01 -6.82532E+01
  -7.91338E+01 -8.53406E+01 -8.58912E+01 -8.21441E+01 -8.08179E+01 -8.09103E+01 -8.37227E+01 -9.17902E+01 -1.02544E+02 -1.23334E+02
  -1.48584E+02 -1.30197E+02 -8.02617E+01 -6.83852E+01 -4.81688E+01 -1.30226E+01 -1.50959E+01 -1.80441E+01 -1.06111E+01 -4.08139E+00
  -2.84136E+00 -5.47206E+00 -7.88372E+00 -9.39803E+00 -1.29412E+01 -1.86330E+01 -2.57632E+01 -3.44287E+01 -4.72472E+01 -7.08617E+01
  -1.07153E+02 -1.24668E+02 -1.03841E+02 -8.43549E+01 -7.45670E+01 -5.19678E+01 -2.35417E+01 -5.24631E+00  1.18621E+00  7.02954E+00
   6.21223E+00  1.65107E+00 -2.12195E+00 -1.18443E+01 -2.67118E+01 -4.32390E+01 -4.82369E+01 -3.82762E+01 -5.39148E+01 -8.38166E+01
  -6.43559E+01 -4.30362E+01 -5.11307E+01 -2.89719E+01  1.69159E+00  8.25974E+00  9.87449E+00  4.89736E+00 -2.68408E+01 -8.04666E+01
  -9.45315E+01 -6.43457E+01 -5.76376E+01 -5.62553E+01 -2.56532E+01 -3.26262E-01  8.48693E+00  1.21278E+01  1.33873E+01  1.50066E+01
   1.36248E+01  2.74980E+00 -1.29574E+01 -3.54034E+01 -6.00230E+01 -6.14609E+01 -5.30590E+01 -3.69170E+01 -1.27152E+01 -2.88526E+00
   4.14405E+00  9.37774E+00  1.39631E+01  1.92940E+01  2.41315E+01  2.94040E+01  3.49945E+01  3.99754E+01  3.98533E+01  3.00868E+01
   2.67389E+01  3.34250E+01  2.15917E+01 -8.89271E-01 -1.32612E+01 -3.90558E+01 -6.75776E+01 -5.86170E+01 -4.56734E+01 -8.09809E+01
  -1.60869E+02 -1.98632E+02 -1.58707E+02 -1.22003E+02 -1.01234E+02 -8.59530E+01 -7.74750E+01 -7.01659E+01 -6.29398E+01 -5.53941E+01
  -4.82513E+01 -4.16242E+01 -3.41126E+01 -2.54913E+01 -1.56227E+01 -3.64663E+00  1.14018E+01  2.78731E+01  4.69733E+01  7.40141E+01
   1.16472E+02  1.41780E+02  4.48068E+01 -1.23009E+02 -1.66136E+02 -1.30107E+02 -1.18876E+02 -1.06754E+02 -9.91893E+01 -9.75413E+01
  -9.94656E+01 -1.01719E+02 -1.04518E+02 -1.05643E+02 -1.05010E+02 -1.07136E+02 -1.06842E+02 -1.02991E+02 -9.98711E+01 -9.65702E+01
  -9.31079E+01 -8.94135E+01 -8.59519E+01 -8.34452E+01 -8.09454E+01 -7.54644E+01 -6.98319E+01 -6.99848E+01 -7.34961E+01 -7.34655E+01
  -6.75452E+01 -5.91338E+01 -5.62750E+01 -6.42635E+01 -7.36189E+01 -7.41780E+01 -7.04547E+01 -6.67032E+01 -6.52009E+01 -6.69847E+01
  -6.56756E+01 -4.91267E+01 -2.16273E+01 -1.52810E+01 -3.69838E+01 -5.02224E+01 -3.43496E+01 -1.22608E+01 -1.56339E+01 -4.28981E+01
  -6.42931E+01 -6.91870E+01 -7.18367E+01 -7.51788E+01 -7.69948E+01 -7.88822E+01 -7.90310E+01 -7.85345E+01 -7.70466E+01 -7.46873E+01
  -7.21391E+01 -6.74957E+01 -6.55319E+01 -6.46401E+01 -4.69946E+01 -3.45361E+01 -5.00120E+01 -5.06061E+01 -3.70441E+01 -3.83633E+01
  -4.12689E+01 -4.71797E+01 -3.95313E+01 -2.32053E+01 -2.64005E+01 -3.56433E+01 -4.35313E+01 -5.00513E+01 -5.89696E+01 -7.18156E+01
  -7.97315E+01 -8.40540E+01 -8.01831E+01 -6.51750E+01 -5.31404E+01 -2.55948E+01  1.28155E+01  1.74501E+01  1.68673E+01  1.20843E+01
  -1.37694E+01 -2.50431E+01 -2.70245E+01 -2.55678E+01 -1.99717E+01 -1.71114E+01 -1.68615E+01 -1.84280E+01 -2.48444E+01 -3.43030E+01
  -4.52534E+01 -5.75138E+01 -7.10240E+01 -8.25612E+01 -9.30518E+01 -1.06158E+02 -1.14272E+02 -1.17814E+02 -1.22166E+02 -1.18223E+02
  -1.11025E+02 -1.05851E+02 -9.24894E+01 -7.97649E+01 -6.96178E+01 -5.68163E+01 -5.40659E+01 -5.70991E+01 -6.31110E+01 -7.19623E+01
  -7.62283E+01 -8.69451E+01 -9.73072E+01 -1.03414E+02 -9.92700E+01 -1.23270E+02 -2.22812E+02 -1.66603E+02  9.81177E+01  1.89251E+02
   1.32790E+02  1.17185E+02  9.03503E+01  7.72847E+01  7.00269E+01  6.58637E+01  6.26855E+01  5.86615E+01  5.47371E+01  5.13231E+01
   4.87858E+01  4.77023E+01  4.78920E+01  4.95220E+01  5.03290E+01  5.09011E+01  5.14161E+01  4.98221E+01  4.84097E+01  4.75210E+01
   4.63756E+01  4.47440E+01  4.22378E+01  3.97642E+01  3.79410E+01  3.63307E+01  3.37969E+01  3.11373E+01  2.89696E+01  2.63045E+01
   2.33115E+01  1.93334E+01  1.46454E+01  1.08329E+01  6.53654E+00  1.97838E+00 -6.68114E-01 -8.55489E-01  1.09134E+00  4.32199E+00
   7.43765E+00  1.00534E+01  1.31043E+01  1.67348E+01  1.99691E+01  2.28812E+01  2.57468E+01  2.80827E+01  3.02344E+01  3.32137E+01
   3.70509E+01  4.01144E+01  4.22846E+01  4.41802E+01  4.59618E+01  4.81958E+01  4.99480E+01  5.04407E+01  5.08347E+01  5.05456E+01
   4.83311E+01  4.64527E+01  4.42226E+01  3.38648E+01  2.01315E+01  1.25745E+01  4.70887E+00 -1.74748E-01 -1.95448E+00 -1.06394E+01
  -2.08503E+01 -2.96851E+01 -3.73478E+01 -4.29839E+01 -4.56613E+01 -4.47701E+01 -4.03435E+01 -3.34189E+01 -2.60845E+01 -2.00050E+01
  -1.43595E+01 -1.19318E+01 -1.79732E+01 -2.38640E+01 -2.51583E+01 -2.71584E+01 -2.02868E+01 -1.04453E+01 -8.15846E+00 -6.51240E+00
  -5.75590E+00 -5.96399E+00 -8.13812E+00 -1.12128E+01 -1.56343E+01 -2.17112E+01 -2.72057E+01 -3.05000E+01 -3.15138E+01 -3.10165E+01
  -2.90079E+01 -2.58797E+01 -2.22680E+01 -1.78904E+01 -1.32855E+01 -9.01425E+00 -5.22948E+00 -1.60335E+00  1.81469E+00  4.99395E+00
   8.55539E+00  1.22085E+01  1.55500E+01  1.89747E+01  2.30485E+01  2.70656E+01  3.15706E+01  3.75210E+01  4.33971E+01  4.95820E+01
   5.77508E+01  6.61813E+01  7.35566E+01  8.20735E+01  9.21903E+01  1.01416E+02  1.08759E+02  1.13793E+02  1.14738E+02  1.09535E+02
   9.80071E+01  8.30979E+01  6.91210E+01  5.83043E+01  4.95083E+01  4.21037E+01  3.66764E+01  3.00650E+01  2.03182E+01  9.40101E+00
  -9.35155E-01 -1.15615E+01 -2.07624E+01 -2.61486E+01 -3.02991E+01 -3.40896E+01 -3.64477E+01 -3.75389E+01 -3.81853E+01 -3.92024E+01
  -4.03207E+01 -4.14134E+01 -4.22903E+01 -4.22964E+01 -4.20810E+01 -4.23221E+01 -4.26469E+01 -4.19983E+01 -4.13324E+01 -4.19955E+01
  -4.29585E+01 -4.21533E+01 -4.07596E+01 -4.11652E+01 -4.15970E+01 -4.11794E+01 -4.07110E+01 -4.06095E+01 -4.09373E+01 -4.08698E+01
  -3.99278E+01 -3.89762E+01 -3.90560E+01 -3.92931E+01 -3.93985E+01 -3.96556E+01 -3.94495E+01 -3.86771E+01 -3.82950E+01 -3.80742E+01
  -3.74350E+01 -3.72446E+01 -3.70936E+01 -3.66123E+01 -3.62691E+01 -3.64476E+01 -3.70309E+01 -3.71950E+01 -3.64836E+01 -3.58554E+01
  -3.58080E+01 -3.52681E+01 -3.51554E+01 -3.58204E+01 -3.55075E+01 -3.45708E+01 -3.42746E+01 -3.39963E+01 -3.36121E+01 -3.36006E+01
  -3.33544E+01 -3.28680E+01 -3.27285E+01 -3.29409E+01 -3.30845E+01 -3.31219E+01 -3.30840E+01 -3.28073E+01 -3.23008E+01 -3.10911E+01
  -3.02563E+01 -3.03610E+01 -3.10171E+01 -3.16551E+01 -3.17506E+01 -3.11906E+01 -3.07361E+01 -3.09701E+01 -3.07083E+01 -3.02366E+01
 NY background values follow
    -3.459E+01   -3.456E+01   -3.453E+01   -3.450E+01   -3.447E+01   -3.444E+01   -3.441E+01   -3.438E+01   -3.435E+01   -3.432E+01
    -3.429E+01   -3.426E+01   -3.422E+01   -3.419E+01   -3.416E+01   -3.413E+01   -3.410E+01   -3.407E+01   -3.404E+01   -3.401E+01
    -3.398E+01   -3.395E+01   -3.392E+01   -3.389E+01   -3.386E+01   -3.382E+01   -3.379E+01   -3.376E+01   -3.373E+01   -3.370E+01
    -3.367E+01   -3.364E+01   -3.361E+01   -3.358E+01   -3.355E+01   -3.352E+01   -3.349E+01   -3.346E+01   -3.342E+01   -3.339E+01
    -3.336E+01   -3.333E+01   -3.330E+01   -3.327E+01   -3.324E+01   -3.321E+01   -3.318E+01   -3.315E+01   -3.312E+01   -3.309E+01
    -3.306E+01   -3.302E+01   -3.299E+01   -3.296E+01   -3.293E+01   -3.290E+01   -3.287E+01   -3.284E+01   -3.281E+01   -3.278E+01
    -3.275E+01   -3.272E+01   -3.269E+01   -3.266E+01   -3.263E+01   -3.259E+01   -3.256E+01   -3.253E+01   -3.250E+01   -3.247E+01
    -3.244E+01   -3.241E+01   -3.238E+01   -3.235E+01   -3.232E+01   -3.229E+01   -3.226E+01   -3.223E+01   -3.220E+01   -3.217E+01
    -3.214E+01   -3.211E+01   -3.208E+01   -3.204E+01   -3.201E+01   -3.198E+01   -3.195E+01   -3.192E+01   -3.189E+01   -3.186E+01
    -3.183E+01   -3.180E+01   -3.177E+01   -3.174E+01   -3.171E+01   -3.168E+01   -3.165E+01   -3.162E+01   -3.159E+01   -3.156E+01
    -3.153E+01   -3.150E+01   -3.147E+01   -3.144E+01   -3.141E+01   -3.138E+01   -3.135E+01   -3.132E+01   -3.129E+01   -3.126E+01
    -3.123E+01   -3.120E+01   -3.117E+01   -3.114E+01   -3.111E+01   -3.108E+01   -3.105E+01   -3.102E+01   -3.099E+01   -3.096E+01
    -3.093E+01   -3.090E+01   -3.087E+01   -3.084E+01   -3.081E+01   -3.078E+01   -3.075E+01   -3.072E+01   -3.069E+01   -3.066E+01
    -3.063E+01   -3.060E+01   -3.057E+01   -3.054E+01   -3.051E+01   -3.048E+01   -3.045E+01   -3.042E+01   -3.039E+01   -3.037E+01
    -3.034E+01   -3.031E+01   -3.028E+01   -3.025E+01   -3.022E+01   -3.019E+01   -3.016E+01   -3.013E+01   -3.010E+01   -3.007E+01
    -3.004E+01   -3.001E+01   -2.999E+01   -2.996E+01   -2.993E+01   -2.990E+01   -2.987E+01   -2.984E+01   -2.981E+01   -2.978E+01
    -2.975E+01   -2.973E+01   -2.970E+01   -2.967E+01   -2.964E+01   -2.961E+01   -2.958E+01   -2.955E+01   -2.952E+01   -2.950E+01
    -2.947E+01   -2.944E+01   -2.941E+01   -2.938E+01   -2.935E+01   -2.933E+01   -2.930E+01   -2.927E+01   -2.924E+01   -2.921E+01
    -2.918E+01   -2.916E+01   -2.913E+01   -2.910E+01   -2.907E+01   -2.904E+01   -2.902E+01   -2.899E+01   -2.896E+01   -2.893E+01
    -2.890E+01   -2.888E+01   -2.885E+01   -2.882E+01   -2.879E+01   -2.876E+01   -2.874E+01   -2.871E+01   -2.868E+01   -2.865E+01
    -2.863E+01   -2.860E+01   -2.857E+01   -2.854E+01   -2.852E+01   -2.849E+01   -2.846E+01   -2.843E+01   -2.841E+01   -2.838E+01
    -2.835E+01   -2.833E+01   -2.830E+01   -2.827E+01   -2.824E+01   -2.822E+01   -2.819E+01   -2.816E+01   -2.814E+01   -2.811E+01
    -2.808E+01   -2.805E+01   -2.803E+01   -2.800E+01   -2.797E+01   -2.795E+01   -2.792E+01   -2.789E+01   -2.787E+01   -2.784E+01
    -2.781E+01   -2.779E+01   -2.776E+01   -2.773E+01   -2.771E+01   -2.768E+01   -2.766E+01   -2.763E+01   -2.760E+01   -2.758E+01
    -2.755E+01   -2.752E+01   -2.750E+01   -2.747E+01   -2.744E+01   -2.742E+01   -2.739E+01   -2.737E+01   -2.734E+01   -2.731E+01
    -2.729E+01   -2.726E+01   -2.724E+01   -2.721E+01   -2.718E+01   -2.716E+01   -2.713E+01   -2.711E+01   -2.708E+01   -2.706E+01
    -2.703E+01   -2.700E+01   -2.698E+01   -2.695E+01   -2.693E+01   -2.690E+01   -2.688E+01   -2.685E+01   -2.683E+01   -2.680E+01
    -2.677E+01   -2.675E+01   -2.672E+01   -2.670E+01   -2.667E+01   -2.665E+01   -2.662E+01   -2.660E+01   -2.657E+01   -2.655E+01
    -2.652E+01   -2.650E+01   -2.647E+01   -2.645E+01   -2.642E+01   -2.640E+01   -2.637E+01   -2.635E+01   -2.632E+01   -2.630E+01
    -2.627E+01   -2.625E+01   -2.622E+01   -2.620E+01   -2.617E+01   -2.615E+01   -2.612E+01   -2.610E+01   -2.607E+01   -2.605E+01
    -2.602E+01   -2.600E+01   -2.597E+01   -2.595E+01   -2.592E+01   -2.590E+01   -2.587E+01   -2.585E+01   -2.583E+01   -2.580E+01
    -2.578E+01   -2.575E+01   -2.573E+01   -2.570E+01   -2.568E+01   -2.565E+01   -2.563E+01   -2.561E+01   -2.558E+01   -2.556E+01
    -2.553E+01   -2.551E+01   -2.548E+01   -2.546E+01   -2.543E+01   -2.541E+01   -2.539E+01   -2.536E+01   -2.534E+01   -2.531E+01
    -2.529E+01   -2.526E+01   -2.524E+01   -2.522E+01   -2.519E+01   -2.517E+01   -2.514E+01   -2.512E+01   -2.510E+01   -2.507E+01
    -2.505E+01   -2.502E+01   -2.500E+01   -2.498E+01   -2.495E+01   -2.493E+01   -2.490E+01   -2.488E+01   -2.486E+01   -2.483E+01
    -2.481E+01   -2.478E+01   -2.476E+01   -2.474E+01   -2.471E+01   -2.469E+01   -2.466E+01   -2.464E+01   -2.462E+01   -2.459E+01
    -2.457E+01   -2.454E+01   -2.452E+01   -2.450E+01   -2.447E+01   -2.445E+01   -2.442E+01   -2.440E+01   -2.438E+01   -2.435E+01
    -2.433E+01   -2.431E+01   -2.428E+01   -2.426E+01   -2.423E+01   -2.421E+01   -2.419E+01   -2.416E+01   -2.414E+01   -2.412E+01
    -2.409E+01   -2.407E+01   -2.404E+01   -2.402E+01   -2.400E+01   -2.397E+01   -2.395E+01   -2.393E+01   -2.390E+01   -2.388E+01
    -2.386E+01   -2.383E+01   -2.381E+01   -2.378E+01   -2.376E+01   -2.374E+01   -2.371E+01   -2.369E+01   -2.367E+01   -2.364E+01
    -2.362E+01   -2.360E+01   -2.357E+01   -2.355E+01   -2.353E+01   -2.350E+01   -2.348E+01   -2.346E+01   -2.343E+01   -2.341E+01
    -2.339E+01   -2.336E+01   -2.334E+01   -2.331E+01   -2.329E+01   -2.327E+01   -2.324E+01   -2.322E+01   -2.320E+01   -2.317E+01
    -2.315E+01   -2.313E+01   -2.310E+01   -2.308E+01   -2.306E+01   -2.303E+01   -2.301E+01   -2.299E+01   -2.296E+01   -2.294E+01
    -2.292E+01   -2.289E+01   -2.287E+01   -2.285E+01   -2.282E+01   -2.280E+01   -2.278E+01   -2.275E+01   -2.273E+01   -2.271E+01
    -2.268E+01   -2.266E+01   -2.264E+01   -2.261E+01   -2.259E+01   -2.257E+01   -2.254E+01   -2.252E+01   -2.250E+01   -2.247E+01
    -2.245E+01   -2.243E+01   -2.240E+01   -2.238E+01   -2.236E+01   -2.233E+01   -2.231E+01   -2.229E+01   -2.226E+01   -2.224E+01
    -2.222E+01   -2.219E+01   -2.217E+01   -2.215E+01   -2.212E+01   -2.210E+01   -2.208E+01   -2.205E+01   -2.203E+01   -2.201E+01
    -2.198E+01   -2.196E+01   -2.194E+01   -2.192E+01   -2.189E+01   -2.187E+01   -2.185E+01   -2.182E+01   -2.180E+01   -2.178E+01
 Mac      Conc. = 3.22E-04
  -5.57820E+01 -5.71367E+01 -5.78369E+01 -5.81091E+01 -5.82768E+01 -5.83494E+01 -5.89145E+01 -6.05654E+01 -6.29238E+01 -6.53430E+01
  -6.73412E+01 -6.84900E+01 -6.87870E+01 -6.87292E+01 -6.86154E+01 -6.85429E+01 -7.02291E+01 -7.39173E+01 -7.60603E+01 -7.19297E+01
  -6.34372E+01 -5.86027E+01 -5.54688E+01 -5.02589E+01 -4.71308E+01 -4.67957E+01 -4.64736E+01 -4.51788E+01 -4.33234E+01 -4.09412E+01
  -3.81041E+01 -3.61006E+01 -3.50266E+01 -3.38276E+01 -3.27811E+01 -3.26605E+01 -3.38301E+01 -3.48652E+01 -3.37525E+01 -3.00462E+01
  -2.57573E+01 -2.41538E+01 -2.54559E+01 -2.66026E+01 -2.59745E+01 -2.40937E+01 -2.17223E+01 -2.05425E+01 -2.09683E+01 -2.19755E+01
  -2.33502E+01 -2.51046E+01 -2.70817E+01 -2.82788E+01 -2.87544E+01 -2.91044E+01 -2.93526E+01 -2.97550E+01 -2.90245E+01 -2.65506E+01
  -2.46256E+01 -2.39595E+01 -2.19570E+01 -1.97736E+01 -2.00531E+01 -2.11695E+01 -2.25998E+01 -2.41239E+01 -2.43189E+01 -2.42827E+01
  -2.52047E+01 -2.57527E+01 -2.31230E+01 -1.83341E+01 -1.53829E+01 -1.41614E+01 -1.36187E+01 -1.37689E+01 -1.45599E+01 -1.59090E+01
  -1.69604E+01 -1.72414E+01 -1.75662E+01 -1.81937E+01 -1.83546E+01 -1.71552E+01 -1.58703E+01 -1.51180E+01 -1.38172E+01 -1.27348E+01
  -1.22021E+01 -1.17747E+01 -1.12772E+01 -1.08352E+01 -1.08750E+01 -1.09255E+01 -1.19434E+01 -1.46360E+01 -1.75915E+01 -2.06203E+01
  -2.40228E+01 -2.60171E+01 -2.71461E+01 -2.96606E+01 -3.33968E+01 -3.71190E+01 -4.21710E+01 -4.98478E+01 -5.92218E+01 -6.67355E+01
