 LCModel (Version 6.3-1N) Copyright: S.W. Provencher.          Ref.: Magn. Reson. Med. 30:672-679 (1993).                
 Slice_N1@10_11  28-Feb-2025 11:36:38
 27 lines in following concentration table = NCONC+1
    Conc.  %SD /Cr+PCr  Metabolite                                         
 3.63E-04   3% 4.0E-04 Mac                                                 
    2.429  40%   2.644 Cr                                                  
    4.921  20%   5.356 PCr                                                 
    5.638  15%   6.138 Ins                                                 
   12.406   7%  13.504 NAA                                                 
    5.866  14%   6.385 Tau                                                 
    1.100  24%   1.198 PCho                                                
    0.000 999%   0.000 GPC                                                 
   11.577   9%  12.602 Glu                                                 
    4.796  17%   5.221 Gln                                                 
    2.495  26%   2.716 Ala                                                 
    0.335 330%   0.364 Asc                                                 
    2.142  45%   2.331 Asp                                                 
    0.575  88%   0.626 GABA                                                
    0.625 105%   0.681 Glc                                                 
    1.216  40%   1.324 GSH                                                 
    0.428 149%   0.466 Lac                                                 
    2.474  23%   2.693 NAAG                                                
    1.879  57%   2.046 PE                                                  
    1.100  24%   1.198 GPC+PCho                                            
   14.880   5%  16.197 NAA+NAAG                                            
   16.374   8%  17.823 Glu+Gln                                             
    7.349   9%   8.000 Cr+PCr                                              
   14.880   5%  16.197 NAA+NAAG                                            
    7.349   9%   8.000 Cr+PCr                                              
   16.374   8%  17.823 Glu+Gln                                             
   6 lines in following misc. output table
  FWHM = 0.033 ppm    S/N =   5                                            
  Data shift = 0.041 ppm                                                   
  Ph: 153 deg       0.0 deg/ppm                                            
  alphaB,S = 1.7E-01,   4.0E-01                                            
   19 spline knots.   Ns = 5(1)                                            
   2 inflections.     2 extrema                                            
  480 points on ppm-axis = NY
      4.100000     4.091866     4.083733     4.075600     4.067466     4.059333     4.051199     4.043066     4.034933     4.026799
      4.018666     4.010532     4.002399     3.994265     3.986132     3.977998     3.969864     3.961731     3.953597     3.945463
      3.937330     3.929196     3.921062     3.912929     3.904795     3.896662     3.888528     3.880394     3.872261     3.864127
      3.855993     3.847860     3.839726     3.831592     3.823459     3.815325     3.807191     3.799058     3.790924     3.782790
      3.774657     3.766523     3.758389     3.750256     3.742122     3.733989     3.725855     3.717721     3.709588     3.701454
      3.693320     3.685187     3.677053     3.668919     3.660786     3.652652     3.644518     3.636385     3.628251     3.620117
      3.611984     3.603850     3.595716     3.587583     3.579449     3.571316     3.563182     3.555048     3.546915     3.538781
      3.530647     3.522514     3.514380     3.506246     3.498113     3.489979     3.481845     3.473712     3.465578     3.457444
      3.449311     3.441177     3.433043     3.424910     3.416776     3.408643     3.400509     3.392375     3.384242     3.376108
      3.367974     3.359841     3.351707     3.343573     3.335440     3.327306     3.319172     3.311039     3.302905     3.294771
      3.286638     3.278504     3.270370     3.262237     3.254103     3.245970     3.237836     3.229702     3.221569     3.213435
      3.205301     3.197168     3.189034     3.180900     3.172767     3.164633     3.156499     3.148366     3.140232     3.132098
      3.123965     3.115831     3.107697     3.099564     3.091430     3.083297     3.075163     3.067029     3.058896     3.050762
      3.042628     3.034495     3.026361     3.018227     3.010094     3.001960     2.993826     2.985693     2.977559     2.969425
      2.961292     2.953158     2.945024     2.936891     2.928757     2.920624     2.912490     2.904356     2.896223     2.888089
      2.879955     2.871822     2.863688     2.855554     2.847421     2.839287     2.831153     2.823020     2.814886     2.806752
      2.798619     2.790485     2.782351     2.774218     2.766084     2.757951     2.749817     2.741683     2.733550     2.725416
      2.717282     2.709149     2.701015     2.692881     2.684748     2.676614     2.668480     2.660347     2.652213     2.644079
      2.635946     2.627812     2.619678     2.611545     2.603411     2.595278     2.587144     2.579010     2.570877     2.562743
      2.554609     2.546476     2.538342     2.530208     2.522075     2.513941     2.505807     2.497674     2.489540     2.481406
      2.473273     2.465139     2.457006     2.448872     2.440738     2.432605     2.424471     2.416337     2.408204     2.400070
      2.391936     2.383803     2.375669     2.367535     2.359402     2.351268     2.343134     2.335001     2.326867     2.318733
      2.310600     2.302466     2.294333     2.286199     2.278065     2.269932     2.261798     2.253664     2.245531     2.237397
      2.229263     2.221130     2.212996     2.204862     2.196729     2.188595     2.180461     2.172328     2.164194     2.156060
      2.147927     2.139793     2.131660     2.123526     2.115392     2.107259     2.099125     2.090991     2.082858     2.074724
      2.066590     2.058457     2.050323     2.042189     2.034056     2.025922     2.017788     2.009655     2.001521     1.993387
      1.985254     1.977120     1.968987     1.960853     1.952719     1.944586     1.936452     1.928318     1.920185     1.912051
      1.903917     1.895784     1.887650     1.879516     1.871383     1.863249     1.855115     1.846982     1.838848     1.830714
      1.822581     1.814447     1.806314     1.798180     1.790046     1.781913     1.773779     1.765645     1.757512     1.749378
      1.741244     1.733111     1.724977     1.716843     1.708710     1.700576     1.692442     1.684309     1.676175     1.668041
      1.659908     1.651774     1.643641     1.635507     1.627373     1.619240     1.611106     1.602972     1.594839     1.586705
      1.578571     1.570438     1.562304     1.554170     1.546037     1.537903     1.529769     1.521636     1.513502     1.505368
      1.497235     1.489101     1.480968     1.472834     1.464700     1.456567     1.448433     1.440299     1.432166     1.424032
      1.415898     1.407765     1.399631     1.391497     1.383364     1.375230     1.367096     1.358963     1.350829     1.342695
      1.334562     1.326428     1.318295     1.310161     1.302027     1.293894     1.285760     1.277626     1.269493     1.261359
      1.253225     1.245092     1.236958     1.228824     1.220691     1.212557     1.204423     1.196290     1.188156     1.180022
      1.171889     1.163755     1.155622     1.147488     1.139354     1.131221     1.123087     1.114953     1.106820     1.098686
      1.090552     1.082419     1.074285     1.066151     1.058018     1.049884     1.041750     1.033617     1.025483     1.017349
      1.009216     1.001082     0.992949     0.984815     0.976681     0.968548     0.960414     0.952280     0.944147     0.936013
      0.927879     0.919746     0.911612     0.903478     0.895345     0.887211     0.879077     0.870944     0.862810     0.854676
      0.846543     0.838409     0.830276     0.822142     0.814008     0.805875     0.797741     0.789607     0.781474     0.773340
      0.765206     0.757073     0.748939     0.740805     0.732672     0.724538     0.716404     0.708271     0.700137     0.692003
      0.683870     0.675736     0.667603     0.659469     0.651335     0.643202     0.635068     0.626934     0.618801     0.610667
      0.602533     0.594400     0.586266     0.578132     0.569999     0.561865     0.553731     0.545598     0.537464     0.529330
      0.521197     0.513063     0.504930     0.496796     0.488662     0.480529     0.472395     0.464261     0.456128     0.447994
      0.439861     0.431727     0.423593     0.415460     0.407326     0.399192     0.391059     0.382925     0.374792     0.366658
      0.358524     0.350391     0.342257     0.334124     0.325990     0.317856     0.309723     0.301589     0.293455     0.285322
      0.277188     0.269055     0.260921     0.252787     0.244654     0.236520     0.228386     0.220253     0.212119     0.203986
 NY phased data points follow
   5.93323E+00  2.06809E+01  1.36992E+01 -4.37345E+00  4.40890E+00  1.45480E+01  2.38814E+01  1.14399E+01  1.76187E+01  1.58174E+01
  -2.18692E-01 -2.88875E-01 -9.93660E+00  4.56435E-01 -1.17277E+01 -1.55372E+01  2.55658E+00 -2.57478E+01 -4.69375E+01 -5.07892E+01
  -5.86583E+01 -2.95388E+01 -1.30327E+01  2.45071E+00  5.16540E+01  5.78483E+01  5.94798E+01  6.25292E+01  5.89341E+01  5.81069E+01
   6.55776E+01  6.14516E+01  4.14480E+01  5.21597E+01  4.79431E+01  4.67147E+01  4.82142E+01  3.54186E+01  2.51209E+01  8.37431E+00
  -1.77805E+01 -3.04153E+01 -1.44441E+01 -1.52291E+00  2.55057E+01  4.21718E+01  6.47572E+01  7.77976E+01  8.94541E+01  1.05516E+02
   8.53399E+01  1.00030E+02  9.54943E+01  6.70788E+01  5.98617E+01  6.99307E+01  7.78965E+01  4.16222E+01  2.55708E+01  3.07116E+01
   4.31096E+01  4.21577E+01  4.71432E+01  7.20278E+01  6.16892E+01  7.22711E+01  8.43799E+01  7.27911E+01  5.29775E+01  1.52159E+01
   2.93594E+01  3.61529E+01  2.09804E+01  4.85782E+01  5.79852E+01  6.27962E+01  8.56699E+01  8.18609E+01  7.54786E+01  9.04105E+01
   8.00513E+01  6.25570E+01  5.37150E+01  2.93237E+01  3.20945E+01  3.03105E+01  4.06363E+01  6.47577E+01  5.04072E+01  5.77890E+01
   6.76810E+01  7.90769E+01  9.54494E+01  8.32093E+01  9.41973E+01  9.99467E+01  9.59309E+01  1.03609E+02  9.91160E+01  1.01034E+02
   9.57382E+01  7.47973E+01  7.44287E+01  6.89600E+01  4.00326E+01  3.60099E+01  2.05068E+01  1.60638E+01  2.09496E+01 -6.62965E+01
  -1.03571E+02 -7.38520E+01 -6.89150E+01 -3.56973E+01 -3.48590E+01 -2.44413E+01  1.02339E+01 -3.54414E+00  2.37735E+00 -2.06359E+00
   4.49095E+00  2.74326E+01  1.92071E+01  3.44235E+01  3.33124E+01  5.62289E+01  7.73384E+01  6.43505E+01  9.83635E+01  1.41035E+02
   1.73844E+02  1.47821E+02  7.69518E+01  2.03948E+00 -4.75103E+01 -5.71515E+01 -4.32716E+01 -3.24164E+01 -5.06869E+01 -2.50220E+01
  -3.38976E+01 -4.26956E+01 -2.43592E+01 -5.09894E+01 -3.80909E+01 -4.58229E+01 -3.50650E+01 -2.13533E+01 -5.80565E+01 -3.24544E+01
  -2.06220E+01 -3.03506E+01 -1.33390E+01 -2.01719E+01 -1.45289E+01  9.89872E-01  1.76390E+00 -8.39762E+00 -8.20920E+00 -1.99041E+00
  -6.90497E+00  1.43697E+00  7.05226E-01  2.97906E+00 -2.82997E+00 -1.17256E+01 -9.89008E+00 -3.40143E+00  5.98169E+00 -5.13606E+00
   1.33035E+01  1.78584E+01  2.44247E+01  4.16930E+01  3.60138E+01  3.48965E+01  3.43550E+01  4.90300E+01  4.51197E+01  3.71215E+01
   2.58285E+01  1.47752E+00 -2.53659E+01 -2.32574E+01 -2.79393E+01 -3.72243E+01 -1.25108E+01 -1.64675E+01 -8.31133E+00 -2.27153E+01
  -1.39891E+01  1.41712E+00 -5.29328E+00  4.71433E+00 -2.22899E+00  1.51846E+01 -4.26818E+00  5.58646E+00  2.83737E+01  1.77561E+01
   1.51002E+01  1.74323E+01  3.35875E+01  2.93186E+01  3.56369E+01  1.78705E+01  1.08823E+01  9.83605E-01 -9.08117E+00 -1.65657E+00
  -1.91440E+01 -1.75162E+01 -1.96659E+01 -1.38373E+01  2.37510E+00  4.18848E+01  6.56876E+01  6.98219E+01  9.13460E+01  8.87456E+01
   6.03209E+01  1.74027E+01  1.57032E+01  2.47598E+01  2.72262E+01  2.81298E+01  2.30191E+01  4.09525E+01  3.20374E+01  1.44233E+01
   2.03990E+01  1.60849E+01  9.19816E+00 -1.42450E+01 -1.92708E+01 -5.89305E+00 -4.05144E+01 -5.15859E+01 -5.80700E+01 -7.65832E+01
  -6.39245E+01 -5.99416E+01 -5.10495E+01 -4.19358E+01 -3.31164E+01 -8.95942E+00 -1.32239E-01 -1.12468E+01 -2.61134E+00 -1.34311E+01
  -3.36051E+01 -3.57040E+01 -4.05086E+01 -3.03485E+01 -4.31305E+01 -9.55707E+01 -1.27790E+02 -4.84270E+01  8.39157E+01  1.91121E+02
   2.28389E+02  2.03035E+02  1.91790E+02  1.64037E+02  1.52967E+02  1.31146E+02  1.19633E+02  1.39619E+02  1.27453E+02  1.18672E+02
   1.05086E+02  9.68590E+01  1.07161E+02  1.11183E+02  1.03449E+02  1.09693E+02  1.08109E+02  9.36441E+01  1.00215E+02  1.12427E+02
   1.07094E+02  8.78362E+01  9.78452E+01  1.12073E+02  1.04197E+02  9.35089E+01  1.00922E+02  9.71550E+01  7.89454E+01  8.50071E+01
   9.07272E+01  8.54465E+01  8.12380E+01  7.68939E+01  7.50687E+01  8.44138E+01  5.96983E+01  4.54674E+01  5.86541E+01  5.49016E+01
   6.81824E+01  6.65151E+01  6.47640E+01  6.84245E+01  6.50176E+01  5.85136E+01  5.87960E+01  6.61361E+01  6.33692E+01  7.10917E+01
   5.94192E+01  6.14079E+01  7.71545E+01  8.01789E+01  8.16121E+01  6.07922E+01  6.08335E+01  7.12711E+01  7.04492E+01  7.05670E+01
   6.50269E+01  5.06069E+01  3.61653E+01  4.64631E+01  4.18016E+01  3.32612E+01  2.75404E+01 -3.90988E+00  1.11678E+01  2.61347E+01
  -1.70962E+00 -5.46173E+00 -1.15075E+01 -4.93572E+01 -6.69331E+01 -7.92383E+01 -9.19431E+01 -5.99362E+01 -7.13810E+01 -7.58255E+01
  -3.53427E+01 -3.18663E+01 -3.64881E+01 -4.65441E+01 -3.50599E+01 -3.25432E+01 -4.26041E+01 -3.21529E+01 -2.10410E+01 -6.95786E+00
  -8.67401E+00 -1.27526E+01  6.15468E+00  8.00667E+00 -4.87721E+00  1.32190E+00 -2.45962E+01 -1.96915E+01 -4.49206E+00 -8.92199E+00
   9.90372E+00 -1.67501E+01 -2.21412E+00  1.13394E+01 -1.08830E+01  1.62583E+01  2.60104E+01  2.61308E+01  3.63791E+01  1.73158E+01
   1.37416E+01  3.13158E+01  3.63922E+01  5.43657E+01  5.47275E+01  5.87301E+01  5.68792E+01  5.23753E+01  6.33325E+01  5.96507E+01
   7.99038E+01  8.31040E+01  8.36549E+01  9.51791E+01  1.13720E+02  1.17450E+02  1.23940E+02  1.41411E+02  1.26296E+02  1.41266E+02
   1.30577E+02  1.31025E+02  1.22590E+02  1.00291E+02  1.12894E+02  7.53160E+01  6.59050E+01  6.33212E+01  6.14250E+01  5.82344E+01
   3.74431E+01  3.73482E+01  2.85969E+01  2.36701E+01  1.19254E+01  1.09732E+01 -1.02483E+01 -2.38798E+01 -1.36822E+01 -7.85514E+00
   7.40916E+00 -1.52793E+01 -1.11661E+01  5.03845E+00 -1.20774E+01 -1.17777E+01  3.01512E+00  5.70474E+00 -8.16910E+00 -1.02115E+01
  -7.47241E+00 -1.23699E+01 -1.43665E+01 -1.62386E+00 -8.42029E+00 -2.23382E+01 -2.51396E+01 -2.45436E+01 -3.64423E+00 -1.52528E+01
  -1.21055E+01 -5.03427E+00 -1.47694E+01 -2.50964E+00 -1.96583E+01 -4.69636E+00  1.10804E+01 -1.65557E+01 -3.30270E+01 -2.17905E+01
  -9.80547E+00 -2.51255E+01 -1.84341E+00  2.83779E+00 -2.00119E+01 -1.86175E+01 -1.17118E+01 -3.49359E+00 -1.42274E+01 -3.99561E+00
  -6.48185E+00 -1.26930E+01 -6.27157E+00 -2.53409E+01 -1.82232E+01 -1.30532E+01 -2.45896E+01 -1.08472E+01  2.85110E+00  2.73509E+00
   1.57903E+01  3.67754E+00 -1.70038E+01 -6.31916E+00  8.51232E+00  1.27577E+01 -9.45287E+00 -1.10098E+01 -7.30011E+00 -8.85258E+00
  -2.16512E+00  1.05791E+01  1.22459E+01 -1.39313E+01 -3.55550E+00 -9.64758E+00 -1.13231E+01 -2.51863E+00 -4.94861E-01  1.64359E+00
 NY points of the fit to the data follow
   1.73833E+01  1.28065E+01  4.23906E+00 -5.08782E+00 -6.72911E+00  3.80254E+00  1.81136E+01  2.57823E+01  2.45166E+01  1.69347E+01
   8.53967E+00  1.71112E+00 -4.01878E+00 -7.88008E+00 -9.75683E+00 -1.05688E+01 -7.85076E+00 -1.42907E+01 -2.72354E+01 -4.45940E+01
  -5.26719E+01 -3.04318E+01 -6.09051E+00  1.90435E+01  4.25761E+01  4.89959E+01  5.45678E+01  5.56297E+01  5.59340E+01  5.89115E+01
   6.06397E+01  6.06586E+01  5.99555E+01  5.82367E+01  5.58439E+01  5.13035E+01  4.72263E+01  4.12646E+01  2.91026E+01  9.01235E+00
  -1.51543E+01 -2.82491E+01 -2.39867E+01 -5.75454E+00  2.19326E+01  4.96480E+01  6.92546E+01  7.96509E+01  8.32673E+01  8.19120E+01
   8.05988E+01  7.87999E+01  7.68299E+01  7.15449E+01  6.31155E+01  5.49719E+01  4.70152E+01  4.19663E+01  3.52145E+01  3.17333E+01
   3.66450E+01  3.83232E+01  4.43621E+01  5.58667E+01  6.51646E+01  7.69681E+01  8.21233E+01  7.51768E+01  5.76999E+01  3.68365E+01
   2.81713E+01  2.82150E+01  3.20634E+01  4.25432E+01  5.47073E+01  6.67696E+01  7.67939E+01  8.24337E+01  8.48279E+01  8.75532E+01
   8.30139E+01  7.31102E+01  5.63617E+01  3.55449E+01  2.57418E+01  2.24084E+01  3.09142E+01  4.56542E+01  5.56936E+01  6.58002E+01
   7.07322E+01  7.51921E+01  7.94891E+01  8.33300E+01  8.68508E+01  9.14765E+01  9.50821E+01  9.60019E+01  9.58018E+01  9.44129E+01
   9.63727E+01  9.69790E+01  8.55176E+01  7.21174E+01  4.87383E+01  3.21528E+01  3.15583E+01  2.70190E+01  5.66584E+00 -4.18794E+01
  -7.62856E+01 -8.17109E+01 -6.95627E+01 -4.45987E+01 -3.01326E+01 -1.93098E+01 -1.03425E+01 -2.62051E+00  4.75542E+00  1.16876E+01
   1.80744E+01  2.44635E+01  3.09567E+01  3.83058E+01  4.64635E+01  5.67226E+01  6.81708E+01  7.63745E+01  1.01969E+02  1.39397E+02
   1.72149E+02  1.59048E+02  7.69526E+01  2.44481E-01 -4.31141E+01 -5.56402E+01 -4.23431E+01 -3.85936E+01 -3.72121E+01 -3.64386E+01
  -3.72745E+01 -3.86147E+01 -3.97028E+01 -4.01034E+01 -4.07896E+01 -4.12692E+01 -4.03199E+01 -3.84308E+01 -3.53829E+01 -3.18032E+01
  -2.82324E+01 -2.49100E+01 -2.22336E+01 -1.99078E+01 -1.67453E+01 -1.32346E+01 -1.10860E+01 -1.06025E+01 -1.02679E+01 -7.98209E+00
  -4.22624E+00 -1.21618E+00 -1.68745E+00 -4.47067E+00 -5.72034E+00 -4.11562E+00 -1.23472E-02  1.84609E+00 -1.35035E+00 -4.14653E+00
   2.20856E+00  2.01655E+01  3.70412E+01  3.74092E+01  2.54797E+01  2.04203E+01  2.92372E+01  4.28329E+01  4.36702E+01  2.84842E+01
   1.13429E+01 -9.78868E-01 -7.04086E+00 -9.82762E+00 -1.33406E+01 -1.55370E+01 -1.65621E+01 -1.71335E+01 -1.63660E+01 -1.36291E+01
  -1.20712E+01 -1.06689E+01 -8.87468E+00 -2.43425E+00  9.26414E+00  1.22049E+01  1.25995E+01  1.67133E+01  1.90222E+01  2.22387E+01
   1.97816E+01  1.96016E+01  2.73446E+01  3.27827E+01  3.43872E+01  2.97574E+01  2.22986E+01  1.46968E+01  4.14391E+00 -8.65792E+00
  -1.73629E+01 -2.61245E+01 -2.59048E+01 -1.69117E+01 -8.40404E-01  3.45165E+01  6.16971E+01  7.96566E+01  8.97455E+01  7.65583E+01
   6.29713E+01  5.03051E+01  4.16173E+01  4.24628E+01  4.42975E+01  4.61565E+01  4.67700E+01  4.39101E+01  3.82330E+01  2.85944E+01
   1.66853E+01  3.10311E+00 -1.09687E+01 -2.32151E+01 -3.60675E+01 -4.63480E+01 -5.37837E+01 -6.02195E+01 -6.29834E+01 -6.24305E+01
  -6.24299E+01 -5.70995E+01 -4.75591E+01 -3.77586E+01 -2.25008E+01 -1.31913E+01 -8.55217E+00 -7.26244E+00 -1.28203E+01 -1.64097E+01
  -3.06417E+01 -4.87652E+01 -4.32218E+01 -3.61333E+01 -4.76218E+01 -9.99740E+01 -1.34580E+02 -5.16440E+01  7.37076E+01  1.66072E+02
   2.06854E+02  1.86971E+02  1.66346E+02  1.55991E+02  1.46718E+02  1.39569E+02  1.33138E+02  1.27163E+02  1.21396E+02  1.16061E+02
   1.12388E+02  1.09832E+02  1.09125E+02  1.09099E+02  1.09305E+02  1.09657E+02  1.08639E+02  1.07396E+02  1.05890E+02  1.04284E+02
   1.02485E+02  9.97775E+01  9.67893E+01  9.37059E+01  9.09628E+01  8.79466E+01  8.46558E+01  8.15791E+01  7.82090E+01  7.47577E+01
   7.06620E+01  6.57144E+01  6.07204E+01  5.51313E+01  4.92327E+01  4.39695E+01  4.02483E+01  3.89990E+01  3.98761E+01  4.18461E+01
   4.41229E+01  4.66419E+01  4.95511E+01  5.26113E+01  5.56950E+01  5.84708E+01  6.07224E+01  6.28028E+01  6.51261E+01  6.81752E+01
   7.12621E+01  7.39180E+01  7.60677E+01  7.78763E+01  7.97696E+01  8.16238E+01  8.29786E+01  8.32457E+01  8.45459E+01  8.58253E+01
   8.52570E+01  8.06683E+01  6.58391E+01  4.84549E+01  3.10080E+01  1.63996E+01  1.34429E+01  1.19363E+01  8.24979E+00  1.95438E+00
  -8.87496E+00 -1.89972E+01 -2.79646E+01 -3.50304E+01 -3.90764E+01 -3.92122E+01 -3.58089E+01 -2.99290E+01 -2.33273E+01 -1.78757E+01
  -1.38763E+01 -1.24623E+01 -1.17018E+01 -1.00325E+01 -7.69183E+00 -2.75518E+00  2.41062E+00  6.19077E+00  9.02546E+00  1.01921E+01
   1.09336E+01  1.04868E+01  8.86156E+00  5.39762E+00 -1.56348E-02 -6.13310E+00 -1.18123E+01 -1.57285E+01 -1.76250E+01 -1.75418E+01
  -1.59212E+01 -1.30503E+01 -9.02765E+00 -4.34574E+00  7.34872E-01  5.59277E+00  1.01947E+01  1.44770E+01  1.85330E+01  2.27664E+01
   2.69014E+01  3.11046E+01  3.51237E+01  3.93143E+01  4.37393E+01  4.85296E+01  5.40209E+01  5.99089E+01  6.65233E+01  7.42557E+01
   8.25326E+01  9.09842E+01  9.99922E+01  1.10073E+02  1.20701E+02  1.31427E+02  1.40955E+02  1.47642E+02  1.49349E+02  1.44246E+02
   1.33292E+02  1.19043E+02  1.04836E+02  9.24466E+01  8.23812E+01  7.46623E+01  6.73383E+01  5.90638E+01  4.89928E+01  3.76194E+01
   2.56360E+01  1.42559E+01  5.17389E+00 -2.12234E+00 -7.65550E+00 -1.16355E+01 -1.44117E+01 -1.59130E+01 -1.69492E+01 -1.79331E+01
  -1.90164E+01 -1.99264E+01 -2.02154E+01 -2.02195E+01 -2.01521E+01 -2.00606E+01 -1.94552E+01 -1.88856E+01 -1.86683E+01 -1.88299E+01
  -1.85799E+01 -1.76921E+01 -1.72050E+01 -1.68090E+01 -1.65267E+01 -1.61126E+01 -1.56938E+01 -1.55686E+01 -1.54131E+01 -1.48287E+01
  -1.38509E+01 -1.31120E+01 -1.27505E+01 -1.27743E+01 -1.28739E+01 -1.28161E+01 -1.23165E+01 -1.17558E+01 -1.12048E+01 -1.05557E+01
  -1.01783E+01 -9.72062E+00 -9.13900E+00 -8.60089E+00 -8.39396E+00 -8.49181E+00 -8.69891E+00 -8.57980E+00 -7.99672E+00 -7.48918E+00
  -6.84986E+00 -6.56953E+00 -6.66342E+00 -6.56235E+00 -6.10218E+00 -5.57489E+00 -4.92568E+00 -4.46673E+00 -4.20780E+00 -3.80000E+00
  -3.31996E+00 -2.86407E+00 -2.67888E+00 -2.61311E+00 -2.64100E+00 -2.74219E+00 -2.57329E+00 -2.21158E+00 -1.16629E+00 -6.13116E-04
   7.97571E-01  8.71549E-01  4.74146E-01  2.35702E-01  3.74548E-01  8.51464E-01  1.29467E+00  1.72310E+00  2.18096E+00  2.23475E+00
 NY background values follow
     4.338E+01    4.340E+01    4.341E+01    4.342E+01    4.343E+01    4.344E+01    4.346E+01    4.347E+01    4.348E+01    4.350E+01
     4.351E+01    4.352E+01    4.354E+01    4.355E+01    4.356E+01    4.358E+01    4.359E+01    4.360E+01    4.362E+01    4.363E+01
     4.364E+01    4.366E+01    4.367E+01    4.368E+01    4.369E+01    4.370E+01    4.371E+01    4.372E+01    4.373E+01    4.374E+01
     4.375E+01    4.376E+01    4.377E+01    4.378E+01    4.378E+01    4.379E+01    4.379E+01    4.380E+01    4.380E+01    4.380E+01
     4.380E+01    4.380E+01    4.380E+01    4.380E+01    4.379E+01    4.378E+01    4.378E+01    4.377E+01    4.375E+01    4.374E+01
     4.372E+01    4.371E+01    4.369E+01    4.367E+01    4.364E+01    4.361E+01    4.359E+01    4.356E+01    4.352E+01    4.349E+01
     4.345E+01    4.341E+01    4.336E+01    4.331E+01    4.327E+01    4.321E+01    4.316E+01    4.311E+01    4.305E+01    4.299E+01
     4.293E+01    4.286E+01    4.280E+01    4.273E+01    4.266E+01    4.259E+01    4.252E+01    4.245E+01    4.237E+01    4.230E+01
     4.222E+01    4.215E+01    4.207E+01    4.199E+01    4.191E+01    4.183E+01    4.175E+01    4.167E+01    4.159E+01    4.151E+01
     4.142E+01    4.134E+01    4.126E+01    4.118E+01    4.110E+01    4.102E+01    4.094E+01    4.085E+01    4.077E+01    4.069E+01
     4.062E+01    4.054E+01    4.046E+01    4.038E+01    4.031E+01    4.023E+01    4.016E+01    4.008E+01    4.001E+01    3.994E+01
     3.987E+01    3.980E+01    3.974E+01    3.967E+01    3.961E+01    3.955E+01    3.949E+01    3.943E+01    3.937E+01    3.932E+01
     3.927E+01    3.922E+01    3.917E+01    3.913E+01    3.908E+01    3.904E+01    3.900E+01    3.896E+01    3.892E+01    3.889E+01
     3.885E+01    3.882E+01    3.879E+01    3.875E+01    3.872E+01    3.869E+01    3.866E+01    3.863E+01    3.860E+01    3.858E+01
     3.855E+01    3.852E+01    3.849E+01    3.846E+01    3.843E+01    3.841E+01    3.838E+01    3.835E+01    3.832E+01    3.829E+01
     3.826E+01    3.822E+01    3.819E+01    3.816E+01    3.812E+01    3.809E+01    3.805E+01    3.801E+01    3.797E+01    3.793E+01
     3.789E+01    3.785E+01    3.781E+01    3.777E+01    3.772E+01    3.768E+01    3.763E+01    3.759E+01    3.754E+01    3.749E+01
     3.744E+01    3.739E+01    3.734E+01    3.729E+01    3.724E+01    3.718E+01    3.713E+01    3.707E+01    3.702E+01    3.696E+01
     3.690E+01    3.684E+01    3.678E+01    3.672E+01    3.665E+01    3.659E+01    3.653E+01    3.646E+01    3.639E+01    3.633E+01
     3.626E+01    3.619E+01    3.612E+01    3.605E+01    3.598E+01    3.591E+01    3.583E+01    3.576E+01    3.568E+01    3.561E+01
     3.553E+01    3.546E+01    3.538E+01    3.530E+01    3.522E+01    3.514E+01    3.507E+01    3.498E+01    3.490E+01    3.482E+01
     3.474E+01    3.466E+01    3.457E+01    3.449E+01    3.440E+01    3.432E+01    3.423E+01    3.414E+01    3.404E+01    3.395E+01
     3.385E+01    3.375E+01    3.365E+01    3.354E+01    3.343E+01    3.332E+01    3.320E+01    3.308E+01    3.295E+01    3.282E+01
     3.269E+01    3.255E+01    3.241E+01    3.226E+01    3.211E+01    3.195E+01    3.178E+01    3.161E+01    3.143E+01    3.125E+01
     3.106E+01    3.086E+01    3.065E+01    3.044E+01    3.023E+01    3.000E+01    2.977E+01    2.953E+01    2.928E+01    2.903E+01
     2.877E+01    2.850E+01    2.822E+01    2.794E+01    2.764E+01    2.734E+01    2.704E+01    2.672E+01    2.640E+01    2.607E+01
     2.573E+01    2.538E+01    2.502E+01    2.465E+01    2.428E+01    2.390E+01    2.351E+01    2.311E+01    2.270E+01    2.228E+01
     2.186E+01    2.142E+01    2.098E+01    2.052E+01    2.006E+01    1.959E+01    1.912E+01    1.863E+01    1.814E+01    1.764E+01
     1.713E+01    1.662E+01    1.610E+01    1.557E+01    1.504E+01    1.450E+01    1.396E+01    1.341E+01    1.285E+01    1.229E+01
     1.173E+01    1.115E+01    1.058E+01    9.999E+00    9.415E+00    8.827E+00    8.235E+00    7.639E+00    7.040E+00    6.437E+00
     5.831E+00    5.223E+00    4.614E+00    4.003E+00    3.392E+00    2.781E+00    2.171E+00    1.564E+00    9.586E-01    3.569E-01
    -2.409E-01   -8.338E-01   -1.421E+00   -2.003E+00   -2.577E+00   -3.143E+00   -3.702E+00   -4.251E+00   -4.790E+00   -5.318E+00
    -5.835E+00   -6.341E+00   -6.833E+00   -7.312E+00   -7.776E+00   -8.226E+00   -8.660E+00   -9.078E+00   -9.478E+00   -9.860E+00
    -1.022E+01   -1.057E+01   -1.090E+01   -1.120E+01   -1.149E+01   -1.177E+01   -1.202E+01   -1.226E+01   -1.247E+01   -1.267E+01
    -1.286E+01   -1.302E+01   -1.317E+01   -1.330E+01   -1.342E+01   -1.351E+01   -1.359E+01   -1.366E+01   -1.371E+01   -1.374E+01
    -1.375E+01   -1.375E+01   -1.374E+01   -1.371E+01   -1.366E+01   -1.360E+01   -1.352E+01   -1.343E+01   -1.332E+01   -1.319E+01
    -1.306E+01   -1.291E+01   -1.274E+01   -1.256E+01   -1.237E+01   -1.217E+01   -1.195E+01   -1.173E+01   -1.149E+01   -1.124E+01
    -1.099E+01   -1.072E+01   -1.045E+01   -1.017E+01   -9.879E+00   -9.584E+00   -9.283E+00   -8.975E+00   -8.663E+00   -8.346E+00
    -8.025E+00   -7.700E+00   -7.372E+00   -7.042E+00   -6.710E+00   -6.376E+00   -6.041E+00   -5.706E+00   -5.372E+00   -5.037E+00
    -4.704E+00   -4.373E+00   -4.043E+00   -3.716E+00   -3.390E+00   -3.067E+00   -2.747E+00   -2.430E+00   -2.116E+00   -1.805E+00
    -1.498E+00   -1.195E+00   -8.965E-01   -6.022E-01   -3.126E-01   -2.783E-02    2.518E-01    5.260E-01    7.945E-01    1.057E+00
     1.314E+00    1.564E+00    1.808E+00    2.044E+00    2.274E+00    2.496E+00    2.711E+00    2.918E+00    3.117E+00    3.307E+00
     3.490E+00    3.663E+00    3.829E+00    3.987E+00    4.137E+00    4.279E+00    4.414E+00    4.543E+00    4.664E+00    4.779E+00
     4.888E+00    4.991E+00    5.088E+00    5.179E+00    5.265E+00    5.345E+00    5.421E+00    5.492E+00    5.559E+00    5.621E+00
     5.680E+00    5.734E+00    5.785E+00    5.833E+00    5.878E+00    5.920E+00    5.959E+00    5.996E+00    6.030E+00    6.063E+00
     6.094E+00    6.124E+00    6.152E+00    6.178E+00    6.203E+00    6.226E+00    6.249E+00    6.269E+00    6.289E+00    6.308E+00
     6.325E+00    6.342E+00    6.357E+00    6.372E+00    6.385E+00    6.398E+00    6.410E+00    6.422E+00    6.433E+00    6.443E+00
     6.453E+00    6.462E+00    6.471E+00    6.480E+00    6.488E+00    6.497E+00    6.505E+00    6.513E+00    6.521E+00    6.529E+00
 Mac      Conc. = 3.63E-04
   1.86629E+01  1.76827E+01  1.68507E+01  1.64870E+01  1.64548E+01  1.63190E+01  1.55032E+01  1.38238E+01  1.14055E+01  8.86001E+00
   6.77421E+00  5.45502E+00  5.03620E+00  5.27187E+00  5.85245E+00  4.69615E+00  1.55458E+00 -1.55003E+00 -1.75240E+00  2.53180E+00
   8.07343E+00  1.37193E+01  1.93701E+01  2.36423E+01  2.67430E+01  2.84250E+01  2.93745E+01  3.07837E+01  3.29527E+01  3.57330E+01
   3.83010E+01  4.04018E+01  4.23211E+01  4.39036E+01  4.48231E+01  4.44237E+01  4.31728E+01  4.28322E+01  4.47366E+01  4.83851E+01
   5.16198E+01  5.26704E+01  5.21586E+01  5.17386E+01  5.24569E+01  5.44990E+01  5.64236E+01  5.74699E+01  5.75260E+01  5.65740E+01
   5.50941E+01  5.31179E+01  5.13319E+01  4.99904E+01  4.90092E+01  4.81808E+01  4.74221E+01  4.73831E+01  4.83167E+01  4.98552E+01
   5.13350E+01  5.32405E+01  5.54494E+01  5.66636E+01  5.69569E+01  5.59292E+01  5.44262E+01  5.36223E+01  5.27389E+01  5.15429E+01
   5.04206E+01  5.08383E+01  5.36196E+01  5.70464E+01  6.01236E+01  6.20336E+01  6.26602E+01  6.25775E+01  6.16709E+01  6.04937E+01
   5.95997E+01  5.86421E+01  5.78791E+01  5.71814E+01  5.72257E+01  5.78465E+01  5.86432E+01  5.97794E+01  6.07567E+01  6.15647E+01
   6.22546E+01  6.26422E+01  6.31142E+01  6.34859E+01  6.37506E+01  6.34439E+01  6.19519E+01  5.93990E+01  5.60331E+01  5.23222E+01
   4.93019E+01  4.69621E+01  4.46213E+01  4.19120E+01  3.89068E+01  3.46861E+01  2.82429E+01  1.93361E+01  9.66939E+00  2.30130E+00
