 
 $NMID
 ID=''
 FMTDAT='(2E13.5)'
 TRAMP=   1.00000E+0
 VOLUME=   1.00000E+0
 $END
  -7.40885E+3   1.80338E+4
   9.70377E+3   3.58762E+4
   3.96329E+4  -5.48708E+3
   9.67251E+3  -4.05784E+4
  -3.68353E+4  -1.06130E+4
  -2.31527E+4   2.79982E+4
   2.07784E+4   1.84368E+4
   2.69683E+4  -1.25119E+4
  -2.53277E+3  -2.07829E+4
  -2.12827E+4  -2.12458E+3
  -8.69734E+3   1.74748E+4
   1.23323E+4   1.18329E+4
   1.15509E+4  -6.56391E+3
  -4.97932E+3  -1.04420E+4
  -1.11871E+4  -1.02211E+3
  -2.55814E+3   5.87776E+3
   6.26069E+3   4.73516E+3
   5.73980E+3  -2.22949E+3
  -4.80811E+2  -6.17792E+3
  -4.13242E+3  -1.29599E+3
  -3.04815E+3   4.16234E+3
   1.91292E+3   2.02789E+3
   5.45960E+3  -7.06985E+2
   1.31815E+3  -1.58558E+3
  -4.27086E+3  -1.99840E+3
  -1.55781E+3  -1.01715E+2
   3.65814E+3   3.14011E+3
   1.93977E+3   2.11506E+3
  -1.99564E+3  -2.66908E+3
  -7.82733E+2  -2.98237E+3
   6.17842E+2   1.78961E+3
   6.25677E+1   3.39534E+3
  -4.05061E+2  -3.80503E+2
  -5.31692E+2  -2.28996E+3
  -1.36933E+3  -1.36634E+3
  -1.34059E+2   1.36503E+2
   1.59881E+3   1.06916E+3
   1.36315E+3   4.95022E+2
  -6.61699E+1  -5.65427E+2
  -1.10901E+3  -6.55609E+2
  -9.14055E+2   7.64042E+2
  -2.33607E+2   6.50890E+2
   5.49723E+2  -1.08589E+3
   4.68662E+2  -1.59595E+3
   3.54484E+2  -6.26580E+2
   4.96940E+2   1.34182E+3
   7.99864E+1   1.96322E+3
  -1.10824E+3   8.20105E+2
  -1.30787E+3  -7.59992E+2
  -6.57682E+2  -1.00145E+3
  -4.85313E+2  -3.49133E+2
   4.97610E+1  -1.84583E+2
   5.81648E+2  -2.58076E+2
   6.72606E+2   6.05825E+1
   9.17205E+1   6.33645E+2
  -5.07191E+2   5.54161E+2
  -9.16711E+2   6.23904E+2
  -7.93521E+2  -2.08602E+1
   3.08383E+2  -1.07995E+3
   7.30412E+2  -5.29203E+2
   8.09510E+2   5.13638E+2
   4.24678E+2   6.14073E+2
   4.29912E+2   1.00128E+3
  -2.00781E+2   1.34362E+3
  -1.11857E+3   5.93428E+2
  -1.27936E+3  -8.07097E+2
  -3.02610E+2  -1.15133E+3
   4.76222E+2  -6.27363E+2
   7.24912E+2   1.91261E+2
   4.51460E+2   3.56626E+2
  -7.80133E+1  -1.29291E+2
  -3.87002E+1  -6.78420E+2
   5.96364E+2  -5.13012E+1
   5.56473E+2   1.06590E+3
   9.55105E+1   5.01675E+2
  -2.30333E+2  -5.37831E+2
   1.42982E+1  -1.17201E+2
   3.30206E+2   5.35275E+2
   9.66714E+1   3.98306E+2
  -4.23148E+2  -1.70386E+2
  -4.96395E+2  -4.55324E+2
  -1.37559E+2  -4.99803E+2
   1.04273E+2  -1.77095E+2
   7.79030E+1  -9.01452E+1
  -8.30911E+1  -3.55687E+2
   2.60913E+2  -5.09920E+2
   5.34778E+2  -4.79479E+2
   3.17577E+2  -5.92909E+1
  -1.43376E+2  -9.60138E+1
   2.94071E+1  -2.45854E+2
   6.56214E+2  -1.81270E+1
   2.14214E+2   2.73435E+2
  -3.87943E+2   4.69821E+2
  -5.92991E+2   3.61941E+2
  -6.63698E+2  -3.06045E+2
  -6.23705E+1  -1.03403E+3
   9.27476E+1  -3.33364E+2
  -3.47628E+2   2.65189E+2
  -3.80364E+2  -4.03273E+2
   3.14499E+2  -4.00816E+2
   6.31972E+2   6.09070E+1
  -8.32254E+1   6.34278E+2
  -5.96600E+2   2.25124E+2
  -5.52625E+2  -5.16850E+2
   1.96212E+2  -4.90525E+2
   2.96822E+2   4.86760E+2
   6.82246E+1   7.98531E+2
  -8.42663E+2   4.07100E+2
  -6.90766E+2  -6.93563E+2
   2.30935E+2  -8.98900E+2
   9.52324E+2  -2.49682E+2
   4.00103E+2   6.71388E+2
   1.47078E+2   5.52644E+2
   5.15672E+1   5.70715E+2
   2.01606E+2   3.60433E+2
   2.73184E+1   3.95173E+2
  -7.61316E+2   5.00171E+2
  -8.51349E+2  -4.70478E+2
  -7.70315E+1  -7.35566E+2
   3.04215E+2  -4.58199E+2
   6.74856E+2   3.15973E+1
   5.95971E+2   8.16450E+1
   4.28020E+2   3.69133E+2
  -5.95433E+1   3.35887E+2
  -4.46383E+2   3.90978E+2
  -2.22889E+2  -1.49166E+2
   2.62809E+1  -2.67854E+2
   6.14941E+1   1.75270E+2
   1.50516E+2   1.85340E+2
   5.69154E+2   3.65083E+2
  -2.10556E+2   4.85824E+2
  -6.32481E+2  -1.01791E+2
  -3.06318E+1  -6.35698E+2
   2.79597E+2   3.09804E+2
   1.15466E+2   5.41291E+1
   1.34731E+1  -8.05824E+1
   3.76385E+2  -2.82582E+2
   5.95276E+2   2.51669E+2
   1.99990E+1   6.97270E+2
  -5.99624E+1   1.75708E+2
  -1.62107E+2  -1.24596E+2
   9.98777E+1  -3.73693E+2
   6.38827E+2   3.51579E+1
   3.00996E+2   4.37418E+2
   9.83360E+1   3.94293E+2
  -3.08335E+2   2.03006E+2
  -5.88368E+1  -9.82441E+1
  -2.69290E+0  -1.24207E+2
  -1.02448E+2   6.60399E+1
  -1.29393E+2  -4.18440E+2
   3.08057E+2  -4.52494E+2
   3.25277E+2  -4.40541E+2
   6.38070E+2   1.71490E+2
  -7.17633E+1   3.57384E+2
   2.13307E+0   1.07514E+2
   1.61179E+2  -5.24585E+1
   3.30910E+2   3.01412E+2
   4.21500E+0   1.43872E+2
  -1.91676E+1   2.24372E+2
   1.88716E+2   9.32880E+1
  -3.43115E+1   1.56519E+2
  -4.79192E+1   1.11715E+1
  -1.58862E+2   1.99305E+2
  -2.39278E+2  -3.69765E+2
   3.10986E+2  -4.36353E+2
   2.01297E+2  -3.31479E+2
   4.29521E+2  -8.00503E+1
  -1.10124E+2   2.07220E+2
   2.70611E+0   9.55319E+1
   2.11266E+2  -2.90482E+2
   1.43578E+2   1.22702E+2
   4.45332E+1   3.22982E+2
  -1.97867E+2   9.20415E+1
  -1.83290E+2  -2.09429E+2
  -3.06450E+1  -1.58496E+1
   2.25686E+1   1.43709E+2
  -1.98454E+2   7.62365E+0
  -1.31611E+2  -7.58629E+1
   1.05317E+2  -5.56179E+2
   2.49879E+2  -1.23501E+2
   2.32524E+2   1.54074E+2
  -2.18418E+2   3.01866E+2
  -2.90637E+2   1.32134E+2
  -3.77974E+2  -7.07849E+1
  -2.21072E+2  -3.49632E+2
  -4.48083E+1   5.97694E+1
  -2.07115E+2  -1.22221E+2
  -5.74641E+1  -3.66388E+2
   3.94954E+2  -1.89854E+2
   4.43744E+2   1.99226E+2
   7.33890E+1   6.25880E+2
  -4.63424E+2   3.56640E+2
  -3.25293E+2  -3.94806E+2
  -8.29362E-1  -2.80859E+2
   1.67977E+2  -1.48812E+2
  -8.60671E+1  -2.23353E+2
   1.40215E+2   2.01999E+2
   1.00594E+2  -9.12198E-1
  -3.28596E+1   2.11693E+2
  -1.52398E+2   1.84136E+2
  -3.52474E+2   1.37854E+2
  -2.32986E+2  -4.99740E+2
   2.46616E+2  -1.94677E+2
   3.68336E+2  -1.53698E+2
   5.27919E+1   7.04093E+1
  -2.14226E+2   9.69884E+1
  -1.53317E+2   5.19393E+1
   6.43421E+1   7.05495E+1
  -1.13515E+2   3.36378E+2
  -1.80658E+2   3.18384E+0
  -1.20903E+2  -2.83424E+2
   3.34843E+2  -3.14309E+2
   8.91324E+1   2.17755E+2
  -9.10493E+1   4.93819E+2
  -3.06798E+2   3.88685E+1
  -3.12303E+2  -2.23721E+2
  -6.58856E-1  -3.66157E+2
   5.47574E+1  -2.12289E+2
   8.23056E+1   1.31825E+2
   1.44816E+2   1.58785E+2
   1.20823E+2  -6.96449E+1
   8.14486E+1  -2.52327E+2
  -1.18768E+2   2.96911E+2
  -2.73838E+2   2.11503E+2
  -2.39884E+2  -1.00582E+2
  -2.06544E+2  -2.98544E+2
   6.69772E+1  -1.62270E+2
  -2.04265E+2   1.02644E+2
  -7.32935E+1   1.06755E+2
  -5.01892E+1  -1.30549E+2
   1.02323E+2  -1.80140E+2
  -4.90902E+1  -7.98924E+1
  -9.31771E+1  -7.58588E+1
  -1.53488E+2  -4.67660E+1
   2.07482E+2  -2.95857E+2
   8.43155E+0   9.64661E+1
  -2.35796E+2   4.65671E+1
  -1.38138E+2   7.36637E+1
  -4.97063E+1  -2.78067E+2
  -2.41680E+2  -1.18626E+2
   2.17358E+2  -1.19074E+2
   8.67607E+1   5.01233E+1
  -7.95437E+1   2.17069E+2
  -2.95706E+2  -1.86936E+2
  -1.88777E+2  -2.07578E+2
   1.14800E+1   1.04261E+2
  -6.34766E+1   1.61397E+2
  -8.68663E+1  -4.41496E+1
   1.92845E+2  -2.85050E+2
   3.74576E+1   1.95556E+2
   1.21336E+2   2.65470E+2
  -1.99259E+2   8.71774E+0
  -1.50458E+2  -3.10666E+2
   1.31645E+1  -3.42137E+2
   1.88757E+2  -7.18328E+1
   3.86779E+1   4.19655E+1
  -1.32711E+2   6.67410E+1
  -1.20813E+1  -1.35175E+2
   1.87039E+2   3.08764E+2
  -3.60111E+2   6.55488E+0
  -2.77646E+2  -6.55341E+1
  -9.00931E+1   6.03274E+0
  -2.01679E+2  -2.25766E+2
   4.25939E+1  -5.05420E+1
   3.83844E+2   1.77755E+2
  -4.92320E+1   4.73982E+2
  -5.19354E+1   1.13682E+2
  -1.01950E+2   4.48222E+1
   7.92233E+1  -1.03889E+2
  -1.69028E+2  -2.36512E+2
  -1.75147E+1  -6.33304E+1
   5.41367E+1   5.21083E+1
   3.64233E+1  -2.32181E+2
  -1.07583E+1   2.63067E+2
  -1.95112E+2   1.18008E+2
  -2.51754E+2  -1.48398E+2
  -1.39163E+2  -1.67605E+2
   1.38066E+2  -8.44214E+1
   9.04275E+1   3.14768E+1
   6.98245E+1   1.18169E+2
  -4.54736E+1   1.18621E+2
   2.67093E+1  -2.34504E+2
  -2.44131E+1   1.40417E+2
  -1.07218E+2   7.86554E+0
  -2.61351E+1   4.72788E+1
  -1.63902E+2  -2.40140E+1
   2.30653E+2  -1.43725E+2
   3.02085E+2   8.72922E+1
   8.78313E+1   1.98345E+2
  -1.14228E+2   2.31360E+2
  -1.23238E+2   7.75610E+1
  -1.75579E+1   6.51321E+1
   6.69239E+1  -1.35728E+2
   7.60805E+1  -1.20681E+2
   6.92439E+1  -1.47681E+2
   1.21575E+2  -9.93208E+1
   8.11246E+1   2.89689E+2
   9.27642E+1   2.14860E+2
  -1.74727E+2  -5.83138E+1
   2.17196E+1   1.52920E+2
  -1.03558E+2  -3.35246E+2
   1.76225E+2   5.53854E+1
   1.19025E+2   1.19046E+2
  -1.38376E+2  -1.27270E+2
  -2.22040E+2  -1.37038E+1
  -1.02537E+2  -3.04704E+1
   2.76535E+1   8.34051E+1
   1.66107E+2  -1.41268E+2
   1.47029E+2  -2.10315E+2
   4.12429E+1   1.12175E+2
   1.32353E+2   2.02935E+1
   1.02728E+2   1.93869E+1
   2.30930E+1  -8.53479E+1
   9.36957E+1  -5.10487E+1
   2.08449E+2  -4.45700E+1
   2.17615E+2   9.65706E+0
   1.73300E+2   1.35401E+2
   1.01320E+2  -2.57653E+2
   1.15076E+1   8.44975E+1
  -1.71351E+2   1.95084E+1
  -7.22294E+1  -1.48602E+1
   4.34575E+1   9.54518E+1
  -2.34833E+1   9.48847E+0
   1.21017E+2  -1.94192E+2
   3.64210E+2  -1.78265E+1
  -6.39486E+0   3.80729E+1
  -2.29777E+1   1.43248E+2
  -4.66079E+1   4.78293E+1
   1.60832E+2  -3.67812E+1
  -5.37302E+1  -2.64712E+2
   1.21734E+2   3.16526E+2
  -1.01970E+2  -1.03245E+2
   9.39237E+1  -9.22670E+1
   2.72104E+2  -5.88322E-1
  -1.58131E+2   5.69116E+1
   8.87245E-1   1.55737E+2
  -2.48031E+0   8.76981E+0
  -2.74502E+2  -6.10381E+1
   2.49670E+2  -1.98621E+2
   2.15882E+2   2.19848E+2
   2.66798E+2   1.75936E+2
   1.64799E+2  -5.84572E+1
  -9.95762E+1  -2.36449E+1
  -5.68580E+0  -2.43856E+1
   7.79684E+1  -1.13420E+2
   7.48872E+1  -1.39648E+2
   1.34486E+2   9.74514E+1
   3.58479E+2  -1.04311E+2
   5.93412E+1   1.77255E+1
   1.06284E+1   8.56244E+1
  -8.73924E+1  -9.77832E+1
  -2.22703E+2   2.14966E+0
   5.50150E+1  -1.39020E+2
   2.04626E+2   1.47593E+2
  -1.18336E+1  -1.25406E+2
   1.55803E+1  -8.64386E+1
   2.50408E+2   1.60606E+1
   1.53184E+2   1.17911E+2
  -3.02219E+2  -9.19355E+1
   7.53226E+1  -8.23083E+1
  -1.66027E+2   8.80350E+1
  -4.04061E+1  -4.62775E+2
   1.66857E+2  -9.03686E+1
   2.96265E+1   1.25382E+2
  -1.37035E+2   1.44753E+2
   2.80938E+1   6.57722E+0
   3.23116E+1   3.13644E+1
