 
 $NMID
 ID=''
 FMTDAT='(2E13.5)'
 TRAMP=   1.00000E+0
 VOLUME=   1.00000E+0
 $END
   2.51960E+5   6.67004E+5
   5.35997E+4   1.86338E+6
   2.66562E+5   1.75795E+6
   7.77559E+4   1.63818E+6
  -3.68696E+4   1.76244E+6
   1.96799E+3   1.75285E+6
  -4.97210E+4   1.67207E+6
  -1.10920E+5   1.68108E+6
  -1.32707E+5   1.65578E+6
  -1.94841E+5   1.64554E+6
  -2.08808E+5   1.66413E+6
  -2.09232E+5   1.60861E+6
  -2.72950E+5   1.56714E+6
  -3.05992E+5   1.58214E+6
  -3.08510E+5   1.56022E+6
  -3.38381E+5   1.52786E+6
  -3.65992E+5   1.51849E+6
  -3.99498E+5   1.48300E+6
  -4.54298E+5   1.45784E+6
  -4.80400E+5   1.44949E+6
  -5.03245E+5   1.41195E+6
  -5.44729E+5   1.38054E+6
  -5.70730E+5   1.36372E+6
  -5.95294E+5   1.33269E+6
  -6.28558E+5   1.30374E+6
  -6.39320E+5   1.28584E+6
  -6.54437E+5   1.25737E+6
  -6.77754E+5   1.23504E+6
  -6.90753E+5   1.21345E+6
  -7.04354E+5   1.18428E+6
  -7.31284E+5   1.15928E+6
  -7.48049E+5   1.13278E+6
  -7.66747E+5   1.09887E+6
  -7.88993E+5   1.07177E+6
  -8.06245E+5   1.04312E+6
  -8.25155E+5   1.00970E+6
  -8.47455E+5   9.81554E+5
  -8.63723E+5   9.51632E+5
  -8.76826E+5   9.18028E+5
  -8.90135E+5   8.91813E+5
  -8.99008E+5   8.65674E+5
  -9.08011E+5   8.36292E+5
  -9.14537E+5   8.10475E+5
  -9.20690E+5   7.86392E+5
  -9.28096E+5   7.59867E+5
  -9.36518E+5   7.34505E+5
  -9.43059E+5   7.05979E+5
  -9.51894E+5   6.74608E+5
  -9.58984E+5   6.43663E+5
  -9.64522E+5   6.14050E+5
  -9.70995E+5   5.83525E+5
  -9.77327E+5   5.53587E+5
  -9.82361E+5   5.24179E+5
  -9.86986E+5   4.94810E+5
  -9.89589E+5   4.65776E+5
  -9.91626E+5   4.37246E+5
  -9.92750E+5   4.09309E+5
  -9.92227E+5   3.83159E+5
  -9.89934E+5   3.57835E+5
  -9.89356E+5   3.32590E+5
  -9.88545E+5   3.06076E+5
  -9.86453E+5   2.79952E+5
  -9.84415E+5   2.54230E+5
  -9.81596E+5   2.27117E+5
  -9.77423E+5   1.98678E+5
  -9.71997E+5   1.72201E+5
  -9.66161E+5   1.46779E+5
  -9.60742E+5   1.21418E+5
  -9.54865E+5   9.62697E+4
  -9.48509E+5   7.17956E+4
  -9.40957E+5   4.75471E+4
  -9.32597E+5   2.44998E+4
  -9.24979E+5   3.32128E+3
  -9.16796E+5  -1.92528E+4
  -9.07185E+5  -4.18555E+4
  -8.97226E+5  -6.32836E+4
  -8.87544E+5  -8.42951E+4
  -8.77321E+5  -1.06130E+5
  -8.65964E+5  -1.27757E+5
  -8.53897E+5  -1.49489E+5
  -8.41830E+5  -1.70268E+5
  -8.29630E+5  -1.90302E+5
  -8.16633E+5  -2.09103E+5
  -8.03037E+5  -2.27958E+5
  -7.89241E+5  -2.46783E+5
  -7.75357E+5  -2.63809E+5
  -7.61693E+5  -2.79655E+5
  -7.47470E+5  -2.95106E+5
  -7.32831E+5  -3.10151E+5
  -7.18462E+5  -3.23996E+5
  -7.03836E+5  -3.37625E+5
  -6.89098E+5  -3.50849E+5
  -6.74072E+5  -3.65050E+5
  -6.57825E+5  -3.77832E+5
  -6.41708E+5  -3.89659E+5
  -6.25397E+5  -4.01725E+5
  -6.09814E+5  -4.13461E+5
  -5.93310E+5  -4.24892E+5
  -5.76611E+5  -4.35313E+5
  -5.60324E+5  -4.44475E+5
  -5.44239E+5  -4.53908E+5
  -5.28084E+5  -4.62730E+5
  -5.11120E+5  -4.71121E+5
  -4.94401E+5  -4.77601E+5
  -4.78646E+5  -4.83889E+5
  -4.63246E+5  -4.90023E+5
  -4.47249E+5  -4.96005E+5
  -4.30485E+5  -5.01729E+5
  -4.13833E+5  -5.06630E+5
  -3.97966E+5  -5.10445E+5
  -3.82373E+5  -5.14406E+5
  -3.66155E+5  -5.18773E+5
  -3.49856E+5  -5.23200E+5
  -3.33209E+5  -5.26478E+5
  -3.17309E+5  -5.29201E+5
  -3.01094E+5  -5.31821E+5
  -2.85090E+5  -5.33903E+5
  -2.68886E+5  -5.35325E+5
  -2.53428E+5  -5.35875E+5
  -2.38725E+5  -5.36063E+5
  -2.24300E+5  -5.36450E+5
  -2.09402E+5  -5.37032E+5
  -1.94707E+5  -5.36642E+5
  -1.80026E+5  -5.36429E+5
  -1.65391E+5  -5.35303E+5
  -1.50570E+5  -5.33791E+5
  -1.36638E+5  -5.31500E+5
  -1.22765E+5  -5.29815E+5
  -1.08849E+5  -5.27438E+5
  -9.52595E+4  -5.25007E+5
  -8.10733E+4  -5.22142E+5
  -6.69198E+4  -5.18673E+5
  -5.37057E+4  -5.15052E+5
  -4.08219E+4  -5.11200E+5
  -2.81072E+4  -5.07043E+5
  -1.52198E+4  -5.02585E+5
  -3.24133E+3  -4.97602E+5
   8.57525E+3  -4.92758E+5
   2.06184E+4  -4.87626E+5
   3.27641E+4  -4.81887E+5
   4.40083E+4  -4.75989E+5
   5.45910E+4  -4.69678E+5
   6.49882E+4  -4.63457E+5
   7.54756E+4  -4.57138E+5
   8.54027E+4  -4.50844E+5
   9.53196E+4  -4.43860E+5
   1.04562E+5  -4.36695E+5
   1.13834E+5  -4.29072E+5
   1.22888E+5  -4.21710E+5
   1.30695E+5  -4.14162E+5
   1.38670E+5  -4.06253E+5
   1.46233E+5  -3.98754E+5
   1.53468E+5  -3.90828E+5
   1.60657E+5  -3.83297E+5
   1.67725E+5  -3.75517E+5
   1.74222E+5  -3.67280E+5
   1.80319E+5  -3.59238E+5
   1.86181E+5  -3.51241E+5
   1.92173E+5  -3.42969E+5
   1.97276E+5  -3.34834E+5
   2.02356E+5  -3.26712E+5
   2.07172E+5  -3.18488E+5
   2.12102E+5  -3.10060E+5
   2.16209E+5  -3.01518E+5
   2.20381E+5  -2.93261E+5
   2.24013E+5  -2.85449E+5
   2.27763E+5  -2.77070E+5
   2.31280E+5  -2.69346E+5
   2.34212E+5  -2.61153E+5
   2.36668E+5  -2.53457E+5
   2.39403E+5  -2.45457E+5
   2.41501E+5  -2.37535E+5
   2.43899E+5  -2.29963E+5
   2.45576E+5  -2.22094E+5
   2.47516E+5  -2.14174E+5
   2.49249E+5  -2.06594E+5
   2.50682E+5  -1.99181E+5
   2.52068E+5  -1.90680E+5
   2.53085E+5  -1.83010E+5
   2.53472E+5  -1.75761E+5
   2.54368E+5  -1.68690E+5
   2.55066E+5  -1.61017E+5
   2.55553E+5  -1.53612E+5
   2.55563E+5  -1.46222E+5
   2.55480E+5  -1.38960E+5
   2.55311E+5  -1.31791E+5
   2.54708E+5  -1.24678E+5
   2.54267E+5  -1.18130E+5
   2.53483E+5  -1.11404E+5
   2.52519E+5  -1.05215E+5
   2.51926E+5  -9.84916E+4
   2.51054E+5  -9.16681E+4
   2.49796E+5  -8.47365E+4
   2.48090E+5  -7.82116E+4
   2.46768E+5  -7.19064E+4
   2.44943E+5  -6.54431E+4
   2.43234E+5  -5.92606E+4
   2.41479E+5  -5.30100E+4
   2.39485E+5  -4.68255E+4
   2.37712E+5  -4.04648E+4
   2.35052E+5  -3.42938E+4
   2.32593E+5  -2.83744E+4
   2.29973E+5  -2.28536E+4
   2.27383E+5  -1.72255E+4
   2.24931E+5  -1.18889E+4
   2.21946E+5  -6.32787E+3
   2.18879E+5  -1.03738E+3
   2.16093E+5   4.26539E+3
   2.12846E+5   9.18636E+3
   2.09482E+5   1.45452E+4
   2.06146E+5   1.93575E+4
   2.02690E+5   2.38951E+4
   1.99469E+5   2.82902E+4
   1.95925E+5   3.26980E+4
   1.92316E+5   3.71898E+4
   1.88544E+5   4.16133E+4
   1.84789E+5   4.55890E+4
   1.80688E+5   4.95413E+4
   1.77194E+5   5.29526E+4
   1.73220E+5   5.65538E+4
   1.69492E+5   6.01052E+4
   1.65377E+5   6.31804E+4
   1.61614E+5   6.63453E+4
   1.57736E+5   6.94655E+4
   1.53610E+5   7.24702E+4
   1.49523E+5   7.50566E+4
   1.45757E+5   7.74530E+4
   1.41952E+5   8.01678E+4
   1.37948E+5   8.28731E+4
   1.33842E+5   8.47799E+4
   1.30008E+5   8.69717E+4
   1.26098E+5   8.88570E+4
   1.22268E+5   9.08117E+4
   1.18319E+5   9.22188E+4
   1.14601E+5   9.38228E+4
   1.10884E+5   9.52537E+4
   1.06947E+5   9.69701E+4
   1.03109E+5   9.80325E+4
   9.95543E+4   9.90149E+4
   9.57246E+4   1.00365E+5
   9.22799E+4   1.00869E+5
   8.89772E+4   1.01846E+5
   8.54010E+4   1.02671E+5
   8.15586E+4   1.03600E+5
   7.79973E+4   1.04015E+5
   7.49652E+4   1.04238E+5
   7.13715E+4   1.04993E+5
   6.80383E+4   1.05396E+5
   6.45702E+4   1.05653E+5
   6.15360E+4   1.05787E+5
   5.82443E+4   1.05876E+5
   5.50125E+4   1.05891E+5
   5.20133E+4   1.05810E+5
   4.93151E+4   1.05832E+5
   4.60255E+4   1.05550E+5
   4.32233E+4   1.05274E+5
   4.02140E+4   1.04988E+5
   3.74545E+4   1.04667E+5
   3.44438E+4   1.04177E+5
   3.15483E+4   1.03914E+5
   2.88910E+4   1.03638E+5
   2.60197E+4   1.02851E+5
   2.32602E+4   1.02319E+5
   2.07568E+4   1.01238E+5
   1.83291E+4   1.00698E+5
   1.56638E+4   9.98211E+4
   1.31711E+4   9.89414E+4
   1.08887E+4   9.80925E+4
   8.52778E+3   9.70643E+4
   6.36310E+3   9.58631E+4
   3.91427E+3   9.48616E+4
   1.97323E+3   9.37992E+4
  -3.16430E+2   9.24265E+4
  -2.21952E+3   9.14058E+4
  -4.50759E+3   9.01881E+4
  -6.45290E+3   8.87994E+4
  -8.64618E+3   8.76722E+4
  -1.04067E+4   8.63806E+4
  -1.20107E+4   8.47670E+4
  -1.36764E+4   8.32324E+4
  -1.53816E+4   8.19554E+4
  -1.73572E+4   8.02681E+4
  -1.88036E+4   7.88889E+4
  -2.01903E+4   7.73949E+4
  -2.17364E+4   7.59977E+4
  -2.32082E+4   7.42507E+4
  -2.46413E+4   7.26469E+4
  -2.60206E+4   7.12214E+4
  -2.73164E+4   6.95999E+4
  -2.85566E+4   6.80008E+4
  -2.94583E+4   6.64569E+4
  -3.05121E+4   6.49952E+4
  -3.17311E+4   6.30849E+4
  -3.29572E+4   6.15153E+4
  -3.36745E+4   6.00790E+4
  -3.47069E+4   5.83831E+4
  -3.54282E+4   5.68109E+4
  -3.63918E+4   5.50824E+4
  -3.70693E+4   5.33560E+4
  -3.77855E+4   5.21051E+4
  -3.85536E+4   5.05430E+4
  -3.92597E+4   4.87932E+4
  -3.98117E+4   4.73417E+4
  -4.00724E+4   4.57125E+4
  -4.07754E+4   4.41136E+4
  -4.12522E+4   4.24562E+4
  -4.18786E+4   4.10469E+4
  -4.20237E+4   3.95103E+4
  -4.22652E+4   3.78523E+4
  -4.26317E+4   3.63398E+4
  -4.29401E+4   3.49314E+4
  -4.27771E+4   3.32568E+4
  -4.31978E+4   3.16303E+4
  -4.32642E+4   3.03521E+4
  -4.32298E+4   2.88573E+4
  -4.31533E+4   2.73691E+4
  -4.32637E+4   2.59102E+4
  -4.33197E+4   2.44885E+4
  -4.30902E+4   2.30546E+4
  -4.30218E+4   2.17678E+4
  -4.28881E+4   1.99822E+4
  -4.28921E+4   1.89364E+4
  -4.27287E+4   1.75174E+4
  -4.21633E+4   1.63629E+4
  -4.20120E+4   1.48087E+4
  -4.16065E+4   1.33820E+4
  -4.13970E+4   1.21380E+4
  -4.10819E+4   1.09304E+4
  -4.08113E+4   9.67427E+3
  -4.03483E+4   8.38605E+3
  -3.98683E+4   6.93239E+3
  -3.94216E+4   6.02646E+3
  -3.90005E+4   4.86663E+3
  -3.83942E+4   3.45852E+3
  -3.79660E+4   2.29743E+3
  -3.75036E+4   1.55991E+3
  -3.67352E+4   1.54859E+2
  -3.64464E+4  -6.33654E+2
  -3.54872E+4  -1.65914E+3
  -3.51465E+4  -3.03195E+3
  -3.42815E+4  -3.56572E+3
  -3.36957E+4  -4.62387E+3
  -3.32750E+4  -5.36105E+3
  -3.23971E+4  -6.57664E+3
  -3.17777E+4  -7.41312E+3
  -3.11383E+4  -8.42505E+3
  -3.04546E+4  -8.95241E+3
  -2.97390E+4  -9.90225E+3
  -2.89903E+4  -1.06350E+4
  -2.82681E+4  -1.12902E+4
  -2.73047E+4  -1.17689E+4
  -2.67605E+4  -1.25443E+4
  -2.60287E+4  -1.33560E+4
  -2.54977E+4  -1.40049E+4
  -2.43360E+4  -1.40178E+4
  -2.37753E+4  -1.47499E+4
  -2.30662E+4  -1.55278E+4
  -2.24140E+4  -1.59734E+4
  -2.15950E+4  -1.62373E+4
  -2.08587E+4  -1.65758E+4
  -2.00819E+4  -1.69692E+4
  -1.93661E+4  -1.76732E+4
  -1.84283E+4  -1.79824E+4
  -1.79287E+4  -1.80757E+4
  -1.70411E+4  -1.84800E+4
  -1.62541E+4  -1.87972E+4
  -1.53803E+4  -1.91899E+4
