 
 $NMID
 ID=''
 FMTDAT='(2E13.5)'
 TRAMP=   1.00000E+0
 VOLUME=   1.00000E+0
 $END
  -1.29901E+4   1.53266E+4
  -6.39884E+3   3.80935E+4
   4.00278E+4   2.04726E+4
   2.79923E+4  -2.80716E+4
  -2.55580E+4  -3.41765E+4
  -3.45098E+4   6.41343E+3
   1.74751E+3   3.16207E+4
   2.64842E+4   1.27869E+4
   1.59496E+4  -1.85420E+4
  -1.32099E+4  -2.19306E+4
  -2.38170E+4   3.60404E+3
  -2.94731E+3   1.97181E+4
   1.56791E+4   6.89719E+3
   8.76942E+3  -1.25286E+4
  -5.54586E+3  -1.39340E+4
  -9.17162E+3   1.18204E+3
  -3.48300E+3   1.14399E+4
   5.74181E+3   5.25721E+3
   7.18712E+3  -4.95561E+3
  -1.20430E+3  -5.21585E+3
  -6.57107E+3  -6.20728E+2
  -2.37481E+3   3.11365E+3
   3.17237E+3   4.78948E+3
   2.88662E+3   6.18015E+2
   2.32606E+2  -5.13893E+3
  -7.06272E+2  -1.92345E+3
  -1.84137E+3   3.87809E+3
  -1.35525E+3   2.76461E+3
   1.55735E+3  -1.65443E+3
   2.56555E+3  -1.99150E+3
  -8.45394E+2   1.84619E+2
  -2.91566E+3   9.40431E+2
  -9.77835E+2  -1.44792E+2
   1.80443E+3  -1.49531E+3
   2.33917E+3  -1.42167E+3
   8.81229E+2   7.41517E+2
  -1.17842E+3   1.21677E+3
  -6.21753E+2   8.30008E+1
   8.61507E+2  -3.68843E+2
  -2.26714E+1  -2.70698E+2
  -7.59976E+2  -1.20556E+3
   7.48482E+2  -1.33239E+3
   1.66216E+3   3.84195E+2
   7.36230E+2   6.18374E+2
  -1.08636E+2   1.29304E+2
  -1.98542E+2   6.04404E+2
  -1.11858E+3   9.69422E+2
  -1.57752E+3  -1.40340E+3
  -1.46620E+2  -2.20873E+3
   9.85144E+2  -9.85256E+2
   7.09279E+2   2.61876E+2
   3.60635E+2  -1.91153E+2
   3.54389E+2  -2.18490E+2
  -1.24082E+2   4.90611E+2
  -5.20799E+2   6.40037E+2
  -5.64742E+2   5.17803E+1
  -3.31180E+2  -9.64149E+2
   7.25131E+2  -1.10393E+3
   8.32472E+2  -4.63998E+1
   2.79154E+2   6.55111E+2
  -1.94590E+2   8.87604E+2
  -6.24562E+0   9.15816E+2
  -9.39286E+2   8.58904E+2
  -1.87112E+3  -2.26806E+2
  -1.18102E+3  -1.35218E+3
   6.35910E+2  -9.03828E+2
   1.09087E+3  -1.26101E+2
   9.53342E+2  -8.15702E+1
   6.13338E+2   5.06871E+2
  -3.37761E+1   5.61635E+2
  -1.82863E+2   2.53882E+2
   4.22233E+2   1.78484E+2
   4.25220E+2   8.02577E+2
  -2.81428E+2   5.27379E+2
  -8.30858E+2  -3.65768E+1
   1.59404E+2  -1.65345E+2
   2.18414E+2   3.81099E+2
  -2.61842E+2   6.51225E+2
  -3.70428E+2  -5.21371E+1
  -1.81623E+2  -2.05557E+2
  -1.03749E+1  -6.14927E+1
   4.03998E+2   2.68217E+1
   4.31046E+2   8.82991E+1
   1.21777E+1  -1.94831E+2
   3.03949E+2  -1.36165E+2
   5.21751E+2   4.96422E+1
   5.00031E+2   7.17934E+2
   2.02490E+2   5.73113E+2
  -8.36911E+1   2.24200E+2
  -1.06812E+2   3.38134E+2
   1.26991E+2   6.47817E+2
  -4.26576E+2   7.55575E+2
  -6.19913E+2  -2.25357E+1
  -3.79027E+2  -6.68394E+2
   2.96460E+2  -7.04033E+2
   5.69109E+2   1.85247E+2
   2.42230E+2   3.38641E+2
   2.16364E+2   7.94057E+0
   2.59051E+2  -2.14480E+2
   3.23692E+2   2.85573E+2
  -9.86891E+1   1.02731E+3
  -3.71091E+2   4.04496E+2
  -1.74533E+2  -1.64329E+2
   4.45268E+2  -3.75885E+2
   5.89737E+2   1.09876E+2
   8.51510E+1   6.57726E+2
  -4.54189E+2   3.93618E+2
  -1.94579E+2  -5.69580E+2
   3.87435E+2  -9.76079E+2
   9.04423E+2   7.52070E+1
   5.43051E+2   1.07081E+3
   2.11008E+1   8.10544E+2
  -2.73555E+2   8.54527E+1
   2.08527E+2   3.51188E+1
  -1.74758E+2   2.83576E+2
  -3.72971E+2  -1.85769E+1
  -1.86268E+2  -2.74524E+2
   2.18258E+2  -6.59251E+2
   6.27092E+2  -5.76364E+2
   8.96055E+2   1.56561E+1
   3.88477E+2   5.93664E+2
   4.76254E+1   5.36532E+2
  -1.49074E+2   1.70356E+2
  -4.32262E+2  -5.10462E+1
  -2.21444E+2  -2.38092E+2
   1.38873E+2  -6.61796E+2
   3.82752E+2  -3.91991E+2
   3.70653E+2  -2.44041E+2
   2.41563E+2   1.00649E+2
  -2.15035E+2   3.13283E+2
  -3.69830E+2  -1.61141E+2
  -1.10609E+2  -6.47637E+2
   1.75804E+2  -3.85104E+2
   1.96362E+1   2.40165E+2
   9.91211E+1  -1.68525E+2
   4.05471E+2  -2.65240E+2
   2.42120E+2  -1.18328E+2
   6.48602E+1   3.69399E+2
  -4.04187E+2   4.10023E+2
  -3.68335E+2  -2.38654E+2
  -2.27259E+2  -3.42211E+2
   1.77440E+2  -2.69367E+2
   2.77319E+2   6.90629E+1
  -1.86714E+2   4.45453E+2
  -4.80307E+2   2.73743E+2
  -5.21814E+2  -3.37450E+2
   7.42845E+1  -3.95126E+2
  -3.73475E+2  -4.05774E+2
  -9.13476E+1   1.20927E+2
  -5.75552E+1  -2.88750E+2
   1.17049E+2  -2.78586E+2
   2.40861E+2  -2.13081E+2
  -4.87482E+1   5.26237E+2
  -2.35196E+2   2.58785E+2
  -1.85102E+2   1.43522E+2
  -2.24062E+1  -1.83702E+2
  -2.61099E+2   3.34987E+2
  -5.54721E+2   2.42703E+2
  -2.38389E+2  -7.91040E+1
   1.04882E+1  -4.11633E+1
  -2.40522E+2   9.25383E+1
  -4.31722E+2  -5.39339E+1
  -3.92243E+2  -1.97887E+2
  -1.59605E+1   9.90947E-1
   3.04429E+2   1.49942E+2
   9.99397E+1   1.39200E+1
  -2.90167E+2   3.24770E+2
  -3.61636E+2   5.28429E+1
  -1.71251E+2   6.01686E+1
   4.72781E+0  -5.99316E+1
  -9.74403E+1   9.24437E+1
  -2.88914E+2   1.02460E+2
  -2.50887E+2   1.07757E+2
  -2.04501E+2  -2.12961E+2
   8.20286E+1   1.38587E+2
  -1.70168E+2   1.48994E+1
  -3.25271E+2   1.89765E+2
  -1.35537E+2  -4.17527E+2
  -2.12414E+1  -1.10353E+2
   3.62875E+2   2.70901E+2
  -7.46609E+1   4.13135E+2
  -2.98289E+2   2.08961E+2
  -2.43592E+2   1.01798E+2
  -6.94888E+1  -1.76550E+2
   8.00723E+1  -1.75127E+2
  -5.85074E+1  -3.36859E+2
   2.46229E+2  -4.20030E+2
   2.05091E+2  -2.52446E+1
   2.65978E+2   2.67117E+2
  -1.30508E+2   6.68629E+2
  -4.47508E+2   2.16635E+2
  -4.25991E+2  -2.48945E+2
  -7.28252E+1  -5.88198E+2
   2.78732E+2  -1.83996E+2
   2.99836E+2  -1.50760E+2
   2.29875E+2  -1.74326E+2
  -1.95039E+2  -6.07883E+1
  -1.95874E+2  -7.24411E+1
  -9.92389E+0   9.03111E+1
  -3.23671E+2   6.90640E+0
  -2.77922E+2  -4.08101E+2
   2.84365E+2  -4.33262E+2
   4.17624E+2  -9.22873E+1
   2.45781E+2   1.37915E+2
  -3.18233E+2   1.74303E+2
  -2.10817E+2  -2.29540E+1
  -1.45862E+2  -9.72328E+1
  -9.35492E+0  -1.72755E+2
  -2.86434E+2  -6.32307E+1
  -8.01002E+0  -2.60199E+2
  -1.11819E+2  -2.49030E+2
   3.04922E+2   8.66106E+1
   3.44332E+1   4.51204E+2
  -3.58945E+2   2.21187E+2
  -5.32454E+2  -1.70790E+2
  -2.54123E+2  -3.25074E+2
   1.53952E+2  -5.20810E+2
   3.76953E+2   1.98057E+2
   3.19130E+2   9.55653E+1
  -6.86454E+1  -4.82188E+1
   8.65005E+1   2.33674E+2
   1.24459E+2   2.86898E+2
  -2.10751E+2   2.54820E+2
  -3.06950E+2  -8.33163E+1
  -3.09497E+2  -4.00715E+2
   2.71806E+2  -3.45678E+2
   1.62363E+2  -4.52201E+1
  -2.22833E+2   3.03995E+2
  -1.91336E+2   3.23615E+1
  -3.24877E+1  -6.47082E+1
   2.00375E+2  -1.11636E+2
  -6.64390E+1  -3.52636E+1
  -1.18924E+2   1.81585E+2
  -2.18861E+2  -1.58725E+2
   8.20815E+1  -9.42735E+1
  -6.67592E+1  -1.89964E+2
  -1.90550E+2   9.68428E+1
   5.78813E+1  -6.24289E+0
  -1.07467E+2  -1.73783E+2
   2.31403E+1   3.83905E+1
   1.65693E+2  -9.19296E+1
   7.42728E+1  -1.26566E+1
  -1.42769E+2  -5.43109E+1
  -2.38981E+2  -2.33720E+2
  -1.81964E+2  -3.35976E+2
  -4.28575E+1  -5.41129E+1
  -2.74634E+1  -1.50742E+2
  -1.58818E+2  -1.66989E+2
  -1.43980E+1  -1.04414E+2
   3.40799E+1   1.91313E+2
  -1.88897E+0   1.07208E+2
  -7.37358E+1   7.72303E+1
  -1.15669E+2  -2.00141E+2
   1.89395E+2  -1.69535E+2
   3.37833E+2   6.87226E+1
   1.96757E+2   1.62397E+2
  -1.12842E+2   1.27397E+2
  -9.30641E+1   1.66459E+2
  -1.47867E+2   2.33961E+1
  -1.63848E+2   1.44813E+1
  -3.89571E+2  -2.27630E+2
  -9.67768E+1  -2.23949E+2
   1.32175E+2  -1.88727E+2
   2.57428E+2  -5.11536E+1
   3.03722E+2   1.63868E+2
  -2.75832E+2   1.82861E+2
  -3.04614E+2   2.52553E+2
  -1.41907E+2  -1.08362E+2
   1.32573E+2  -2.91591E+2
  -1.39882E+2  -6.90437E+1
   2.69599E+1   1.95775E+2
   3.34884E+2   2.45605E+2
   1.82895E+2   1.59481E+1
  -7.55757E+1   1.19011E+2
  -4.76088E+1   1.62926E+2
  -1.70078E+2  -3.32663E+2
  -2.18636E+2  -3.79975E+2
   1.04814E+2  -1.21362E+2
   1.33054E+2  -4.80768E+1
  -1.43622E+1   1.38595E+2
  -1.69023E+2  -1.03274E+1
   1.62532E+2   2.04411E+2
   5.00757E+1  -9.42812E+1
  -2.63927E+2  -6.61763E+1
  -2.59099E+2  -8.15371E+1
   1.79405E+2  -3.54316E+2
   1.99460E+2  -1.00903E+2
   4.60246E+1  -2.15335E+1
  -1.68047E+2   2.63377E+2
  -1.55226E+0   5.46118E+1
  -3.81822E+1   7.68152E+0
  -1.26515E+2  -1.09413E+2
   1.71275E+2  -1.48287E+2
   2.85630E+2  -1.60546E+2
   2.90788E+1   8.82340E+1
  -1.00444E+2  -8.20012E+1
   2.95989E+2   4.40341E+1
  -2.01634E+2   4.06032E+0
  -1.29464E+2   1.31049E+2
  -3.33851E+1  -2.77519E+0
   1.67438E+2  -2.08252E+1
  -3.39854E+1  -8.22297E+0
  -1.84491E+2   3.39884E+2
  -2.48629E+2  -1.66383E+2
  -2.07057E+1  -1.91102E+2
   3.03641E+1  -9.58626E+1
   9.35298E+1   9.19410E+1
   1.28689E+2   3.14028E+2
   1.70095E+2   1.29085E+2
  -2.60276E+1   2.32117E+2
   2.44574E+1   2.04969E+1
  -8.44319E+1   1.63296E+2
  -1.57529E+2  -7.22080E+1
  -3.12632E+1  -3.08038E+1
   5.51807E+1   5.46988E+1
  -2.96588E+1   1.88982E+2
  -1.90354E+2   1.23409E+2
   7.01626E+1  -4.02308E+1
  -1.07940E+2  -1.03444E+2
  -2.12743E+1  -2.78073E+1
   2.63116E+1  -9.37877E+1
   3.17508E+1   1.75245E+2
   9.60305E+1  -4.03562E+1
   3.78453E+0   7.10897E+1
   1.95681E+2   1.97095E+1
   3.58996E+1   1.33904E+2
  -9.26421E+1   2.56051E+2
  -1.52282E+2  -1.40949E+2
   1.02356E+2  -1.85133E+2
   2.35056E+2  -7.91391E+1
   1.13124E+2  -6.77233E+1
   1.65064E+2   1.09610E+2
  -2.13304E+1   2.91240E+2
   1.88261E+2   1.16825E+2
  -6.83566E+1   2.46899E+2
  -2.10263E+2   1.04434E+1
   5.05111E+1   3.38825E+1
   3.47633E+1  -3.06564E+2
   2.81886E+2   1.01971E+2
   1.84195E+2   3.89074E+2
  -1.56554E+2   1.43932E+2
   2.13614E+1   3.08438E+2
  -1.59348E+2  -1.10160E+2
   7.75886E+1   2.01082E+2
   2.99185E+1  -2.31584E+2
  -2.73360E+1  -2.08774E+0
   2.70794E+2  -2.87893E+0
   2.18587E+2  -1.15090E+2
   2.66601E+2   2.65616E+2
  -2.28843E+1   1.45717E+2
   5.70383E+1  -7.08273E+1
   8.63766E+1  -2.60485E+2
   1.44814E+1  -1.67347E+2
   1.18691E+2   1.97354E+2
  -1.16691E+2   1.65870E+2
   1.13757E+2   1.26927E+2
   1.68351E+2  -1.58224E+2
   6.84872E+1  -4.49382E+1
  -1.01355E+1   8.61292E+1
  -1.65175E+2  -1.72618E+1
  -1.32503E+2   2.54585E+1
   1.47423E+2  -2.02464E+2
   1.22317E+2   1.42048E+2
  -1.06649E+2   3.11667E+2
  -1.58417E+2   2.67319E+1
  -5.45541E+1   7.34726E+1
   1.00113E+2   1.99109E+2
