 
 $NMID
 ID=''
 FMTDAT='(2E13.5)'
 TRAMP=   1.00000E+0
 VOLUME=   1.00000E+0
 $END
  -9.27908E+3   1.86288E+4
   1.07990E+4   1.33446E+4
   1.31966E+4  -1.50582E+4
  -1.06597E+4  -3.52258E+3
  -4.12261E+3   1.42632E+4
   7.56492E+3  -5.80906E+3
  -2.97973E+3  -8.97543E+3
   8.35716E+1   7.92846E+3
   6.72252E+3   6.96972E+2
  -4.86285E+3  -3.44374E+3
  -4.88767E+3   6.17960E+3
   3.96586E+3  -6.85256E+2
  -1.66676E+3  -4.33321E+3
  -4.62243E+3   4.24883E+3
   8.63297E+2  -1.14910E+3
   5.96698E+2  -6.29504E+3
   4.01821E+2   2.49829E+3
   1.44774E+3   3.16729E+3
  -1.01958E+3  -2.02319E+3
   3.27371E+2   7.22685E+2
   1.64847E+3   6.43041E+2
  -5.54460E+2  -1.77255E+3
   6.18666E+2   1.06027E+3
   1.39347E+3   1.45024E+3
  -1.30752E+3  -1.16247E+3
   9.33551E+2  -9.64482E+2
   2.88049E+3   1.21685E+3
  -1.79097E+3   1.75765E+3
  -2.01240E+3  -5.02816E+0
   1.58442E+3  -9.98164E+2
   1.01073E+3   6.42067E+2
  -1.02831E+3   1.29398E+3
  -1.26649E+3  -1.33513E+2
  -1.47638E+3  -1.05012E+3
   3.03924E+2  -1.55954E+3
   2.29090E+3  -1.72475E+3
   1.15328E+3   1.00898E+3
  -5.30803E+2   1.76538E+3
  -7.17739E+2  -3.76688E+2
   3.19526E+2  -3.26533E+1
  -5.71443E+2   1.09317E+3
  -1.13856E+3  -1.00738E+3
  -2.77362E+1  -2.00038E+3
   1.58689E+3  -1.51129E+2
   5.86942E+2   6.59987E+2
   2.40067E+2   8.08630E+2
   2.91011E+2   1.55790E+3
  -1.66443E+3   1.09963E+3
  -2.18332E+3  -6.65570E+2
  -3.30914E+2  -1.56574E+3
   3.61499E+2  -5.87564E+2
   1.54718E+2  -5.35844E+2
   5.40948E+1  -6.78715E+2
   3.96415E+2  -3.28655E+1
   3.60947E+2   5.72826E+2
  -1.30647E+2   7.57640E+2
  -1.04952E+3   2.58567E+2
  -1.09645E+3  -9.75042E+2
   2.59548E+2  -1.39198E+3
   8.92766E+2  -3.23871E+2
   4.06757E+2   7.39711E+2
   6.10771E+2   7.59906E+2
   5.03586E+2   1.26691E+3
  -9.47376E+2   1.49532E+3
  -1.99983E+3   5.11287E+2
  -1.63383E+3  -1.03667E+3
   1.87972E+2  -1.26821E+3
   5.86013E+2  -1.05964E+3
   7.10078E+2  -3.31137E+2
   4.83139E+2   3.73926E+2
  -1.11960E+2   2.39226E+2
  -2.80949E+2  -2.55150E+2
   4.35956E+2  -6.93013E+2
   7.15731E+2   3.10700E+2
   2.09488E+1   6.83826E+2
  -2.08392E+2  -1.48171E+1
   2.97303E+2  -1.67167E+2
   5.62124E+2   3.55037E+2
   2.49132E+2   4.56869E+2
  -3.72327E+2  -7.16354E+0
  -3.95551E+2  -1.76361E+2
  -6.05902E+1  -4.65858E+2
   4.71019E+2  -2.05219E+2
   2.12231E+1  -1.98393E+2
  -2.88896E+2  -6.41065E+2
   2.62228E+2  -7.48032E+2
   9.21335E+2  -5.06015E+2
   4.34451E+2   1.25867E+2
  -1.50922E+2  -6.35267E+1
   1.24588E+2  -1.12411E+2
   6.13406E+2  -1.72492E+2
   5.81243E+2   3.26416E+2
  -8.23938E+1   8.84564E+2
  -4.54755E+2   6.58759E+2
  -6.29291E+2  -4.59703E+2
  -1.74466E+2  -7.84748E+2
   2.66149E+2  -4.50847E+2
   4.49502E+2   4.69453E+2
   7.71077E+1   1.82834E+2
   2.54460E+2  -5.34722E+2
   7.11380E+2  -5.67735E+1
   4.09126E+2   5.28620E+2
  -5.43929E+2   5.61690E+2
  -7.00197E+2  -4.67996E+2
   2.88626E+2  -9.05176E+2
   7.16826E+2   3.11942E+2
   2.37111E+2   6.65853E+2
  -4.78729E+2   3.51466E+2
  -8.30062E+2  -1.88075E+1
   6.49961E+1  -6.02632E+2
   8.52215E+2  -3.58343E+2
   7.89185E+2   4.03696E+2
   1.58825E+2   5.46781E+2
  -1.18789E+2   3.89382E+2
   1.48330E+2   5.86462E+2
   1.94924E+1   3.08437E+2
  -4.17322E+2   3.44606E+2
  -7.96938E+2   2.28684E+2
  -3.62969E+2  -8.21764E+2
   2.86345E+2  -7.68174E+2
   4.94756E+2  -1.06612E+2
   6.26981E+2   6.51066E+2
   3.09120E+2   3.58024E+2
   2.28267E+2   3.51084E+2
  -2.99898E+2   5.97619E+2
  -4.86786E+2   3.92853E+2
   9.77412E+1  -2.61149E+2
   3.23853E+2   3.86434E+1
   4.70361E+2   1.53230E+2
   3.82437E+2   3.47725E+2
   5.60488E+1   5.52828E+2
  -3.80863E+2   5.28482E+2
  -3.11567E+2  -1.52253E+2
   3.38752E+0  -1.41643E+2
   1.39375E+2   2.18507E+1
  -5.54523E+1  -2.08543E+2
   8.62394E+1  -4.68277E+1
   6.46378E+2  -2.81160E+2
   2.86076E+2   5.20017E+2
  -1.25963E+1   4.13011E+2
  -4.64574E+2   1.45959E+2
  -2.06060E+2  -8.35570E+1
   5.37564E+2  -4.25246E+2
   6.60771E+2  -3.94614E+1
   3.09655E+2   5.11788E+2
   8.84559E+0   6.14073E+2
  -1.11985E+2   1.47873E+2
   2.14482E+2  -8.43203E+1
  -1.20742E+1   1.79428E+2
  -1.39110E+2  -9.32187E+1
  -2.65108E+2  -1.70577E+2
   1.05775E+2  -4.87641E+2
   2.35581E+2   5.07953E+1
   4.08528E+2   1.99815E+2
  -7.25150E+1   8.43199E+1
  -3.05030E+1  -1.89246E+2
   4.04995E+2  -1.53165E+2
   2.33336E+2   1.90923E+2
   1.71762E+2   2.06576E+2
   1.75328E+2  -1.96876E+2
   1.77386E+2   2.97869E+2
   2.94059E+1   8.86440E+1
  -5.41309E+1   1.98016E+2
  -2.35809E+2  -1.33314E+2
  -8.26081E+1  -1.71167E+1
   1.43873E+2  -8.21112E+1
   3.04481E+2  -1.23486E+2
  -2.51042E+1   2.41166E+2
  -9.66879E+1   1.04555E+2
  -1.60890E+2  -2.22002E+2
   7.71078E+0  -2.00732E+2
   3.13707E+2  -1.95924E+1
  -1.07402E+2   3.17015E+2
  -2.62365E+2  -4.70810E+0
  -1.05741E+2  -1.60844E+2
   1.73911E+2  -4.04630E+2
  -6.58340E+1   4.84615E+1
  -2.03931E+2   3.65917E+1
  -3.57350E+2  -1.44307E+2
  -3.01915E+1  -3.21879E+2
   1.52563E+2  -9.36352E+1
   2.02842E+2   1.63654E+2
  -6.40247E+1   4.59018E+1
  -1.43480E+2  -1.93912E+2
  -2.94427E+2  -2.60706E+2
  -1.29216E+2  -1.71956E+1
  -1.13877E+2   3.02758E+0
   7.01079E+1  -3.10411E+2
   8.02984E+1  -1.75219E+2
   2.61087E+2  -2.59290E+2
   8.31102E+1   1.48698E+2
  -2.48144E+2   3.51335E+2
  -3.40439E+2   9.24485E+0
  -2.94008E+2   2.95775E+1
  -2.79789E+2  -1.24209E+2
   1.52679E+2  -1.26601E+2
   8.17149E+0   7.06456E+1
   1.50227E+2  -2.08042E+2
   1.63025E+1  -2.14041E+1
   4.82645E+0   6.97762E+1
  -2.89352E+2   9.60214E+1
  -3.74366E+2  -1.27924E+2
  -4.35918E+2  -1.97212E+2
  -5.22185E+1  -1.06977E+2
   2.48265E+2  -2.85856E+2
  -7.10832E+1  -6.58101E+0
  -2.03735E+2  -4.64970E+1
  -1.52402E+2  -1.14497E+2
  -8.55636E+1   1.02055E+2
   9.08258E+1   1.36599E+2
  -1.62648E+2   5.26639E+1
   2.53526E+1  -5.91670E+1
   2.32974E+1   1.23715E+2
   2.53098E+2   2.06118E+2
  -1.36324E+2   2.72462E+2
  -1.05582E+2   2.77985E+2
   2.18539E+1   1.35818E+2
  -2.22779E+1  -2.23698E+2
  -2.65468E+1   2.44534E+0
  -6.91191E+1  -1.65414E+1
  -1.33811E+2  -1.88013E+2
  -1.84292E+2  -5.13985E+1
   2.06450E+1  -1.86987E+2
   2.08330E+1   1.48402E+2
  -6.99602E+1   2.91921E+2
  -3.27384E+2  -1.20937E+2
   6.78649E+1   3.08835E+1
   1.09299E+1  -5.81879E+0
  -7.87552E+1   1.09561E+2
   3.49463E+1  -3.78613E+1
  -1.28491E+2  -2.52148E+2
  -3.30433E+2  -2.30822E+2
  -1.31338E+1  -2.03446E+2
  -2.86456E+2   1.59531E+2
  -4.88049E+1   1.20062E+2
  -2.66709E+2   1.06127E+1
  -1.01717E+2  -2.94496E+1
  -1.61802E+2   2.07760E+2
  -1.40841E+1   5.41499E+1
  -1.52763E+2  -5.25177E+1
  -1.22090E+2  -1.20154E+2
   1.65581E+2  -5.66853E+1
   8.61061E+1   2.09541E+2
  -2.12087E+1   1.38449E+2
   8.79642E+0   1.25137E+2
   8.87385E+1   4.18738E+1
  -9.53642E+1  -4.83785E+1
  -1.27997E+2   1.80343E+2
  -9.77310E+1   4.39850E+1
  -7.18062E+1  -2.15034E+2
   4.61996E+1  -2.02667E+2
  -1.35197E+2   1.02009E+2
  -2.92046E+2   1.32546E+2
  -1.68561E+2  -3.33247E+1
  -2.99585E+1  -2.35337E+2
  -1.51177E+2  -7.94391E+1
  -8.06062E+1  -1.01441E+2
   4.95367E+1  -5.28389E+1
   2.18809E+1   4.73147E+1
   7.21465E+1   1.33081E+2
   1.17999E+0   1.38360E+2
  -2.53363E+2   9.22301E+1
  -2.49550E+2   3.56206E+1
  -7.65331E+1  -1.35196E+2
  -6.44169E+1  -8.72904E+1
  -9.51113E+1  -3.70273E+1
   1.23980E+2  -9.73850E+1
  -8.76314E+1   1.55170E+2
  -1.33112E+2  -2.04520E+2
   1.14925E+2  -5.93113E+1
  -2.87486E+2  -1.29149E+1
  -7.24483E+1  -6.89910E+1
  -1.67296E+2   2.11496E+2
   5.77412E+1  -2.81259E+2
   1.56620E+2  -3.04345E+1
  -1.79986E+2   1.66863E+2
  -2.46746E+2  -7.30113E+1
  -1.75233E+2  -1.91787E+2
   3.98339E+0  -2.96207E+2
  -5.36153E+1  -1.82044E+2
  -1.13274E+2  -1.80640E+2
   3.18553E+1   1.08921E+2
  -1.75383E+2  -2.26568E+1
  -1.45036E+2  -5.19292E+1
  -2.00513E+2   1.05482E+2
  -1.60443E+2   2.12343E+2
  -1.06748E+2   7.60790E+1
  -1.30756E+2   4.88430E+1
  -1.73447E+2  -1.51395E+0
  -1.93905E+2  -1.58959E+2
  -1.93472E+2   1.83525E+2
  -2.03574E+2  -1.60640E+2
  -2.59541E+2   2.23441E+2
  -5.75722E+0  -1.89455E+2
   2.33381E+2  -3.03019E+2
  -1.11660E+2  -5.71101E+1
  -2.09019E+2   2.03987E+1
  -1.58834E+2   1.19826E+2
  -2.47547E+2  -2.82081E+0
   3.53074E+1   4.71822E+1
  -2.22484E+2   3.58592E+1
  -5.87596E+1   1.08938E+2
   2.00960E+2   2.98953E+1
  -5.48392E+1  -2.89537E+1
  -1.66008E+2  -1.31721E+1
   3.64760E+1  -2.80010E+2
  -7.69339E+1   2.30139E+2
  -1.32375E+2  -7.46870E+1
  -2.49119E+1  -4.65357E+1
   4.14977E+1   1.96379E+2
   3.24968E+1  -5.94994E+1
  -1.77121E+2  -9.58060E+0
  -5.14127E+1   1.25068E+2
  -1.45045E+2   2.14080E+2
  -1.47748E+1  -9.91344E+1
  -7.92133E+1  -1.32538E+1
   7.45206E+1  -1.90118E+1
   2.83944E+0   1.00589E+2
   8.04653E+1   2.10385E+2
  -8.83597E+1  -9.04768E+1
   1.41793E+2  -1.48477E+1
   5.26697E+1  -2.32928E+1
  -1.85478E+2   9.37142E+0
   7.33669E+1   1.46818E+2
   5.68565E+0  -3.42723E+2
   3.18706E+1  -1.57387E+2
   5.52859E+1   2.88909E+2
   1.28807E+2  -4.91272E+0
   1.51589E+2  -8.86038E+1
  -3.80692E+1   7.41527E+1
  -1.94644E+2   1.54466E+2
   2.08258E+2  -2.18692E+2
  -1.42262E+1   9.95950E+1
  -9.28176E+1   3.63969E+1
  -4.63436E+1   1.22741E+2
   8.36996E+1   2.25530E+1
  -9.86459E+1   7.45886E+1
   2.95623E+1   2.31181E+2
   2.02884E+2   7.08054E+1
  -1.53292E+2  -1.16352E+2
  -7.44612E+1  -9.17939E+1
  -2.11561E+2  -1.81215E+2
   3.40631E+1   2.12590E+2
  -1.70801E+2  -1.26412E+2
  -1.08969E+1   1.29118E+2
   4.52417E+0   8.94521E+1
   1.15213E+2  -2.78340E+2
  -1.71462E+2   6.47288E+1
  -2.61147E+2  -9.19553E+0
   4.40966E+1  -1.12490E+2
  -9.43882E+1   6.94356E+1
   1.33049E+2   1.31808E+2
   1.63553E+2  -1.17859E+2
  -1.32210E+2  -1.61529E+2
  -7.45742E+1  -1.54699E+2
   5.17003E+0  -8.13778E+1
  -1.33828E+2  -2.34714E+2
   4.62309E+1  -1.37129E+2
  -1.15059E+2  -1.22407E+2
  -1.66202E+2   7.51623E+1
   2.37882E+1  -6.24139E+1
   2.30674E+1   1.58106E+2
   1.15584E+2  -2.04956E+2
  -1.66328E+2  -1.18456E+1
  -5.13421E+1   2.67196E+2
  -1.36773E+2   2.92967E+2
   2.75814E+1   4.25587E+1
