 
 $NMID
 ID=''
 FMTDAT='(2E13.5)'
 TRAMP=   1.00000E+0
 VOLUME=   1.00000E+0
 $END
   1.10125E+4   2.17902E+4
   3.53800E+4   1.71339E+4
   2.88052E+4  -2.96466E+4
  -2.98074E+4  -2.27266E+4
  -3.24445E+4   2.46788E+4
   2.10064E+4   2.39395E+4
   2.77165E+4  -1.26276E+4
  -1.07209E+4  -1.68441E+4
  -2.09607E+4   6.13111E+3
  -9.20438E+2   1.52786E+4
   1.12393E+4   3.35398E+3
   4.03144E+3  -9.50925E+3
  -7.33044E+3  -5.20770E+3
  -5.97863E+3   3.19353E+3
   3.07617E+3   1.20797E+3
   5.38965E+3  -1.54101E+3
   1.21582E+3   4.88351E+2
  -1.84735E+3  -7.82208E+2
  -1.42676E+3  -9.26205E+2
   7.95695E+2   2.62032E+3
   2.33329E+3   9.01946E+2
   1.22887E+3  -2.78638E+3
  -7.18930E+2  -4.01529E+2
  -2.60890E+3   1.74036E+3
  -5.50731E+2   8.52964E+2
   3.54615E+3   7.94565E+1
   1.44229E+3  -1.81503E+2
  -4.04860E+3  -6.90596E+2
  -2.70036E+3  -7.82496E+2
   2.02747E+3   5.65659E+2
   1.59496E+3   7.29332E+2
  -9.04029E+2  -4.55105E+2
  -2.38953E+3  -1.56157E+3
  -1.73960E+3  -1.34347E+3
   1.38595E+3  -1.25939E+3
   3.00612E+3  -1.30097E+2
   2.32789E+2   1.59320E+3
  -2.24312E+3   7.88209E+2
  -3.38914E+2  -6.28538E+2
   5.79443E+2   2.45749E+2
  -1.14535E+3   5.20196E+2
  -9.11694E+2  -1.48223E+3
   1.50850E+3  -1.10643E+3
   1.40961E+3   4.91510E+2
   9.37507E+0   1.06278E+3
   3.04167E+2   1.11528E+3
  -4.55346E+1   1.47980E+3
  -1.56783E+3   4.09891E+2
  -1.83446E+3  -1.39681E+3
   3.28672E+2  -1.19344E+3
   8.12435E+2  -2.61182E+2
   3.34985E+2  -2.49599E+2
   4.06358E+2  -3.01615E+2
   7.66724E+2   3.52249E+1
   4.41395E+2   8.86551E+2
  -3.71351E+2   6.70369E+2
  -1.07685E+3   8.84408E+1
  -4.04774E+2  -1.03635E+3
   1.58558E+3  -7.98084E+2
   1.30311E+3   3.33742E+2
   1.73596E+2   8.96436E+2
   3.69129E+2   3.36992E+2
   6.41475E+2   9.44067E+2
  -9.04059E+2   1.26463E+3
  -2.36222E+3   2.87359E+2
  -9.47159E+2  -1.50105E+3
   6.69175E+2  -1.88294E+3
   1.22369E+3  -8.95012E+2
   5.65868E+2   3.17586E+2
   1.69923E+2   5.32417E+2
   1.31184E+2  -2.85880E+2
   1.76301E+2  -5.87617E+2
   6.25633E+2  -6.71034E+1
   5.60547E+2   8.78356E+2
   2.26749E+2   8.60819E+2
  -2.51961E+2  -1.50472E+2
   2.72404E+2  -1.57001E+2
   1.73752E+2   2.11062E+2
  -3.01195E+2   3.99341E+2
  -6.55805E+2   1.66109E+2
  -7.20026E+2  -2.11596E+2
  -1.99498E+2  -9.53957E+2
   4.28248E+2  -3.05743E+2
  -1.43930E+2   3.70465E+2
  -4.55748E+2  -3.86353E+2
  -9.88981E+1  -8.43132E+2
   7.49399E+2  -1.90516E+2
   4.54450E+2   7.29412E+2
  -1.59524E+2   2.72498E+2
   7.97331E+1  -3.33396E+2
   6.60771E+2  -1.35426E+2
   3.37753E+2   6.96245E+2
  -3.87179E+2   1.12966E+3
  -6.88004E+2   6.29245E+2
  -5.93985E+2  -2.03945E+2
   7.63973E+0  -9.51286E+2
   1.64207E+2  -3.13345E+2
   2.60941E+2   1.68356E+2
   3.43497E+1   1.35191E+2
   4.61919E+2  -3.38735E+2
   7.47833E+2  -1.00263E+2
   5.71430E+2   7.30966E+2
  -1.37693E+2   1.03413E+3
  -6.33870E+2  -3.17027E+1
  -7.86852E+1  -7.05782E+2
   8.72596E+2  -1.80422E+2
   4.65043E+2   1.05592E+3
  -7.86624E+2   6.05558E+2
  -7.56133E+2  -2.85846E+2
   2.78189E+2  -1.09213E+3
   7.13729E+2  -4.80532E+2
   6.70103E+2   2.34346E+2
   2.58336E+2   3.84412E+2
   3.47629E+2   1.87350E+2
   4.13752E+2   1.31196E+2
   1.90765E+2   5.98218E+2
  -2.13614E+2   5.38728E+2
  -5.97878E+2   1.92063E+2
  -4.36110E+2  -5.11205E+2
   1.14272E+2  -9.65398E+2
   4.79883E+2  -3.05572E+2
   5.26657E+2   1.80969E+2
   3.38910E+2   3.56393E+1
   2.37182E+2   1.65815E+2
   3.60314E+1   2.90874E+0
   1.18633E+2   1.25497E+2
  -2.72855E+2  -3.39912E+2
   4.11673E+1  -3.46825E+2
   3.44443E+2  -3.66937E+1
   4.71421E+2  -7.98580E+1
   1.82437E+2   5.73929E+2
  -4.69443E+2   4.15181E+2
  -3.36634E+2  -1.67620E+2
   1.30881E+2  -3.12219E+2
   1.57630E+1  -1.73216E+2
  -2.21988E+2  -1.38129E+2
   2.71414E+1  -3.02229E+2
   4.59167E+2  -2.60764E+2
   4.65046E+2   2.74747E+2
   1.72016E+2   3.79510E+2
  -4.53539E+2   4.40049E+2
  -4.85295E+2  -5.06191E+2
   1.49955E+2  -7.50325E+2
   6.93569E+2  -1.06032E+2
   1.29572E+2   4.09783E+2
   5.25301E+0   1.90161E+2
  -2.51507E+2   1.03570E+1
  -9.17048E+1   4.22929E+2
  -5.32632E+1   2.17848E+2
  -4.12102E+2   1.11735E+2
  -5.31032E+2  -9.80008E+1
  -2.59009E+2  -4.38225E+2
   1.50160E+2  -2.11694E+2
   3.40551E+2   1.98904E+2
  -1.36253E+2   3.86552E+2
  -3.20577E+2  -1.07311E+1
  -3.65876E+1  -1.76238E+2
   1.08009E+2   7.04127E+1
   5.18846E+1   8.32748E+1
   9.68616E+1  -1.32199E+1
  -6.67415E+1   1.45434E+2
   1.73777E+1   4.74927E+2
  -2.19133E+2   2.34705E+2
  -1.48224E+2   2.69320E+2
  -1.51804E+2   1.01444E+2
  -5.80821E+1  -1.68413E+2
   1.65816E+2  -8.84156E+1
   1.88228E+2   1.16372E+2
   2.72571E+2   5.36122E+1
  -5.79391E+1   6.17450E+1
  -7.14973E+1   3.32489E+1
   7.16949E+1   1.34024E+2
   2.87668E+2   2.59734E+2
  -1.28205E+2   1.46868E+2
  -2.61253E+2  -7.07200E+1
   1.97905E+1  -1.66848E+2
   7.08253E+0   2.76833E+2
  -1.11384E+2   4.31375E+2
  -2.59699E+2   1.74661E+2
  -1.02384E+2  -5.09665E+1
   1.62437E+2   5.54655E+0
   1.36654E+2   1.51769E+2
  -9.31525E+1   2.06046E+2
  -1.65168E+2   9.04158E+1
  -4.25678E+0   1.35435E+2
   5.75910E+0   5.63774E+1
  -1.59139E+2   5.95866E+1
  -1.61223E+2   7.57394E+1
   1.21216E+2   1.14612E+1
   2.75091E+2  -1.72274E+2
   2.17001E+2   1.25524E+2
   1.64210E+2   3.01298E+2
  -2.28551E+2   3.03573E+2
  -1.13893E+2   2.19412E+2
   3.10120E+1  -1.83631E+2
  -6.05066E+1   1.19734E+1
  -2.03781E+1   8.57401E+1
  -9.44583E+1   1.99990E+2
  -2.97614E+1  -2.12379E+1
   9.34978E+1   2.27791E+2
   1.19561E+1   1.95784E+2
  -2.44959E+2   1.79268E+2
  -1.13526E+2  -1.59485E+1
  -1.31666E+2  -1.02918E+2
   1.24627E+2   7.00703E+1
  -4.04145E+0  -2.15596E+2
  -1.29719E+2   5.79293E+1
  -1.10441E+1   2.05644E+2
  -1.11572E+2   5.22414E+1
   1.04997E+2   1.83644E+2
  -1.37807E+2  -2.26133E+2
   9.77229E+1  -1.65536E+2
  -1.52965E+2  -1.67806E+2
   7.95209E+1  -2.01567E+0
   5.38163E+1   1.90432E+2
  -4.89471E+1   1.03175E+2
  -3.64656E+2   1.92939E+2
  -1.32147E+2  -8.08224E+1
  -6.31498E+1  -2.40019E+2
   4.50659E+1  -5.74794E+1
   2.72374E+1   3.97615E+1
  -1.45428E+1  -1.19321E+2
   1.12350E+2   6.74207E+0
  -2.10812E+0   1.07216E+2
  -9.71902E+1   2.99095E+2
  -1.08133E+2  -1.57268E+2
  -3.89497E+1  -9.34438E+1
  -1.12162E+2  -4.79322E+0
   3.97592E+1   1.42077E+2
   2.06154E+2  -9.51636E+1
  -2.62593E+1   1.41028E+2
  -6.84797E+1   5.12696E+1
  -1.33462E+2  -1.48578E+2
  -2.56822E+1   5.27717E+1
  -1.49072E+2   9.77604E+1
  -2.49554E+2   4.72197E+1
  -2.81643E+2  -1.12199E+2
   2.57242E+1   5.91331E+1
  -2.12061E+1  -1.01885E+2
  -1.58362E+2  -8.91785E+1
  -3.08960E+2  -1.77326E+1
  -1.05056E+2   1.57568E+2
  -1.38781E+2   8.84357E+1
   1.43627E+2   2.47378E+2
  -1.17345E+2   9.40732E+1
   5.18943E+1   1.80514E+2
  -5.25726E+1  -7.19087E+1
  -1.42168E+2  -1.43998E+2
   1.53221E+2  -5.04982E+1
  -3.55047E+1  -4.33268E+1
   1.52725E+1  -3.56997E+1
   7.37871E+1   1.33752E+2
  -6.24890E+1   7.99374E+1
  -4.23242E+0   1.05058E+2
  -7.66386E+0  -6.25238E+1
  -2.05791E+2   5.68596E+1
   2.60660E+1   1.45663E+2
   6.70196E+1   2.98706E+2
  -3.81674E+1   6.21142E+0
  -2.46516E+1   1.11637E+2
  -5.59204E+1  -3.24696E+1
  -1.26618E+1  -4.96229E+1
  -1.19765E+2   1.27294E+2
  -1.25997E+1  -1.25190E+2
  -1.34194E+0   1.40731E+2
  -2.08850E+2   9.99313E+1
  -2.14875E+2   1.10911E+2
  -1.69857E+2   1.54089E+2
  -4.21547E+1   1.41931E+2
  -4.77362E+1   1.40012E+2
   1.21235E+2  -1.42073E+2
  -2.62913E+1  -2.47309E+1
   9.89169E+1   2.07878E+2
  -1.32756E+1  -1.22065E+1
  -2.60733E+2   1.19163E+2
  -1.48402E+2   4.73740E+1
   3.22872E+1   6.64374E+1
   1.09542E+1   2.32724E+2
   2.35100E+1   1.34288E+2
   3.23202E+1   9.74066E+0
  -5.47201E+1  -6.45375E+1
   3.09791E+1   1.38300E+2
  -3.02249E+1   2.02705E+2
  -9.14276E+0  -2.45831E+1
  -1.60979E+2  -1.51877E+1
  -1.11162E+2  -7.33918E+1
  -4.21548E+1  -2.54581E+2
   1.00816E+2   1.21970E+2
   1.41754E+2   4.07493E+1
  -1.55739E+2   2.17553E+2
  -1.29945E+2  -1.75755E+2
  -6.04114E+0  -6.01679E+1
   1.03032E+2   1.31539E+2
  -2.32109E+2  -4.34202E+1
  -7.65813E+1  -5.26759E+1
   5.80453E+1  -9.58419E+1
   4.82208E+1  -7.97998E+1
   2.17245E+2   2.29141E+2
  -7.35891E+1   2.09279E+1
  -1.35014E+2   5.49091E+1
   1.17324E+2  -4.97381E+1
   1.14128E+2   4.51864E+1
   7.27781E+1   3.25485E+1
  -5.88095E+1   1.94765E+2
   1.34156E+1   1.02880E+2
   2.88566E+0   1.24510E+1
  -2.03801E+0   5.00715E+1
  -1.66162E+1   1.20927E+2
  -2.93289E+1   1.08363E+2
  -1.33792E+2  -4.06429E+1
  -1.84171E+1  -1.94682E+1
   7.57422E+1   1.89966E+2
   7.27059E+1   9.29884E+1
  -2.18771E+1  -2.47481E+1
  -4.13614E+1  -3.44182E+1
  -8.64934E+1  -8.46232E+1
  -4.20611E+1   2.03845E+2
   1.93052E+1   3.59539E+1
  -6.06007E+1  -2.07100E+2
  -1.03901E+2  -6.26112E+1
   1.26115E+2   5.74892E+1
   1.67544E+2  -1.17412E+2
  -1.19567E+2  -4.16659E+1
  -7.86423E+1  -8.81907E+1
   2.10123E+2  -1.14011E+2
  -3.04286E+1   1.11221E+2
  -1.65863E+2   4.87800E+1
  -1.84130E+2   1.72340E+2
  -1.66778E+2   6.88030E+1
   2.32875E+0  -2.25556E+2
   4.49153E+1  -2.48848E+1
   3.57871E+2   2.12531E+2
   1.79229E+1   8.87845E+1
   6.20652E+1   1.37242E+2
  -3.17611E+2   1.94963E+2
  -2.15723E+2   1.82028E+2
  -1.56998E+2  -1.27206E+2
  -1.76873E+0   2.13170E+1
   3.58359E+1  -8.77078E+1
   1.08187E+2   1.99604E+2
  -8.08399E+0   5.12363E-1
  -4.77702E+0   1.60879E+2
   6.84132E+1  -3.29952E+1
  -1.22971E+1   6.53146E+1
  -4.39702E+1  -7.72943E+1
   6.47325E+1  -9.64110E+1
  -1.59180E+1  -6.52629E+1
   6.07125E+1   5.85890E+0
   5.39513E+0   7.90688E+1
   3.62096E+1  -1.19482E+1
   7.00426E-1  -8.53622E+0
   6.66860E+1   1.94155E+1
  -2.99543E+1  -2.43098E+2
  -1.56041E+2   9.40630E+1
   1.42528E+2  -1.12236E+2
   1.57223E+2  -2.35955E+2
   2.86134E+2  -1.16543E+1
  -8.22869E+1   4.77057E+1
  -3.77770E+1   5.93717E+1
  -1.45749E+2   9.79973E+1
  -2.92329E+2  -2.18479E+2
   1.25135E+2  -2.22972E+2
   3.41571E+1  -5.23307E+1
   1.16404E+2  -7.11959E+1
  -9.89117E+1   2.83329E+2
  -1.56526E+2  -1.87581E+0
   3.19500E+1  -1.19416E+1
