 
 $NMID
 ID=''
 FMTDAT='(2E13.5)'
 TRAMP=   1.00000E+0
 VOLUME=   1.00000E+0
 $END
   6.24819E+5   4.13608E+5
   1.14055E+6   1.55358E+6
   1.22942E+6   1.37191E+6
   1.05627E+6   1.41669E+6
   1.11378E+6   1.53485E+6
   1.13188E+6   1.42770E+6
   1.00503E+6   1.40900E+6
   1.00310E+6   1.50043E+6
   1.03756E+6   1.46524E+6
   9.79439E+5   1.43840E+6
   9.48571E+5   1.46074E+6
   9.27133E+5   1.44591E+6
   8.93164E+5   1.45543E+6
   8.96665E+5   1.46169E+6
   8.71856E+5   1.42740E+6
   8.26172E+5   1.42843E+6
   8.22124E+5   1.44897E+6
   7.98664E+5   1.43278E+6
   7.53239E+5   1.43220E+6
   7.38811E+5   1.43888E+6
   7.11673E+5   1.42803E+6
   6.75926E+5   1.43041E+6
   6.61805E+5   1.42994E+6
   6.36397E+5   1.41721E+6
   6.01330E+5   1.41811E+6
   5.93335E+5   1.41278E+6
   5.74455E+5   1.39981E+6
   5.49162E+5   1.39862E+6
   5.33824E+5   1.39303E+6
   5.15272E+5   1.38049E+6
   4.89595E+5   1.37979E+6
   4.72210E+5   1.37391E+6
   4.48328E+5   1.36467E+6
   4.24476E+5   1.36158E+6
   4.05611E+5   1.35334E+6
   3.84696E+5   1.34471E+6
   3.62448E+5   1.34580E+6
   3.41835E+5   1.33944E+6
   3.19805E+5   1.32643E+6
   3.02278E+5   1.32183E+6
   2.85936E+5   1.31472E+6
   2.67334E+5   1.30354E+6
   2.52999E+5   1.29361E+6
   2.40562E+5   1.28678E+6
   2.22765E+5   1.27835E+6
   2.06787E+5   1.27114E+6
   1.90774E+5   1.26242E+6
   1.70445E+5   1.25362E+6
   1.50123E+5   1.24371E+6
   1.32796E+5   1.23417E+6
   1.15333E+5   1.22605E+6
   9.66960E+4   1.21789E+6
   7.90973E+4   1.20854E+6
   6.11839E+4   1.20007E+6
   4.43914E+4   1.19114E+6
   2.78666E+4   1.18119E+6
   1.17371E+4   1.17057E+6
  -3.38838E+3   1.15935E+6
  -1.63383E+4   1.14869E+6
  -3.01682E+4   1.13949E+6
  -4.51432E+4   1.12966E+6
  -5.96273E+4   1.11908E+6
  -7.45639E+4   1.10877E+6
  -9.03248E+4   1.09832E+6
  -1.05928E+5   1.08551E+6
  -1.19967E+5   1.07288E+6
  -1.33615E+5   1.06077E+6
  -1.47483E+5   1.04928E+6
  -1.61215E+5   1.03865E+6
  -1.75744E+5   1.02705E+6
  -1.89744E+5   1.01488E+6
  -2.01625E+5   1.00230E+6
  -2.12738E+5   9.91667E+5
  -2.25604E+5   9.80169E+5
  -2.38529E+5   9.67335E+5
  -2.50252E+5   9.54895E+5
  -2.61829E+5   9.43345E+5
  -2.74324E+5   9.31038E+5
  -2.86775E+5   9.18234E+5
  -2.98956E+5   9.05014E+5
  -3.11278E+5   8.91796E+5
  -3.22328E+5   8.78813E+5
  -3.32979E+5   8.66241E+5
  -3.44509E+5   8.53588E+5
  -3.55082E+5   8.40182E+5
  -3.64368E+5   8.27119E+5
  -3.73418E+5   8.15017E+5
  -3.82487E+5   8.02818E+5
  -3.91301E+5   7.90381E+5
  -3.98475E+5   7.77649E+5
  -4.05688E+5   7.65656E+5
  -4.13671E+5   7.53855E+5
  -4.22251E+5   7.41595E+5
  -4.29529E+5   7.28832E+5
  -4.36135E+5   7.15875E+5
  -4.42545E+5   7.03996E+5
  -4.49179E+5   6.92056E+5
  -4.55844E+5   6.80170E+5
  -4.62077E+5   6.68184E+5
  -4.67309E+5   6.56376E+5
  -4.72649E+5   6.44900E+5
  -4.78317E+5   6.33381E+5
  -4.83106E+5   6.21347E+5
  -4.86836E+5   6.08891E+5
  -4.89814E+5   5.98132E+5
  -4.93352E+5   5.88187E+5
  -4.97242E+5   5.77273E+5
  -5.00677E+5   5.65327E+5
  -5.02833E+5   5.53519E+5
  -5.04211E+5   5.43331E+5
  -5.06800E+5   5.33571E+5
  -5.10174E+5   5.22551E+5
  -5.13257E+5   5.11327E+5
  -5.15508E+5   4.99992E+5
  -5.17497E+5   4.89224E+5
  -5.19563E+5   4.77742E+5
  -5.21771E+5   4.66650E+5
  -5.22855E+5   4.55139E+5
  -5.22923E+5   4.44317E+5
  -5.23052E+5   4.34255E+5
  -5.24108E+5   4.24962E+5
  -5.25190E+5   4.14823E+5
  -5.25879E+5   4.04755E+5
  -5.26372E+5   3.94075E+5
  -5.26634E+5   3.83453E+5
  -5.26368E+5   3.72788E+5
  -5.25571E+5   3.62192E+5
  -5.25343E+5   3.52083E+5
  -5.25371E+5   3.41765E+5
  -5.25321E+5   3.31661E+5
  -5.25330E+5   3.20024E+5
  -5.24802E+5   3.09047E+5
  -5.23728E+5   2.98555E+5
  -5.22874E+5   2.88440E+5
  -5.21986E+5   2.78050E+5
  -5.20854E+5   2.67472E+5
  -5.19128E+5   2.57434E+5
  -5.18076E+5   2.48084E+5
  -5.17307E+5   2.37868E+5
  -5.15810E+5   2.27465E+5
  -5.13826E+5   2.16933E+5
  -5.11203E+5   2.07345E+5
  -5.08784E+5   1.98209E+5
  -5.07329E+5   1.89243E+5
  -5.05781E+5   1.79764E+5
  -5.03085E+5   1.70178E+5
  -5.00236E+5   1.61031E+5
  -4.97583E+5   1.51985E+5
  -4.94833E+5   1.43019E+5
  -4.91735E+5   1.34261E+5
  -4.88325E+5   1.25983E+5
  -4.85163E+5   1.18064E+5
  -4.82225E+5   1.10644E+5
  -4.79497E+5   1.03016E+5
  -4.76093E+5   9.52342E+4
  -4.72490E+5   8.72624E+4
  -4.68764E+5   8.03299E+4
  -4.65364E+5   7.34724E+4
  -4.62152E+5   6.63497E+4
  -4.58454E+5   5.94738E+4
  -4.54767E+5   5.27007E+4
  -4.50867E+5   4.62075E+4
  -4.47086E+5   3.94922E+4
  -4.43237E+5   3.29899E+4
  -4.38884E+5   2.71872E+4
  -4.34965E+5   2.18196E+4
  -4.31052E+5   1.58686E+4
  -4.27237E+5   1.03179E+4
  -4.23511E+5   4.49329E+3
  -4.19003E+5  -4.81690E+2
  -4.14970E+5  -5.57893E+3
  -4.10759E+5  -1.06360E+4
  -4.06569E+5  -1.55485E+4
  -4.02295E+5  -2.03842E+4
  -3.97856E+5  -2.55004E+4
  -3.93880E+5  -3.00761E+4
  -3.89585E+5  -3.51567E+4
  -3.84737E+5  -4.02390E+4
  -3.80075E+5  -4.47962E+4
  -3.75257E+5  -4.90861E+4
  -3.71337E+5  -5.31325E+4
  -3.67103E+5  -5.79115E+4
  -3.62194E+5  -6.25484E+4
  -3.57247E+5  -6.66167E+4
  -3.52623E+5  -7.07184E+4
  -3.48114E+5  -7.45417E+4
  -3.42919E+5  -7.85127E+4
  -3.38095E+5  -8.18312E+4
  -3.33612E+5  -8.50463E+4
  -3.29104E+5  -8.85086E+4
  -3.24916E+5  -9.24066E+4
  -3.19911E+5  -9.63415E+4
  -3.14514E+5  -1.00137E+5
  -3.09173E+5  -1.03482E+5
  -3.04291E+5  -1.06663E+5
  -2.99596E+5  -1.10099E+5
  -2.94606E+5  -1.13548E+5
  -2.89450E+5  -1.16555E+5
  -2.84522E+5  -1.19891E+5
  -2.79427E+5  -1.23289E+5
  -2.74124E+5  -1.26431E+5
  -2.68936E+5  -1.29289E+5
  -2.63538E+5  -1.31853E+5
  -2.59005E+5  -1.34301E+5
  -2.54294E+5  -1.37198E+5
  -2.48988E+5  -1.39634E+5
  -2.43818E+5  -1.42357E+5
  -2.38660E+5  -1.44621E+5
  -2.33712E+5  -1.47105E+5
  -2.28885E+5  -1.49151E+5
  -2.23513E+5  -1.51428E+5
  -2.18586E+5  -1.53427E+5
  -2.13830E+5  -1.54977E+5
  -2.09031E+5  -1.57154E+5
  -2.04163E+5  -1.59554E+5
  -1.98844E+5  -1.60971E+5
  -1.93602E+5  -1.62225E+5
  -1.88965E+5  -1.63508E+5
  -1.84831E+5  -1.64978E+5
  -1.79841E+5  -1.66127E+5
  -1.75770E+5  -1.67218E+5
  -1.70902E+5  -1.68256E+5
  -1.66378E+5  -1.69405E+5
  -1.61709E+5  -1.70486E+5
  -1.57266E+5  -1.71400E+5
  -1.52832E+5  -1.71887E+5
  -1.48325E+5  -1.72140E+5
  -1.44673E+5  -1.72790E+5
  -1.40425E+5  -1.73612E+5
  -1.36098E+5  -1.73977E+5
  -1.31766E+5  -1.74162E+5
  -1.27887E+5  -1.74265E+5
  -1.23879E+5  -1.74457E+5
  -1.20361E+5  -1.74599E+5
  -1.16133E+5  -1.74724E+5
  -1.12675E+5  -1.74179E+5
  -1.08978E+5  -1.74401E+5
  -1.05253E+5  -1.74097E+5
  -1.02015E+5  -1.73808E+5
  -9.84669E+4  -1.73295E+5
  -9.50034E+4  -1.72793E+5
  -9.19941E+4  -1.72636E+5
  -8.85599E+4  -1.72450E+5
  -8.49090E+4  -1.71767E+5
  -8.16434E+4  -1.70726E+5
  -7.85163E+4  -1.70307E+5
  -7.55054E+4  -1.69533E+5
  -7.20612E+4  -1.69041E+5
  -6.91112E+4  -1.68310E+5
  -6.63148E+4  -1.67128E+5
  -6.36918E+4  -1.66436E+5
  -6.06764E+4  -1.65969E+5
  -5.73090E+4  -1.65027E+5
  -5.43906E+4  -1.63830E+5
  -5.20073E+4  -1.62905E+5
  -4.94479E+4  -1.61721E+5
  -4.66422E+4  -1.60799E+5
  -4.37310E+4  -1.60201E+5
  -4.10008E+4  -1.58847E+5
  -3.80064E+4  -1.58125E+5
  -3.51615E+4  -1.56969E+5
  -3.24402E+4  -1.55651E+5
  -2.97217E+4  -1.54035E+5
  -2.70870E+4  -1.52975E+5
  -2.49375E+4  -1.51565E+5
  -2.24647E+4  -1.50655E+5
  -1.98129E+4  -1.49359E+5
  -1.70967E+4  -1.47934E+5
  -1.46759E+4  -1.46598E+5
  -1.25830E+4  -1.45209E+5
  -1.01215E+4  -1.43679E+5
  -7.92217E+3  -1.42239E+5
  -5.26263E+3  -1.40927E+5
  -3.35210E+3  -1.39465E+5
  -1.08570E+3  -1.38424E+5
   1.22004E+3  -1.36717E+5
   3.49801E+3  -1.35186E+5
   5.57247E+3  -1.33453E+5
   7.81518E+3  -1.31922E+5
   9.68268E+3  -1.30594E+5
   1.17510E+4  -1.28879E+5
   1.38973E+4  -1.27464E+5
   1.55016E+4  -1.25737E+5
   1.74283E+4  -1.24195E+5
   1.94315E+4  -1.22439E+5
   2.12081E+4  -1.20717E+5
   2.30441E+4  -1.18914E+5
   2.43291E+4  -1.17357E+5
   2.58748E+4  -1.15892E+5
   2.77265E+4  -1.14434E+5
   2.93526E+4  -1.12768E+5
   3.10041E+4  -1.10975E+5
   3.24040E+4  -1.09031E+5
   3.36675E+4  -1.07442E+5
   3.51267E+4  -1.05639E+5
   3.67311E+4  -1.04066E+5
   3.80368E+4  -1.02418E+5
   3.92341E+4  -1.00628E+5
   4.05864E+4  -9.90779E+4
   4.18994E+4  -9.75772E+4
   4.28908E+4  -9.57639E+4
   4.38494E+4  -9.42134E+4
   4.51063E+4  -9.25579E+4
   4.61640E+4  -9.09861E+4
   4.72894E+4  -8.91161E+4
   4.81911E+4  -8.73340E+4
   4.91160E+4  -8.58120E+4
   4.98531E+4  -8.44320E+4
   5.11110E+4  -8.28161E+4
   5.17568E+4  -8.10237E+4
   5.24812E+4  -7.95578E+4
   5.32451E+4  -7.81522E+4
   5.41014E+4  -7.67595E+4
   5.49205E+4  -7.50552E+4
   5.54868E+4  -7.31652E+4
   5.59280E+4  -7.18023E+4
   5.64016E+4  -7.03143E+4
   5.73122E+4  -6.87476E+4
   5.77693E+4  -6.71845E+4
   5.81565E+4  -6.54880E+4
   5.85235E+4  -6.41230E+4
   5.90719E+4  -6.28357E+4
   5.94905E+4  -6.12152E+4
   5.96588E+4  -5.95047E+4
   6.00001E+4  -5.79685E+4
   6.03091E+4  -5.68855E+4
   6.07337E+4  -5.53961E+4
   6.11133E+4  -5.38819E+4
   6.11192E+4  -5.19958E+4
   6.14282E+4  -5.08277E+4
   6.15716E+4  -4.94852E+4
   6.16111E+4  -4.81493E+4
   6.18315E+4  -4.68100E+4
   6.17904E+4  -4.56572E+4
   6.18306E+4  -4.41753E+4
   6.22484E+4  -4.28988E+4
   6.21209E+4  -4.12630E+4
   6.23038E+4  -4.00107E+4
   6.23817E+4  -3.85787E+4
   6.19111E+4  -3.72985E+4
   6.19051E+4  -3.61155E+4
   6.20858E+4  -3.49493E+4
   6.20041E+4  -3.36084E+4
   6.16047E+4  -3.25944E+4
   6.14668E+4  -3.11273E+4
   6.14676E+4  -3.00691E+4
   6.12194E+4  -2.87636E+4
   6.09153E+4  -2.76053E+4
   6.02953E+4  -2.64793E+4
   6.00564E+4  -2.54227E+4
   6.01172E+4  -2.42131E+4
   6.00249E+4  -2.28169E+4
   5.96122E+4  -2.19724E+4
   5.92568E+4  -2.11464E+4
   5.90445E+4  -1.98008E+4
   5.84506E+4  -1.88688E+4
   5.82309E+4  -1.76725E+4
   5.77263E+4  -1.70508E+4
   5.73793E+4  -1.61081E+4
   5.73774E+4  -1.51939E+4
   5.68407E+4  -1.39799E+4
   5.62023E+4  -1.29206E+4
   5.57045E+4  -1.21042E+4
   5.52791E+4  -1.14506E+4
   5.50210E+4  -1.04977E+4
   5.45472E+4  -9.68386E+3
   5.41552E+4  -8.64030E+3
