 
 $NMID
 ID=''
 FMTDAT='(2E13.5)'
 TRAMP=   1.00000E+0
 VOLUME=   1.00000E+0
 $END
   2.04972E+5   7.76344E+5
  -2.29723E+5   2.17348E+6
   1.50574E+4   2.13311E+6
  -1.10525E+5   1.97388E+6
  -1.88976E+5   2.06368E+6
  -1.03893E+5   2.05346E+6
  -1.32621E+5   1.97388E+6
  -1.92256E+5   1.99734E+6
  -1.85219E+5   1.98174E+6
  -2.29414E+5   1.94318E+6
  -2.69281E+5   1.94328E+6
  -2.82765E+5   1.90923E+6
  -3.24221E+5   1.88419E+6
  -3.51761E+5   1.88487E+6
  -3.75099E+5   1.84544E+6
  -4.16219E+5   1.81814E+6
  -4.33330E+5   1.81886E+6
  -4.50166E+5   1.78613E+6
  -4.88022E+5   1.76140E+6
  -4.95075E+5   1.75857E+6
  -5.04712E+5   1.72766E+6
  -5.37391E+5   1.70450E+6
  -5.53049E+5   1.69603E+6
  -5.66546E+5   1.66680E+6
  -5.96700E+5   1.64116E+6
  -6.06299E+5   1.62889E+6
  -6.22877E+5   1.60297E+6
  -6.52927E+5   1.57750E+6
  -6.70217E+5   1.55566E+6
  -6.81388E+5   1.53117E+6
  -7.04317E+5   1.51111E+6
  -7.16133E+5   1.49031E+6
  -7.26939E+5   1.46385E+6
  -7.41028E+5   1.44589E+6
  -7.48473E+5   1.42735E+6
  -7.54898E+5   1.40544E+6
  -7.66803E+5   1.39037E+6
  -7.76035E+5   1.37239E+6
  -7.85732E+5   1.34590E+6
  -7.97191E+5   1.32562E+6
  -8.05841E+5   1.30454E+6
  -8.15577E+5   1.27972E+6
  -8.24041E+5   1.25724E+6
  -8.31054E+5   1.23680E+6
  -8.40702E+5   1.21315E+6
  -8.51881E+5   1.19233E+6
  -8.60465E+5   1.16998E+6
  -8.68014E+5   1.14523E+6
  -8.72556E+5   1.12268E+6
  -8.77424E+5   1.10295E+6
  -8.83422E+5   1.08160E+6
  -8.88480E+5   1.06123E+6
  -8.92098E+5   1.04193E+6
  -8.97785E+5   1.02110E+6
  -9.03116E+5   9.99286E+5
  -9.06554E+5   9.77752E+5
  -9.11410E+5   9.54578E+5
  -9.15020E+5   9.31786E+5
  -9.15910E+5   9.10416E+5
  -9.17963E+5   8.90098E+5
  -9.22331E+5   8.68802E+5
  -9.25057E+5   8.47637E+5
  -9.26137E+5   8.26385E+5
  -9.27640E+5   8.05345E+5
  -9.28216E+5   7.84080E+5
  -9.26949E+5   7.62973E+5
  -9.25550E+5   7.42619E+5
  -9.24823E+5   7.23281E+5
  -9.25196E+5   7.03839E+5
  -9.25657E+5   6.82356E+5
  -9.24682E+5   6.61705E+5
  -9.22188E+5   6.41850E+5
  -9.20897E+5   6.22683E+5
  -9.20169E+5   6.02823E+5
  -9.17534E+5   5.82594E+5
  -9.14313E+5   5.63161E+5
  -9.12215E+5   5.44040E+5
  -9.09491E+5   5.25329E+5
  -9.06105E+5   5.06254E+5
  -9.02880E+5   4.86861E+5
  -8.99223E+5   4.68025E+5
  -8.94270E+5   4.49353E+5
  -8.90205E+5   4.31421E+5
  -8.86445E+5   4.12396E+5
  -8.81842E+5   3.93080E+5
  -8.76458E+5   3.74901E+5
  -8.71581E+5   3.57551E+5
  -8.66760E+5   3.40089E+5
  -8.60660E+5   3.22352E+5
  -8.54359E+5   3.05946E+5
  -8.47914E+5   2.90562E+5
  -8.41976E+5   2.75265E+5
  -8.35909E+5   2.59314E+5
  -8.28795E+5   2.44062E+5
  -8.20871E+5   2.29509E+5
  -8.12962E+5   2.15565E+5
  -8.06173E+5   2.01899E+5
  -7.99572E+5   1.88350E+5
  -7.91888E+5   1.74523E+5
  -7.84063E+5   1.61100E+5
  -7.76571E+5   1.47999E+5
  -7.69170E+5   1.34665E+5
  -7.60854E+5   1.21199E+5
  -7.51930E+5   1.08111E+5
  -7.43357E+5   9.68265E+4
  -7.35179E+5   8.59036E+4
  -7.27897E+5   7.43555E+4
  -7.19128E+5   6.17814E+4
  -7.09312E+5   5.09555E+4
  -6.99951E+5   4.13918E+4
  -6.91956E+5   3.18533E+4
  -6.83945E+5   2.14693E+4
  -6.75343E+5   1.05919E+4
  -6.66393E+5   9.38869E+1
  -6.57618E+5  -9.48615E+3
  -6.48882E+5  -1.97532E+4
  -6.39596E+5  -2.99262E+4
  -6.29657E+5  -3.93704E+4
  -6.20030E+5  -4.74685E+4
  -6.10843E+5  -5.54273E+4
  -6.02383E+5  -6.34343E+4
  -5.93692E+5  -7.14504E+4
  -5.84751E+5  -7.96128E+4
  -5.75686E+5  -8.73757E+4
  -5.66459E+5  -9.53505E+4
  -5.56540E+5  -1.02550E+5
  -5.47032E+5  -1.09469E+5
  -5.37680E+5  -1.16487E+5
  -5.28797E+5  -1.23323E+5
  -5.19467E+5  -1.30381E+5
  -5.10360E+5  -1.38127E+5
  -5.00166E+5  -1.45522E+5
  -4.90045E+5  -1.51955E+5
  -4.80949E+5  -1.57586E+5
  -4.71903E+5  -1.63594E+5
  -4.61540E+5  -1.69738E+5
  -4.52333E+5  -1.74743E+5
  -4.43512E+5  -1.79904E+5
  -4.34555E+5  -1.85319E+5
  -4.24873E+5  -1.90649E+5
  -4.15267E+5  -1.95385E+5
  -4.06251E+5  -1.99289E+5
  -3.96855E+5  -2.03072E+5
  -3.88126E+5  -2.07332E+5
  -3.79370E+5  -2.11448E+5
  -3.69781E+5  -2.15150E+5
  -3.60426E+5  -2.19036E+5
  -3.51031E+5  -2.22303E+5
  -3.42029E+5  -2.25345E+5
  -3.32716E+5  -2.27824E+5
  -3.23922E+5  -2.30252E+5
  -3.15469E+5  -2.32450E+5
  -3.07200E+5  -2.34583E+5
  -2.99242E+5  -2.37066E+5
  -2.90748E+5  -2.39001E+5
  -2.82263E+5  -2.40618E+5
  -2.74496E+5  -2.41802E+5
  -2.66598E+5  -2.42985E+5
  -2.58603E+5  -2.44476E+5
  -2.50706E+5  -2.45200E+5
  -2.43066E+5  -2.46149E+5
  -2.35556E+5  -2.46946E+5
  -2.27776E+5  -2.47499E+5
  -2.20061E+5  -2.47994E+5
  -2.12645E+5  -2.47994E+5
  -2.05795E+5  -2.48203E+5
  -1.99108E+5  -2.48287E+5
  -1.91962E+5  -2.48474E+5
  -1.84944E+5  -2.48567E+5
  -1.78237E+5  -2.48101E+5
  -1.71760E+5  -2.47620E+5
  -1.65571E+5  -2.47393E+5
  -1.59046E+5  -2.46957E+5
  -1.52808E+5  -2.46198E+5
  -1.46527E+5  -2.45579E+5
  -1.40270E+5  -2.44767E+5
  -1.34484E+5  -2.44171E+5
  -1.28178E+5  -2.43476E+5
  -1.21991E+5  -2.41977E+5
  -1.16448E+5  -2.40856E+5
  -1.10948E+5  -2.39904E+5
  -1.05614E+5  -2.39177E+5
  -9.96660E+4  -2.38153E+5
  -9.42580E+4  -2.36528E+5
  -8.87343E+4  -2.35308E+5
  -8.40917E+4  -2.33549E+5
  -7.88210E+4  -2.31830E+5
  -7.37326E+4  -2.30043E+5
  -6.90710E+4  -2.28356E+5
  -6.47764E+4  -2.26586E+5
  -6.02699E+4  -2.25502E+5
  -5.49160E+4  -2.23987E+5
  -5.00026E+4  -2.21930E+5
  -4.52874E+4  -2.19583E+5
  -4.08767E+4  -2.17478E+5
  -3.68839E+4  -2.15723E+5
  -3.22551E+4  -2.13763E+5
  -2.80833E+4  -2.11508E+5
  -2.37773E+4  -2.09332E+5
  -1.92596E+4  -2.07474E+5
  -1.49314E+4  -2.05563E+5
  -1.08496E+4  -2.02891E+5
  -7.05509E+3  -2.00267E+5
  -3.33007E+3  -1.98042E+5
   2.01454E+2  -1.95683E+5
   3.95767E+3  -1.93267E+5
   7.82291E+3  -1.90690E+5
   1.12507E+4  -1.88240E+5
   1.47777E+4  -1.85729E+5
   1.81356E+4  -1.83208E+5
   2.16344E+4  -1.80583E+5
   2.47716E+4  -1.77965E+5
   2.76566E+4  -1.75253E+5
   3.03834E+4  -1.72989E+5
   3.38645E+4  -1.70265E+5
   3.69296E+4  -1.67712E+5
   3.94723E+4  -1.64716E+5
   4.20774E+4  -1.61870E+5
   4.43860E+4  -1.59480E+5
   4.69515E+4  -1.56697E+5
   4.91267E+4  -1.53896E+5
   5.12366E+4  -1.51143E+5
   5.35428E+4  -1.48797E+5
   5.55691E+4  -1.46033E+5
   5.77329E+4  -1.43372E+5
   5.95870E+4  -1.40580E+5
   6.13411E+4  -1.37890E+5
   6.27679E+4  -1.35085E+5
   6.46095E+4  -1.32876E+5
   6.63799E+4  -1.30189E+5
   6.77539E+4  -1.27484E+5
   6.90208E+4  -1.24803E+5
   7.01966E+4  -1.22335E+5
   7.16737E+4  -1.20140E+5
   7.29080E+4  -1.17397E+5
   7.36532E+4  -1.15209E+5
   7.45082E+4  -1.12986E+5
   7.55108E+4  -1.10377E+5
   7.65318E+4  -1.08126E+5
   7.70767E+4  -1.05641E+5
   7.78369E+4  -1.03481E+5
   7.84679E+4  -1.01367E+5
   7.89506E+4  -9.92711E+4
   7.97909E+4  -9.67018E+4
   8.05269E+4  -9.45323E+4
   8.05975E+4  -9.23596E+4
   8.11218E+4  -9.02217E+4
   8.17077E+4  -8.82878E+4
   8.17040E+4  -8.57804E+4
   8.18938E+4  -8.35544E+4
   8.22315E+4  -8.17035E+4
   8.26301E+4  -8.01021E+4
   8.28018E+4  -7.78927E+4
   8.28193E+4  -7.58183E+4
   8.30035E+4  -7.36844E+4
   8.28790E+4  -7.18164E+4
   8.30908E+4  -7.00882E+4
   8.27956E+4  -6.80418E+4
   8.31743E+4  -6.61119E+4
   8.31363E+4  -6.43946E+4
   8.31258E+4  -6.24660E+4
   8.31314E+4  -6.02454E+4
   8.27887E+4  -5.84403E+4
   8.27139E+4  -5.65914E+4
   8.23263E+4  -5.49361E+4
   8.20350E+4  -5.34915E+4
   8.21821E+4  -5.16439E+4
   8.18677E+4  -4.96067E+4
   8.16607E+4  -4.78544E+4
   8.11521E+4  -4.62285E+4
   8.09412E+4  -4.47871E+4
   8.04892E+4  -4.29862E+4
   7.97859E+4  -4.16153E+4
   7.91981E+4  -3.99744E+4
   7.91812E+4  -3.85512E+4
   7.90703E+4  -3.68212E+4
   7.83923E+4  -3.50812E+4
   7.78194E+4  -3.36890E+4
   7.72176E+4  -3.20469E+4
   7.68603E+4  -3.08760E+4
   7.63085E+4  -2.93003E+4
   7.58050E+4  -2.79142E+4
   7.50608E+4  -2.67032E+4
   7.46500E+4  -2.53588E+4
   7.38806E+4  -2.38942E+4
   7.31134E+4  -2.24407E+4
   7.24972E+4  -2.12127E+4
   7.15708E+4  -2.02624E+4
   7.10272E+4  -1.90848E+4
   7.01636E+4  -1.77940E+4
   6.96440E+4  -1.67339E+4
   6.89683E+4  -1.53428E+4
   6.81057E+4  -1.42792E+4
   6.73091E+4  -1.30621E+4
   6.67803E+4  -1.19780E+4
   6.60535E+4  -1.10408E+4
   6.51021E+4  -1.02140E+4
   6.44538E+4  -9.28721E+3
   6.37030E+4  -7.91696E+3
   6.28985E+4  -6.95938E+3
   6.19709E+4  -6.02945E+3
   6.12695E+4  -5.24111E+3
   6.04870E+4  -4.64024E+3
   5.98539E+4  -3.59064E+3
   5.89952E+4  -2.39507E+3
   5.83433E+4  -2.02391E+3
   5.71847E+4  -1.24746E+3
   5.63677E+4  -3.62503E+2
   5.59571E+4   5.96275E+2
   5.50287E+4   1.46938E+3
   5.43799E+4   2.02788E+3
   5.34375E+4   2.41319E+3
   5.29065E+4   3.18315E+3
   5.19806E+4   3.95690E+3
   5.12827E+4   4.72283E+3
   5.02110E+4   5.53496E+3
   4.93641E+4   5.79949E+3
   4.87673E+4   6.46347E+3
   4.81509E+4   6.89723E+3
   4.72042E+4   7.43872E+3
   4.65303E+4   7.92230E+3
   4.58371E+4   8.41651E+3
   4.48891E+4   8.94419E+3
   4.43749E+4   9.52666E+3
   4.34085E+4   9.93170E+3
   4.28527E+4   1.03254E+4
   4.21163E+4   1.08103E+4
   4.15726E+4   1.13129E+4
   4.06329E+4   1.17157E+4
   3.98146E+4   1.22587E+4
   3.92049E+4   1.25778E+4
   3.83967E+4   1.27763E+4
   3.78196E+4   1.33022E+4
   3.71392E+4   1.33208E+4
   3.65074E+4   1.38391E+4
   3.56907E+4   1.41075E+4
   3.52135E+4   1.44478E+4
   3.45418E+4   1.49291E+4
   3.37155E+4   1.51923E+4
   3.28466E+4   1.51148E+4
   3.21759E+4   1.52926E+4
   3.16998E+4   1.55940E+4
   3.10974E+4   1.60066E+4
   3.05153E+4   1.62862E+4
   2.98436E+4   1.64746E+4
   2.90355E+4   1.65146E+4
   2.84707E+4   1.67810E+4
   2.76246E+4   1.68569E+4
   2.70526E+4   1.70987E+4
   2.69011E+4   1.72761E+4
   2.62069E+4   1.72822E+4
   2.53623E+4   1.75757E+4
   2.48593E+4   1.78184E+4
   2.42898E+4   1.79139E+4
   2.34133E+4   1.79344E+4
   2.32125E+4   1.81380E+4
   2.26004E+4   1.80995E+4
   2.21186E+4   1.81153E+4
   2.14580E+4   1.81171E+4
   2.09841E+4   1.85458E+4
   2.04979E+4   1.84028E+4
   1.99356E+4   1.86719E+4
   1.95456E+4   1.87127E+4
   1.90624E+4   1.86161E+4
   1.87449E+4   1.84811E+4
   1.80748E+4   1.88935E+4
   1.78364E+4   1.89321E+4
