 LCModel (Version 6.3-1N) Copyright: S.W. Provencher.          Ref.: Magn. Reson. Med. 30:672-679 (1993).                
 Slice_N1@20_10  28-Feb-2025 11:42:19
 27 lines in following concentration table = NCONC+1
    Conc.  %SD /Cr+PCr  Metabolite                                         
 2.73E-04   5% 2.4E-04 Mac                                                 
    4.538  27%   3.936 Cr                                                  
    4.685  26%   4.064 PCr                                                 
   12.474   9%  10.820 Ins                                                 
   13.152   6%  11.408 NAA                                                 
    6.128  15%   5.315 Tau                                                 
    0.000 999%   0.000 PCho                                                
    2.231  10%   1.935 GPC                                                 
   14.079   8%  12.213 Glu                                                 
    4.764  19%   4.132 Gln                                                 
    0.000 999%   0.000 Ala                                                 
   14.093   9%  12.225 Asc                                                 
    1.571  80%   1.363 Asp                                                 
    1.694  37%   1.469 GABA                                                
    0.643 142%   0.558 Glc                                                 
    2.737  20%   2.374 GSH                                                 
    2.324  33%   2.016 Lac                                                 
    1.890  34%   1.639 NAAG                                                
    0.000 999%   0.000 PE                                                  
    2.231  10%   1.935 GPC+PCho                                            
   15.042   6%  13.047 NAA+NAAG                                            
   18.843   8%  16.345 Glu+Gln                                             
    9.223   8%   8.000 Cr+PCr                                              
   15.042   6%  13.047 NAA+NAAG                                            
    9.223   8%   8.000 Cr+PCr                                              
   18.843   8%  16.345 Glu+Gln                                             
   6 lines in following misc. output table
  FWHM = 0.024 ppm    S/N =   4                                            
  Data shift = 0.024 ppm                                                   
  Ph:-172 deg       0.0 deg/ppm                                            
  alphaB,S = 1.0E-01,   5.1E+00                                            
   19 spline knots.   Ns = 5(1)                                            
  ( 3) 2 infls.   ( 1) 1 extrs.                                            
  480 points on ppm-axis = NY
      4.100000     4.091866     4.083733     4.075600     4.067466     4.059333     4.051199     4.043066     4.034933     4.026799
      4.018666     4.010532     4.002399     3.994265     3.986132     3.977998     3.969864     3.961731     3.953597     3.945463
      3.937330     3.929196     3.921062     3.912929     3.904795     3.896662     3.888528     3.880394     3.872261     3.864127
      3.855993     3.847860     3.839726     3.831592     3.823459     3.815325     3.807191     3.799058     3.790924     3.782790
      3.774657     3.766523     3.758389     3.750256     3.742122     3.733989     3.725855     3.717721     3.709588     3.701454
      3.693320     3.685187     3.677053     3.668919     3.660786     3.652652     3.644518     3.636385     3.628251     3.620117
      3.611984     3.603850     3.595716     3.587583     3.579449     3.571316     3.563182     3.555048     3.546915     3.538781
      3.530647     3.522514     3.514380     3.506246     3.498113     3.489979     3.481845     3.473712     3.465578     3.457444
      3.449311     3.441177     3.433043     3.424910     3.416776     3.408643     3.400509     3.392375     3.384242     3.376108
      3.367974     3.359841     3.351707     3.343573     3.335440     3.327306     3.319172     3.311039     3.302905     3.294771
      3.286638     3.278504     3.270370     3.262237     3.254103     3.245970     3.237836     3.229702     3.221569     3.213435
      3.205301     3.197168     3.189034     3.180900     3.172767     3.164633     3.156499     3.148366     3.140232     3.132098
      3.123965     3.115831     3.107697     3.099564     3.091430     3.083297     3.075163     3.067029     3.058896     3.050762
      3.042628     3.034495     3.026361     3.018227     3.010094     3.001960     2.993826     2.985693     2.977559     2.969425
      2.961292     2.953158     2.945024     2.936891     2.928757     2.920624     2.912490     2.904356     2.896223     2.888089
      2.879955     2.871822     2.863688     2.855554     2.847421     2.839287     2.831153     2.823020     2.814886     2.806752
      2.798619     2.790485     2.782351     2.774218     2.766084     2.757951     2.749817     2.741683     2.733550     2.725416
      2.717282     2.709149     2.701015     2.692881     2.684748     2.676614     2.668480     2.660347     2.652213     2.644079
      2.635946     2.627812     2.619678     2.611545     2.603411     2.595278     2.587144     2.579010     2.570877     2.562743
      2.554609     2.546476     2.538342     2.530208     2.522075     2.513941     2.505807     2.497674     2.489540     2.481406
      2.473273     2.465139     2.457006     2.448872     2.440738     2.432605     2.424471     2.416337     2.408204     2.400070
      2.391936     2.383803     2.375669     2.367535     2.359402     2.351268     2.343134     2.335001     2.326867     2.318733
      2.310600     2.302466     2.294333     2.286199     2.278065     2.269932     2.261798     2.253664     2.245531     2.237397
      2.229263     2.221130     2.212996     2.204862     2.196729     2.188595     2.180461     2.172328     2.164194     2.156060
      2.147927     2.139793     2.131660     2.123526     2.115392     2.107259     2.099125     2.090991     2.082858     2.074724
      2.066590     2.058457     2.050323     2.042189     2.034056     2.025922     2.017788     2.009655     2.001521     1.993387
      1.985254     1.977120     1.968987     1.960853     1.952719     1.944586     1.936452     1.928318     1.920185     1.912051
      1.903917     1.895784     1.887650     1.879516     1.871383     1.863249     1.855115     1.846982     1.838848     1.830714
      1.822581     1.814447     1.806314     1.798180     1.790046     1.781913     1.773779     1.765645     1.757512     1.749378
      1.741244     1.733111     1.724977     1.716843     1.708710     1.700576     1.692442     1.684309     1.676175     1.668041
      1.659908     1.651774     1.643641     1.635507     1.627373     1.619240     1.611106     1.602972     1.594839     1.586705
      1.578571     1.570438     1.562304     1.554170     1.546037     1.537903     1.529769     1.521636     1.513502     1.505368
      1.497235     1.489101     1.480968     1.472834     1.464700     1.456567     1.448433     1.440299     1.432166     1.424032
      1.415898     1.407765     1.399631     1.391497     1.383364     1.375230     1.367096     1.358963     1.350829     1.342695
      1.334562     1.326428     1.318295     1.310161     1.302027     1.293894     1.285760     1.277626     1.269493     1.261359
      1.253225     1.245092     1.236958     1.228824     1.220691     1.212557     1.204423     1.196290     1.188156     1.180022
      1.171889     1.163755     1.155622     1.147488     1.139354     1.131221     1.123087     1.114953     1.106820     1.098686
      1.090552     1.082419     1.074285     1.066151     1.058018     1.049884     1.041750     1.033617     1.025483     1.017349
      1.009216     1.001082     0.992949     0.984815     0.976681     0.968548     0.960414     0.952280     0.944147     0.936013
      0.927879     0.919746     0.911612     0.903478     0.895345     0.887211     0.879077     0.870944     0.862810     0.854676
      0.846543     0.838409     0.830276     0.822142     0.814008     0.805875     0.797741     0.789607     0.781474     0.773340
      0.765206     0.757073     0.748939     0.740805     0.732672     0.724538     0.716404     0.708271     0.700137     0.692003
      0.683870     0.675736     0.667603     0.659469     0.651335     0.643202     0.635068     0.626934     0.618801     0.610667
      0.602533     0.594400     0.586266     0.578132     0.569999     0.561865     0.553731     0.545598     0.537464     0.529330
      0.521197     0.513063     0.504930     0.496796     0.488662     0.480529     0.472395     0.464261     0.456128     0.447994
      0.439861     0.431727     0.423593     0.415460     0.407326     0.399192     0.391059     0.382925     0.374792     0.366658
      0.358524     0.350391     0.342257     0.334124     0.325990     0.317856     0.309723     0.301589     0.293455     0.285322
      0.277188     0.269055     0.260921     0.252787     0.244654     0.236520     0.228386     0.220253     0.212119     0.203986
 NY phased data points follow
   1.42343E+02  1.45652E+02  1.50330E+02  1.38911E+02  1.43428E+02  1.46475E+02  1.50107E+02  1.33544E+02  1.40459E+02  1.41144E+02
   1.20862E+02  1.24846E+02  1.01400E+02  1.04038E+02  1.14872E+02  9.83300E+01  9.52766E+01  6.99249E+01  6.07598E+01  4.18277E+01
   2.95681E+01  6.57177E+01  5.37780E+01  8.63074E+01  1.30603E+02  1.18516E+02  1.29074E+02  1.21637E+02  1.10511E+02  1.02642E+02
   9.96879E+01  9.17524E+01  7.31124E+01  6.89467E+01  6.15876E+01  3.37208E+01  1.21943E+01 -7.64875E+00 -4.75327E+01 -7.38208E+01
  -1.10119E+02 -1.16662E+02 -1.10088E+02 -1.05187E+02 -7.86608E+01 -6.42798E+01 -3.67513E+01 -2.80515E+01 -2.22683E+01 -1.30968E+01
  -1.61477E+01 -2.17683E+01 -2.99601E+01 -4.26085E+01 -6.16436E+01 -6.38861E+01 -5.76397E+01 -7.06836E+01 -8.82779E+01 -7.60217E+01
  -7.25046E+01 -6.15990E+01 -4.62050E+01 -3.27039E+01 -2.85681E+01 -2.95599E+01 -1.94808E+01 -4.56076E+01 -7.44985E+01 -1.02656E+02
  -7.82098E+01 -7.12283E+01 -8.50201E+01 -4.63072E+01 -3.83260E+01 -2.80988E+01 -1.40209E+01 -1.15771E+01 -1.60509E+01  2.04411E+00
  -1.74263E+01 -3.80405E+01 -3.69674E+01 -6.64148E+01 -6.48061E+01 -8.64409E+01 -6.22017E+01 -4.63467E+01 -4.57165E+01  8.39779E-01
  -2.26321E+00 -1.77888E+01 -1.01429E+01  1.06528E+01  7.36845E+00  1.52980E+01  1.44327E+01  8.75723E+00  8.92678E-01 -8.49353E+00
   1.02160E+01 -1.24613E+01 -2.18916E+01 -3.03391E+01 -4.85066E+01 -5.61720E+01 -8.14226E+01 -9.50238E+01 -1.12719E+02 -1.57755E+02
  -1.99472E+02 -1.97449E+02 -1.61257E+02 -1.25298E+02 -1.16666E+02 -1.02061E+02 -7.44099E+01 -6.31163E+01 -5.99247E+01 -5.03893E+01
  -5.56542E+01 -5.63234E+01 -2.93736E+01 -2.99360E+01 -2.12870E+01 -3.78168E+00 -1.28978E+00  2.30746E+01  5.57815E+01  8.99633E+01
   1.18824E+02  6.48811E+01 -6.54287E+01 -1.27158E+02 -1.32275E+02 -1.38864E+02 -1.32534E+02 -1.24422E+02 -1.16027E+02 -1.16185E+02
  -1.08625E+02 -1.12799E+02 -1.20397E+02 -1.03341E+02 -1.21667E+02 -1.15071E+02 -8.44995E+01 -9.54701E+01 -8.47893E+01 -9.01545E+01
  -9.28061E+01 -8.24619E+01 -8.06210E+01 -6.78497E+01 -6.92291E+01 -6.27944E+01 -6.63303E+01 -6.90516E+01 -7.20454E+01 -5.79270E+01
  -4.80780E+01 -5.79095E+01 -4.87895E+01 -6.07069E+01 -5.93985E+01 -4.62338E+01 -4.67708E+01 -5.30042E+01 -2.92282E+01 -3.00883E+01
  -3.98660E+01  1.51381E+00  5.38568E+00  3.03123E+00 -1.18631E+01 -6.56551E+00  7.73919E+00 -1.06514E+00 -1.78365E+01 -5.61412E+01
  -4.73430E+01 -6.48917E+01 -7.46064E+01 -6.75927E+01 -8.23584E+01 -6.95508E+01 -7.38840E+01 -6.84305E+01 -5.23044E+01 -4.11920E+01
  -5.07555E+01 -4.25867E+01 -2.38570E+01 -3.49920E+01 -2.53360E+01 -3.53308E+01 -3.04003E+01 -2.24711E+01 -2.61826E+01 -2.23822E+01
  -3.10071E+01 -1.61380E+01 -2.40751E+01 -1.35116E+01 -1.75061E+01 -3.59904E+01 -3.55914E+01 -6.31519E+01 -5.43548E+01 -6.83244E+01
  -8.15571E+01 -6.96606E+01 -4.58214E+01 -3.06906E+01 -1.75690E+01  3.74741E+01  4.14694E+01  4.14470E+01  2.49692E+01  1.66553E+01
   9.97538E+00 -2.49612E+01 -2.43380E+01 -2.26100E+01  1.57421E+00 -1.22415E+01 -1.19759E+01  6.97587E+00 -9.25717E+00 -9.13471E+00
  -1.68528E+01 -2.50341E+01 -3.71582E+01 -4.31611E+01 -4.89165E+01 -6.76824E+01 -9.31459E+01 -9.27313E+01 -8.68499E+01 -8.54824E+01
  -8.15492E+01 -8.67267E+01 -6.61276E+01 -5.57088E+01 -5.19721E+01 -5.15892E+01 -3.72562E+01 -2.61911E+01 -5.36631E+01 -5.60627E+01
  -5.01282E+01 -6.48927E+01 -6.23249E+01 -7.37191E+01 -9.22682E+01 -1.24845E+02 -1.21170E+02  6.28209E+01  1.66852E+02  1.67503E+02
   1.85470E+02  1.48781E+02  1.50040E+02  1.14857E+02  9.07344E+01  8.48986E+01  9.22312E+01  9.56835E+01  6.29867E+01  8.20200E+01
   7.59308E+01  7.11527E+01  7.32219E+01  7.76491E+01  6.37793E+01  6.56798E+01  7.79584E+01  6.62671E+01  7.77862E+01  6.09237E+01
   7.20799E+01  6.99213E+01  6.55904E+01  5.97047E+01  4.64700E+01  5.69188E+01  4.77661E+01  6.58879E+01  5.45157E+01  4.68281E+01
   5.03837E+01  4.49322E+01  4.28793E+01  2.95251E+01  2.95084E+01  7.68578E+00  6.59437E+00  1.09017E+01  1.73995E+00  8.92483E+00
   9.79563E+00  2.03095E+01  2.74214E+01  2.42915E+01  2.21661E+01  1.23590E+01  2.28290E+01  3.09115E+01  1.81058E+01  1.14647E+01
   2.43974E+01  3.24882E+01  2.32025E+01  5.37285E+01  4.75900E+01  3.48478E+01  5.90048E+01  4.68586E+01  4.83095E+01  4.61804E+01
   5.60386E+01  6.22482E+01  4.90460E+01  6.12710E+01  6.85182E+01  5.77643E+01  5.37042E+01  5.97652E+01  4.97042E+01  5.05425E+01
   4.78493E+01  4.09593E+01  2.66684E+01  1.06323E+00 -1.51357E+00  6.76966E+00  8.20632E+00  1.58600E+00  1.61820E+01  9.59713E+00
   7.94761E-01  5.19698E+00  6.21861E-02  1.53082E+01  1.40809E+01  1.38450E+01  2.36380E+01  3.07340E+01  2.85211E+01  2.06994E+01
   2.36248E+01  1.64769E+01  1.76691E+01  1.10610E+01 -6.31936E+00 -2.02455E+01 -2.69589E+01 -1.08686E+01 -1.16681E+01 -2.74556E+01
  -3.40632E+01 -2.10805E+01 -9.88752E+00 -8.57446E+00  1.13151E+01  1.34482E+01  1.52022E+01  1.68344E+01  1.10376E+01  2.83791E+01
   4.40172E+01  4.21532E+01  3.89254E+01  5.46712E+01  5.46229E+01  4.75597E+01  5.25701E+01  6.83004E+01  6.57326E+01  6.08402E+01
   8.88852E+01  8.80053E+01  9.76302E+01  1.03277E+02  1.12109E+02  1.32368E+02  1.29227E+02  1.46716E+02  1.50159E+02  1.38795E+02
   1.27523E+02  1.23267E+02  9.37523E+01  7.41373E+01  7.71818E+01  5.66528E+01  5.37566E+01  5.52054E+01  4.79838E+01  1.38992E+01
   1.04957E+01  1.10917E+01 -1.19609E+01 -1.15017E+01 -2.57212E+01 -2.61392E+01 -2.73362E+01 -2.93226E+01 -3.13135E+01 -3.71655E+01
  -2.39460E+01 -1.63559E+01 -2.25914E+01 -1.58481E+01 -2.03063E+01 -2.66425E+01 -9.45246E+00 -3.11306E+01 -1.70321E+01 -9.55805E+00
  -3.26132E+01 -2.08787E+01 -1.96328E+01 -1.05731E+01 -2.00788E+01 -1.12317E+01 -6.93626E+00 -7.81440E+00 -4.42653E+00 -2.47708E+01
  -7.62616E+00 -9.13395E+00 -1.34147E+01 -1.24816E+01 -1.74065E+01 -1.09771E+01 -1.27635E+01 -8.76260E+00 -1.16546E+01 -1.68210E+01
  -1.94871E+01 -1.04809E+01 -1.43255E+01 -2.72016E+01 -1.78402E+01 -1.29871E+01 -1.52222E+01 -1.47428E+01 -1.30995E+01 -4.92533E+00
  -4.41447E+00 -1.92064E+01 -2.08126E+01 -1.60193E+01 -1.73664E+01 -1.97323E+01 -6.42189E+00 -1.27166E+01 -2.04582E+01  4.39895E+00
  -1.59716E+01 -1.78954E+01 -5.30305E+00 -2.03994E+01 -1.26358E+01 -9.03794E+00 -7.05193E+00 -2.02952E+01 -2.19275E+01 -9.64030E+00
  -1.05071E+01 -4.56459E+00 -8.76952E+00 -1.42913E+01 -1.22879E+01 -1.91386E+00 -1.79006E+00 -1.58627E+00 -3.87639E+00 -1.97819E+01
 NY points of the fit to the data follow
   1.36119E+02  1.24831E+02  1.12012E+02  1.04251E+02  1.14653E+02  1.38133E+02  1.48437E+02  1.38149E+02  1.19981E+02  1.00148E+02
   8.68554E+01  8.23991E+01  8.69149E+01  9.70627E+01  1.00786E+02  9.77555E+01  8.88392E+01  7.05710E+01  5.10665E+01  2.88790E+01
   1.92304E+01  3.69008E+01  5.72899E+01  8.40333E+01  1.08063E+02  1.11738E+02  1.09932E+02  1.08926E+02  1.04551E+02  9.90711E+01
   9.34853E+01  8.74194E+01  8.08205E+01  7.27125E+01  6.20459E+01  4.81883E+01  3.30428E+01  1.34815E+01 -1.46732E+01 -5.38819E+01
  -8.89055E+01 -9.71487E+01 -8.79552E+01 -8.40057E+01 -8.13652E+01 -6.42936E+01 -3.88661E+01 -1.31743E+01  8.79115E+00  2.42487E+01
   2.73646E+01  2.07426E+01  9.12367E+00 -9.49770E+00 -2.72621E+01 -3.78391E+01 -4.13397E+01 -5.37958E+01 -7.46314E+01 -6.86349E+01
  -5.52601E+01 -5.38496E+01 -3.48985E+01 -1.21673E+01 -4.78123E+00 -3.21434E+00 -1.31275E+01 -4.35675E+01 -8.60188E+01 -1.06913E+02
  -9.69692E+01 -8.98771E+01 -8.14034E+01 -5.60239E+01 -3.34778E+01 -2.08822E+01 -1.27297E+01 -9.15894E+00 -9.02979E+00 -1.08627E+01
  -1.58283E+01 -2.64442E+01 -3.95456E+01 -5.45894E+01 -6.46325E+01 -6.37750E+01 -5.71479E+01 -4.38695E+01 -3.03420E+01 -2.16226E+01
  -1.46136E+01 -8.98410E+00 -4.19290E+00  4.60001E-01  5.05346E+00  1.00373E+01  1.30184E+01  1.23072E+01  5.73600E+00  2.33056E-01
  -2.58459E+00 -1.40708E+01 -2.61340E+01 -3.33327E+01 -5.09584E+01 -6.81186E+01 -7.18020E+01 -7.40982E+01 -1.04403E+02 -1.68177E+02
  -1.98500E+02 -1.80899E+02 -1.57526E+02 -1.33983E+02 -1.12266E+02 -9.96722E+01 -9.12582E+01 -8.31089E+01 -7.51862E+01 -6.75013E+01
  -5.96583E+01 -5.11819E+01 -4.18737E+01 -3.10862E+01 -1.83855E+01 -2.58882E+00  1.71848E+01  3.05326E+01  4.89674E+01  7.01467E+01
   8.67391E+01  5.07155E+01 -5.81363E+01 -1.22786E+02 -1.29348E+02 -1.31963E+02 -1.23405E+02 -1.10398E+02 -1.06257E+02 -1.05302E+02
  -1.04904E+02 -1.05692E+02 -1.06994E+02 -1.07060E+02 -1.07114E+02 -1.06617E+02 -1.03826E+02 -1.00250E+02 -9.65815E+01 -9.33019E+01
  -9.00521E+01 -8.69203E+01 -8.44065E+01 -8.16669E+01 -7.84467E+01 -7.53726E+01 -7.31057E+01 -7.16489E+01 -7.01928E+01 -6.82471E+01
  -6.57779E+01 -6.38357E+01 -6.36790E+01 -6.41056E+01 -6.32678E+01 -6.09185E+01 -5.75619E+01 -5.54023E+01 -5.43737E+01 -5.04528E+01
  -3.92721E+01 -2.34085E+01 -1.59786E+01 -2.18059E+01 -2.91927E+01 -2.43366E+01 -1.28028E+01 -1.17374E+01 -2.43331E+01 -4.07564E+01
  -5.18808E+01 -5.84235E+01 -6.24374E+01 -6.36644E+01 -6.40795E+01 -6.43056E+01 -6.34143E+01 -6.24972E+01 -6.03941E+01 -5.66373E+01
  -5.31442E+01 -4.81519E+01 -4.36561E+01 -3.36269E+01 -2.05649E+01 -2.35295E+01 -2.49078E+01 -1.74584E+01 -1.72229E+01 -1.84415E+01
  -2.14466E+01 -1.99584E+01 -1.31985E+01 -1.46246E+01 -2.04053E+01 -2.65568E+01 -3.44924E+01 -4.36632E+01 -5.45562E+01 -6.38650E+01
  -6.66567E+01 -6.56057E+01 -5.15884E+01 -3.11865E+01 -3.63425E+00  3.43062E+01  5.01502E+01  5.46984E+01  5.28161E+01  3.33883E+01
   1.76948E+01  1.19562E+01  9.02829E+00  1.15666E+01  1.44000E+01  1.31096E+01  9.59150E+00  1.30922E+00 -1.02060E+01 -2.23915E+01
  -3.55209E+01 -4.86572E+01 -6.06481E+01 -7.17216E+01 -8.26525E+01 -9.12163E+01 -9.58372E+01 -9.86697E+01 -9.68557E+01 -9.01416E+01
  -8.45411E+01 -7.42697E+01 -6.14663E+01 -5.13271E+01 -3.96901E+01 -3.45079E+01 -3.49425E+01 -3.94982E+01 -4.74668E+01 -5.23200E+01
  -6.38174E+01 -8.06269E+01 -8.27893E+01 -8.63235E+01 -9.90453E+01 -1.34390E+02 -1.09810E+02  3.73449E+01  1.37673E+02  1.54329E+02
   1.58296E+02  1.41175E+02  1.16720E+02  1.04779E+02  9.80701E+01  9.23402E+01  8.63401E+01  8.05700E+01  7.54493E+01  7.11260E+01
   6.94395E+01  6.85214E+01  6.92211E+01  7.09704E+01  7.20002E+01  7.32900E+01  7.33285E+01  7.25972E+01  7.17255E+01  7.00522E+01
   6.78191E+01  6.53276E+01  6.27936E+01  6.05371E+01  5.81433E+01  5.54280E+01  5.28532E+01  5.01444E+01  4.70491E+01  4.36471E+01
   3.97601E+01  3.58513E+01  3.20503E+01  2.82540E+01  2.54163E+01  2.40314E+01  2.40647E+01  2.53455E+01  2.73909E+01  2.95936E+01
   3.18678E+01  3.44529E+01  3.70546E+01  3.95123E+01  4.18286E+01  4.38932E+01  4.58351E+01  4.79171E+01  5.04496E+01  5.30179E+01
   5.51700E+01  5.70407E+01  5.85967E+01  6.00969E+01  6.14632E+01  6.20757E+01  6.22324E+01  6.20127E+01  6.07826E+01  5.88766E+01
   5.69192E+01  5.44612E+01  5.10494E+01  4.74435E+01  4.34761E+01  3.86204E+01  3.25722E+01  2.48134E+01  1.62243E+01  8.15729E+00
   1.28869E+00 -3.99450E+00 -7.13392E+00 -7.53388E+00 -5.26833E+00 -4.35043E-01  5.19196E+00  1.10597E+01  1.64182E+01  1.97755E+01
   1.84575E+01  1.02830E+01  2.87794E+00 -2.71903E+00 -5.74551E+00 -4.43146E-01  6.28176E+00  1.02033E+01  1.33522E+01  1.46671E+01
   1.39240E+01  1.21974E+01  9.56662E+00  5.96638E+00  1.94982E+00 -1.28050E+00 -2.85356E+00 -3.21348E+00 -2.22553E+00  5.08206E-03
   2.77981E+00  6.19230E+00  9.83987E+00  1.34535E+01  1.71344E+01  2.04759E+01  2.35825E+01  2.65475E+01  2.94082E+01  3.25115E+01
   3.56354E+01  3.87430E+01  4.20233E+01  4.54328E+01  4.92676E+01  5.39308E+01  5.90137E+01  6.41879E+01  7.03827E+01  7.72971E+01
   8.40431E+01  9.11080E+01  9.87951E+01  1.06226E+02  1.12481E+02  1.17146E+02  1.18967E+02  1.16885E+02  1.10658E+02  1.01048E+02
   9.02018E+01  8.01532E+01  7.14995E+01  6.41142E+01  5.79284E+01  5.18964E+01  4.47926E+01  3.64513E+01  2.78553E+01  1.91822E+01
   1.10896E+01  4.86470E+00  1.59277E-01 -3.48068E+00 -6.15874E+00 -7.91879E+00 -9.11996E+00 -1.02034E+01 -1.12324E+01 -1.23141E+01
  -1.32966E+01 -1.39126E+01 -1.41528E+01 -1.43099E+01 -1.45921E+01 -1.46428E+01 -1.45587E+01 -1.47409E+01 -1.52333E+01 -1.53063E+01
  -1.48302E+01 -1.47720E+01 -1.50435E+01 -1.50792E+01 -1.49404E+01 -1.49325E+01 -1.51021E+01 -1.52091E+01 -1.49724E+01 -1.45747E+01
  -1.44778E+01 -1.44864E+01 -1.46324E+01 -1.48276E+01 -1.48838E+01 -1.47505E+01 -1.44871E+01 -1.42472E+01 -1.39021E+01 -1.37111E+01
  -1.36505E+01 -1.35526E+01 -1.34324E+01 -1.35330E+01 -1.38360E+01 -1.39230E+01 -1.38204E+01 -1.36213E+01 -1.34152E+01 -1.32527E+01
  -1.31268E+01 -1.32417E+01 -1.32591E+01 -1.29427E+01 -1.27058E+01 -1.25076E+01 -1.22447E+01 -1.21362E+01 -1.20709E+01 -1.19261E+01
  -1.18275E+01 -1.18134E+01 -1.19030E+01 -1.20514E+01 -1.19775E+01 -1.18762E+01 -1.16788E+01 -1.12119E+01 -1.07578E+01 -1.05283E+01
  -1.06637E+01 -1.09585E+01 -1.12315E+01 -1.12537E+01 -1.11341E+01 -1.11658E+01 -1.10761E+01 -1.08543E+01 -1.08851E+01 -1.10399E+01
 NY background values follow
     1.874E+02    1.832E+02    1.789E+02    1.747E+02    1.705E+02    1.662E+02    1.620E+02    1.577E+02    1.535E+02    1.493E+02
     1.450E+02    1.408E+02    1.366E+02    1.324E+02    1.282E+02    1.240E+02    1.199E+02    1.157E+02    1.116E+02    1.075E+02
     1.034E+02    9.934E+01    9.531E+01    9.130E+01    8.732E+01    8.338E+01    7.946E+01    7.558E+01    7.174E+01    6.793E+01
     6.416E+01    6.043E+01    5.674E+01    5.310E+01    4.950E+01    4.594E+01    4.243E+01    3.897E+01    3.555E+01    3.219E+01
     2.888E+01    2.561E+01    2.241E+01    1.925E+01    1.615E+01    1.311E+01    1.012E+01    7.197E+00    4.331E+00    1.525E+00
    -1.218E+00   -3.898E+00   -6.513E+00   -9.063E+00   -1.155E+01   -1.396E+01   -1.631E+01   -1.858E+01   -2.079E+01   -2.292E+01
    -2.498E+01   -2.696E+01   -2.887E+01   -3.071E+01   -3.247E+01   -3.417E+01   -3.580E+01   -3.736E+01   -3.885E+01   -4.028E+01
    -4.164E+01   -4.294E+01   -4.417E+01   -4.535E+01   -4.646E+01   -4.752E+01   -4.851E+01   -4.945E+01   -5.033E+01   -5.116E+01
    -5.194E+01   -5.266E+01   -5.333E+01   -5.395E+01   -5.452E+01   -5.504E+01   -5.551E+01   -5.594E+01   -5.632E+01   -5.666E+01
    -5.696E+01   -5.721E+01   -5.743E+01   -5.760E+01   -5.773E+01   -5.783E+01   -5.788E+01   -5.790E+01   -5.789E+01   -5.784E+01
    -5.775E+01   -5.764E+01   -5.749E+01   -5.731E+01   -5.709E+01   -5.685E+01   -5.658E+01   -5.628E+01   -5.596E+01   -5.561E+01
    -5.523E+01   -5.483E+01   -5.440E+01   -5.395E+01   -5.348E+01   -5.299E+01   -5.248E+01   -5.195E+01   -5.140E+01   -5.083E+01
    -5.025E+01   -4.965E+01   -4.904E+01   -4.841E+01   -4.777E+01   -4.711E+01   -4.645E+01   -4.577E+01   -4.509E+01   -4.439E+01
    -4.369E+01   -4.297E+01   -4.225E+01   -4.153E+01   -4.080E+01   -4.007E+01   -3.933E+01   -3.859E+01   -3.785E+01   -3.711E+01
    -3.636E+01   -3.562E+01   -3.488E+01   -3.414E+01   -3.341E+01   -3.268E+01   -3.195E+01   -3.123E+01   -3.052E+01   -2.981E+01
    -2.911E+01   -2.842E+01   -2.774E+01   -2.707E+01   -2.640E+01   -2.575E+01   -2.511E+01   -2.448E+01   -2.385E+01   -2.324E+01
    -2.264E+01   -2.205E+01   -2.147E+01   -2.090E+01   -2.034E+01   -1.980E+01   -1.926E+01   -1.874E+01   -1.823E+01   -1.773E+01
    -1.725E+01   -1.678E+01   -1.632E+01   -1.587E+01   -1.544E+01   -1.502E+01   -1.462E+01   -1.423E+01   -1.385E+01   -1.349E+01
    -1.314E+01   -1.281E+01   -1.249E+01   -1.219E+01   -1.189E+01   -1.161E+01   -1.135E+01   -1.109E+01   -1.084E+01   -1.060E+01
    -1.037E+01   -1.014E+01   -9.929E+00   -9.721E+00   -9.518E+00   -9.320E+00   -9.127E+00   -8.938E+00   -8.753E+00   -8.570E+00
    -8.389E+00   -8.209E+00   -8.030E+00   -7.851E+00   -7.672E+00   -7.491E+00   -7.308E+00   -7.123E+00   -6.934E+00   -6.741E+00
    -6.544E+00   -6.342E+00   -6.135E+00   -5.925E+00   -5.712E+00   -5.496E+00   -5.278E+00   -5.059E+00   -4.838E+00   -4.618E+00
    -4.397E+00   -4.176E+00   -3.957E+00   -3.740E+00   -3.524E+00   -3.312E+00   -3.102E+00   -2.897E+00   -2.695E+00   -2.499E+00
    -2.308E+00   -2.123E+00   -1.944E+00   -1.773E+00   -1.609E+00   -1.453E+00   -1.305E+00   -1.167E+00   -1.038E+00   -9.201E-01
    -8.125E-01   -7.159E-01   -6.302E-01   -5.555E-01   -4.916E-01   -4.387E-01   -3.966E-01   -3.654E-01   -3.449E-01   -3.352E-01
    -3.363E-01   -3.481E-01   -3.706E-01   -4.037E-01   -4.474E-01   -5.018E-01   -5.668E-01   -6.422E-01   -7.283E-01   -8.248E-01
    -9.317E-01   -1.049E+00   -1.177E+00   -1.315E+00   -1.464E+00   -1.623E+00   -1.792E+00   -1.971E+00   -2.161E+00   -2.361E+00
    -2.571E+00   -2.790E+00   -3.019E+00   -3.254E+00   -3.497E+00   -3.745E+00   -3.997E+00   -4.253E+00   -4.512E+00   -4.772E+00
    -5.033E+00   -5.293E+00   -5.552E+00   -5.808E+00   -6.060E+00   -6.308E+00   -6.551E+00   -6.787E+00   -7.015E+00   -7.235E+00
    -7.446E+00   -7.645E+00   -7.833E+00   -8.009E+00   -8.171E+00   -8.318E+00   -8.450E+00   -8.565E+00   -8.662E+00   -8.741E+00
    -8.800E+00   -8.840E+00   -8.860E+00   -8.864E+00   -8.850E+00   -8.819E+00   -8.774E+00   -8.714E+00   -8.640E+00   -8.554E+00
    -8.455E+00   -8.346E+00   -8.226E+00   -8.096E+00   -7.958E+00   -7.812E+00   -7.659E+00   -7.500E+00   -7.336E+00   -7.167E+00
    -6.995E+00   -6.819E+00   -6.642E+00   -6.464E+00   -6.285E+00   -6.107E+00   -5.930E+00   -5.756E+00   -5.584E+00   -5.417E+00
    -5.254E+00   -5.096E+00   -4.943E+00   -4.794E+00   -4.649E+00   -4.508E+00   -4.372E+00   -4.238E+00   -4.109E+00   -3.982E+00
    -3.858E+00   -3.738E+00   -3.619E+00   -3.503E+00   -3.390E+00   -3.278E+00   -3.168E+00   -3.060E+00   -2.953E+00   -2.847E+00
    -2.742E+00   -2.638E+00   -2.535E+00   -2.431E+00   -2.328E+00   -2.225E+00   -2.122E+00   -2.018E+00   -1.913E+00   -1.808E+00
    -1.701E+00   -1.593E+00   -1.485E+00   -1.377E+00   -1.269E+00   -1.162E+00   -1.055E+00   -9.501E-01   -8.465E-01   -7.449E-01
    -6.457E-01   -5.492E-01   -4.558E-01   -3.658E-01   -2.796E-01   -1.976E-01   -1.201E-01   -4.747E-02    1.990E-02    8.168E-02
     1.375E-01    1.870E-01    2.298E-01    2.656E-01    2.939E-01    3.146E-01    3.270E-01    3.310E-01    3.262E-01    3.122E-01
     2.887E-01    2.559E-01    2.142E-01    1.642E-01    1.062E-01    4.070E-02   -3.190E-02   -1.111E-01   -1.966E-01   -2.878E-01
    -3.844E-01   -4.859E-01   -5.918E-01   -7.017E-01   -8.152E-01   -9.319E-01   -1.051E+00   -1.173E+00   -1.296E+00   -1.421E+00
    -1.547E+00   -1.673E+00   -1.800E+00   -1.926E+00   -2.051E+00   -2.175E+00   -2.298E+00   -2.418E+00   -2.536E+00   -2.650E+00
    -2.762E+00   -2.870E+00   -2.974E+00   -3.075E+00   -3.173E+00   -3.268E+00   -3.360E+00   -3.449E+00   -3.534E+00   -3.617E+00
    -3.697E+00   -3.774E+00   -3.848E+00   -3.920E+00   -3.989E+00   -4.056E+00   -4.120E+00   -4.181E+00   -4.240E+00   -4.297E+00
    -4.351E+00   -4.404E+00   -4.454E+00   -4.502E+00   -4.548E+00   -4.592E+00   -4.635E+00   -4.675E+00   -4.714E+00   -4.751E+00
    -4.786E+00   -4.820E+00   -4.852E+00   -4.882E+00   -4.912E+00   -4.939E+00   -4.966E+00   -4.991E+00   -5.014E+00   -5.037E+00
    -5.058E+00   -5.078E+00   -5.098E+00   -5.116E+00   -5.133E+00   -5.149E+00   -5.164E+00   -5.178E+00   -5.192E+00   -5.204E+00
    -5.217E+00   -5.228E+00   -5.239E+00   -5.249E+00   -5.258E+00   -5.267E+00   -5.276E+00   -5.284E+00   -5.292E+00   -5.299E+00
 Mac      Conc. = 2.73E-04
   1.68214E+02  1.63530E+02  1.58986E+02  1.54448E+02  1.49642E+02  1.44366E+02  1.38704E+02  1.32705E+02  1.26777E+02  1.21177E+02
   1.16110E+02  1.11557E+02  1.07069E+02  1.02788E+02  9.79070E+01  9.21333E+01  8.67264E+01  8.35297E+01  8.33903E+01  8.38255E+01
   8.32368E+01  8.28734E+01  8.18970E+01  7.93794E+01  7.63544E+01  7.34672E+01  7.08886E+01  6.85363E+01  6.65831E+01  6.46293E+01
   6.22261E+01  5.94310E+01  5.64794E+01  5.32961E+01  4.95443E+01  4.57101E+01  4.25413E+01  4.06456E+01  3.96858E+01  3.83080E+01
   3.56006E+01  3.20713E+01  2.89748E+01  2.65196E+01  2.46468E+01  2.27303E+01  1.99941E+01  1.66884E+01  1.29418E+01  8.88573E+00
   4.61441E+00  7.60855E-01 -2.48785E+00 -5.60155E+00 -8.43340E+00 -1.09147E+01 -1.29025E+01 -1.39945E+01 -1.47041E+01 -1.57780E+01
  -1.67505E+01 -1.74094E+01 -1.88441E+01 -2.10160E+01 -2.34937E+01 -2.62869E+01 -2.86193E+01 -3.04042E+01 -3.20774E+01 -3.35445E+01
  -3.38715E+01 -3.29144E+01 -3.17354E+01 -3.12559E+01 -3.13374E+01 -3.19447E+01 -3.33269E+01 -3.49673E+01 -3.66765E+01 -3.82226E+01
  -3.94359E+01 -4.04949E+01 -4.13609E+01 -4.15261E+01 -4.12748E+01 -4.09743E+01 -4.05194E+01 -4.01839E+01 -3.98939E+01 -3.97828E+01
  -3.97151E+01 -3.96293E+01 -3.98344E+01 -4.02591E+01 -4.09694E+01 -4.25257E+01 -4.46278E+01 -4.70055E+01 -4.95896E+01 -5.17427E+01
  -5.33705E+01 -5.52697E+01 -5.79718E+01 -6.10556E+01 -6.48382E+01 -6.98594E+01 -7.56884E+01 -8.13634E+01 -8.48418E+01 -8.56525E+01
