 LCModel (Version 6.3-1N) Copyright: S.W. Provencher.          Ref.: Magn. Reson. Med. 30:672-679 (1993).                
 Slice_N1@13_11  28-Feb-2025 11:40:11
 27 lines in following concentration table = NCONC+1
    Conc.  %SD /Cr+PCr  Metabolite                                         
 3.72E-04   4% 3.9E-04 Mac                                                 
    3.848  35%   4.023 Cr                                                  
    3.804  35%   3.977 PCr                                                 
    5.301  17%   5.542 Ins                                                 
   10.188   8%  10.652 NAA                                                 
    6.527  14%   6.824 Tau                                                 
    1.306  24%   1.365 PCho                                                
    0.000 999%   0.000 GPC                                                 
    9.623  11%  10.062 Glu                                                 
    5.699  15%   5.958 Gln                                                 
    5.465  14%   5.714 Ala                                                 
    0.646 191%   0.676 Asc                                                 
    2.305  41%   2.410 Asp                                                 
    0.000 999%   0.000 GABA                                                
    0.846  73%   0.885 Glc                                                 
    0.506 105%   0.529 GSH                                                 
    0.000 999%   0.000 Lac                                                 
    2.764  23%   2.889 NAAG                                                
    1.315  91%   1.375 PE                                                  
    1.306  24%   1.365 GPC+PCho                                            
   12.951   7%  13.541 NAA+NAAG                                            
   15.322   9%  16.020 Glu+Gln                                             
    7.652   9%   8.000 Cr+PCr                                              
   12.951   7%  13.541 NAA+NAAG                                            
    7.652   9%   8.000 Cr+PCr                                              
   15.322   9%  16.020 Glu+Gln                                             
   6 lines in following misc. output table
  FWHM = 0.033 ppm    S/N =   4                                            
  Data shift = 0.016 ppm                                                   
  Ph: 154 deg       0.0 deg/ppm                                            
  alphaB,S = 1.6E-01,   1.1E+01                                            
   19 spline knots.   Ns = 5(1)                                            
  ( 4) 3 infls.   ( 4) 2 extrs.                                            
  480 points on ppm-axis = NY
      4.100000     4.091866     4.083733     4.075600     4.067466     4.059333     4.051199     4.043066     4.034933     4.026799
      4.018666     4.010532     4.002399     3.994265     3.986132     3.977998     3.969864     3.961731     3.953597     3.945463
      3.937330     3.929196     3.921062     3.912929     3.904795     3.896662     3.888528     3.880394     3.872261     3.864127
      3.855993     3.847860     3.839726     3.831592     3.823459     3.815325     3.807191     3.799058     3.790924     3.782790
      3.774657     3.766523     3.758389     3.750256     3.742122     3.733989     3.725855     3.717721     3.709588     3.701454
      3.693320     3.685187     3.677053     3.668919     3.660786     3.652652     3.644518     3.636385     3.628251     3.620117
      3.611984     3.603850     3.595716     3.587583     3.579449     3.571316     3.563182     3.555048     3.546915     3.538781
      3.530647     3.522514     3.514380     3.506246     3.498113     3.489979     3.481845     3.473712     3.465578     3.457444
      3.449311     3.441177     3.433043     3.424910     3.416776     3.408643     3.400509     3.392375     3.384242     3.376108
      3.367974     3.359841     3.351707     3.343573     3.335440     3.327306     3.319172     3.311039     3.302905     3.294771
      3.286638     3.278504     3.270370     3.262237     3.254103     3.245970     3.237836     3.229702     3.221569     3.213435
      3.205301     3.197168     3.189034     3.180900     3.172767     3.164633     3.156499     3.148366     3.140232     3.132098
      3.123965     3.115831     3.107697     3.099564     3.091430     3.083297     3.075163     3.067029     3.058896     3.050762
      3.042628     3.034495     3.026361     3.018227     3.010094     3.001960     2.993826     2.985693     2.977559     2.969425
      2.961292     2.953158     2.945024     2.936891     2.928757     2.920624     2.912490     2.904356     2.896223     2.888089
      2.879955     2.871822     2.863688     2.855554     2.847421     2.839287     2.831153     2.823020     2.814886     2.806752
      2.798619     2.790485     2.782351     2.774218     2.766084     2.757951     2.749817     2.741683     2.733550     2.725416
      2.717282     2.709149     2.701015     2.692881     2.684748     2.676614     2.668480     2.660347     2.652213     2.644079
      2.635946     2.627812     2.619678     2.611545     2.603411     2.595278     2.587144     2.579010     2.570877     2.562743
      2.554609     2.546476     2.538342     2.530208     2.522075     2.513941     2.505807     2.497674     2.489540     2.481406
      2.473273     2.465139     2.457006     2.448872     2.440738     2.432605     2.424471     2.416337     2.408204     2.400070
      2.391936     2.383803     2.375669     2.367535     2.359402     2.351268     2.343134     2.335001     2.326867     2.318733
      2.310600     2.302466     2.294333     2.286199     2.278065     2.269932     2.261798     2.253664     2.245531     2.237397
      2.229263     2.221130     2.212996     2.204862     2.196729     2.188595     2.180461     2.172328     2.164194     2.156060
      2.147927     2.139793     2.131660     2.123526     2.115392     2.107259     2.099125     2.090991     2.082858     2.074724
      2.066590     2.058457     2.050323     2.042189     2.034056     2.025922     2.017788     2.009655     2.001521     1.993387
      1.985254     1.977120     1.968987     1.960853     1.952719     1.944586     1.936452     1.928318     1.920185     1.912051
      1.903917     1.895784     1.887650     1.879516     1.871383     1.863249     1.855115     1.846982     1.838848     1.830714
      1.822581     1.814447     1.806314     1.798180     1.790046     1.781913     1.773779     1.765645     1.757512     1.749378
      1.741244     1.733111     1.724977     1.716843     1.708710     1.700576     1.692442     1.684309     1.676175     1.668041
      1.659908     1.651774     1.643641     1.635507     1.627373     1.619240     1.611106     1.602972     1.594839     1.586705
      1.578571     1.570438     1.562304     1.554170     1.546037     1.537903     1.529769     1.521636     1.513502     1.505368
      1.497235     1.489101     1.480968     1.472834     1.464700     1.456567     1.448433     1.440299     1.432166     1.424032
      1.415898     1.407765     1.399631     1.391497     1.383364     1.375230     1.367096     1.358963     1.350829     1.342695
      1.334562     1.326428     1.318295     1.310161     1.302027     1.293894     1.285760     1.277626     1.269493     1.261359
      1.253225     1.245092     1.236958     1.228824     1.220691     1.212557     1.204423     1.196290     1.188156     1.180022
      1.171889     1.163755     1.155622     1.147488     1.139354     1.131221     1.123087     1.114953     1.106820     1.098686
      1.090552     1.082419     1.074285     1.066151     1.058018     1.049884     1.041750     1.033617     1.025483     1.017349
      1.009216     1.001082     0.992949     0.984815     0.976681     0.968548     0.960414     0.952280     0.944147     0.936013
      0.927879     0.919746     0.911612     0.903478     0.895345     0.887211     0.879077     0.870944     0.862810     0.854676
      0.846543     0.838409     0.830276     0.822142     0.814008     0.805875     0.797741     0.789607     0.781474     0.773340
      0.765206     0.757073     0.748939     0.740805     0.732672     0.724538     0.716404     0.708271     0.700137     0.692003
      0.683870     0.675736     0.667603     0.659469     0.651335     0.643202     0.635068     0.626934     0.618801     0.610667
      0.602533     0.594400     0.586266     0.578132     0.569999     0.561865     0.553731     0.545598     0.537464     0.529330
      0.521197     0.513063     0.504930     0.496796     0.488662     0.480529     0.472395     0.464261     0.456128     0.447994
      0.439861     0.431727     0.423593     0.415460     0.407326     0.399192     0.391059     0.382925     0.374792     0.366658
      0.358524     0.350391     0.342257     0.334124     0.325990     0.317856     0.309723     0.301589     0.293455     0.285322
      0.277188     0.269055     0.260921     0.252787     0.244654     0.236520     0.228386     0.220253     0.212119     0.203986
 NY phased data points follow
  -1.21677E+02 -1.22673E+02 -1.19562E+02 -1.30103E+02 -1.15223E+02 -1.09750E+02 -1.18073E+02 -1.01977E+02 -1.24389E+02 -1.36284E+02
  -1.31475E+02 -1.42007E+02 -1.29191E+02 -1.28012E+02 -1.27779E+02 -1.45595E+02 -1.58762E+02 -1.50905E+02 -1.63634E+02 -1.56030E+02
  -1.54927E+02 -1.41054E+02 -1.18918E+02 -1.10565E+02 -6.81491E+01 -5.31376E+01 -7.12356E+01 -7.33977E+01 -6.13232E+01 -5.65360E+01
  -6.81432E+01 -7.67563E+01 -7.52323E+01 -7.65690E+01 -7.78752E+01 -6.87392E+01 -9.23553E+01 -1.07089E+02 -1.04769E+02 -1.38132E+02
  -1.28639E+02 -1.15899E+02 -1.14850E+02 -7.68900E+01 -6.42622E+01 -3.56592E+01 -2.95126E+01 -3.94914E+01 -1.35641E+01 -2.80724E+01
  -2.57313E+01 -3.57527E+01 -5.26757E+01 -3.97986E+01 -6.15270E+01 -5.70497E+01 -6.22155E+01 -7.67760E+01 -6.75055E+01 -7.78744E+01
  -5.23180E+01 -2.80828E+01 -4.47268E+01 -4.12376E+01 -2.91952E+01 -2.46143E+01 -3.67998E+01 -6.31326E+01 -8.02504E+01 -9.16623E+01
  -8.60239E+01 -7.32158E+01 -5.63494E+01 -4.33796E+01 -2.90794E+01 -2.26609E+01 -3.02029E+01 -1.94091E+01 -3.39853E+01 -3.51596E+01
  -2.59366E+01 -5.31623E+01 -6.22601E+01 -7.26516E+01 -8.70129E+01 -6.66820E+01 -5.34483E+01 -6.31847E+01 -4.19035E+01 -2.38575E+01
  -1.60658E+01 -1.74767E+01 -3.00205E+01 -1.19119E+01 -1.03483E+01 -1.24748E+01 -7.53631E+00 -8.32302E+00 -1.28581E+01 -2.92782E+01
  -3.61911E+01 -4.00574E+01 -5.22874E+01 -7.47670E+01 -9.07009E+01 -1.08042E+02 -1.21533E+02 -1.26612E+02 -1.43638E+02 -1.63709E+02
  -2.00112E+02 -2.24543E+02 -1.71113E+02 -1.16193E+02 -1.07774E+02 -9.37368E+01 -8.96920E+01 -7.06775E+01 -7.24243E+01 -8.11469E+01
  -5.61727E+01 -5.83425E+01 -5.73452E+01 -5.21544E+01 -2.89480E+01 -1.44566E+01 -2.70778E+01  4.16022E+00  3.94409E+01  3.51009E+01
   2.84531E+01  1.63748E-01 -8.93362E+01 -1.72752E+02 -2.00817E+02 -1.73328E+02 -1.48494E+02 -1.48683E+02 -1.35623E+02 -1.34851E+02
  -1.48900E+02 -1.40180E+02 -1.25334E+02 -1.36935E+02 -1.18384E+02 -1.11746E+02 -1.24359E+02 -1.22267E+02 -1.23853E+02 -1.02884E+02
  -1.03812E+02 -9.77105E+01 -9.20081E+01 -8.83110E+01 -8.12581E+01 -8.27847E+01 -6.81177E+01 -8.72115E+01 -8.48453E+01 -8.41061E+01
  -9.59438E+01 -7.52841E+01 -7.13947E+01 -6.77153E+01 -6.53413E+01 -7.28637E+01 -7.82250E+01 -8.06803E+01 -7.26569E+01 -5.41315E+01
  -4.39203E+01 -4.36871E+01 -4.02887E+01 -2.55845E+01 -3.40168E+01 -5.09608E+01 -4.18360E+01 -4.33160E+01 -4.24582E+01 -7.46812E+01
  -9.59963E+01 -8.39571E+01 -9.92934E+01 -8.96920E+01 -8.78730E+01 -1.04156E+02 -1.06240E+02 -9.22948E+01 -8.06411E+01 -8.19544E+01
  -6.15163E+01 -6.79725E+01 -8.69570E+01 -7.48624E+01 -6.66269E+01 -5.20698E+01 -5.08217E+01 -5.81016E+01 -4.31232E+01 -5.04035E+01
  -6.61739E+01 -5.54922E+01 -4.30028E+01 -5.01010E+01 -4.53872E+01 -4.83899E+01 -5.97993E+01 -5.55543E+01 -7.85213E+01 -8.02871E+01
  -8.29554E+01 -7.37080E+01 -5.05977E+01 -4.25290E+01 -7.16589E+00  4.77591E+00  4.07916E+01  3.23251E+01 -6.75008E+00 -3.57712E+00
  -3.51954E+01 -5.32310E+01 -6.19776E+01 -5.90061E+01 -6.26396E+01 -6.36409E+01 -5.83140E+01 -6.60455E+01 -6.17666E+01 -7.11299E+01
  -7.12658E+01 -8.78821E+01 -9.17294E+01 -8.45235E+01 -1.06938E+02 -1.18247E+02 -1.20635E+02 -1.18511E+02 -1.38566E+02 -1.34029E+02
  -9.91504E+01 -1.01819E+02 -8.74659E+01 -6.58356E+01 -6.19537E+01 -4.45899E+01 -5.31069E+01 -5.95433E+01 -5.31581E+01 -5.92660E+01
  -7.46683E+01 -8.67392E+01 -7.49604E+01 -7.91518E+01 -8.66880E+01 -8.83528E+01 -5.78136E+01  3.23054E+01  1.47973E+02  1.80787E+02
   1.36322E+02  1.50584E+02  1.19106E+02  7.50899E+01  7.74534E+01  4.92213E+01  4.10505E+01  4.13958E+01  4.43679E+01  4.62274E+01
   3.61239E+01  2.69937E+01  2.57735E+01  3.02263E+01  3.92668E+01  3.83627E+01  3.67358E+01  3.48580E+01  1.79044E+01  3.50117E+01
   3.35845E+01  2.72146E+01  2.78113E+01  1.32771E+01  3.29805E+01  2.02654E+01  1.11206E+01  3.46724E+01  1.82129E+01  9.22949E-01
   1.82006E+01  2.78251E+01  5.75351E+00  8.96282E+00  1.26852E+01 -4.29668E+00  1.86514E+01  1.04398E+01  1.20509E+01  3.20696E+01
   1.94922E+01  4.48832E+01  4.79799E+01  5.75421E+01  5.81637E+01  5.31475E+01  7.58513E+01  6.95960E+01  8.29627E+01  8.34184E+01
   9.78680E+01  1.00737E+02  8.62379E+01  9.82079E+01  9.82997E+01  9.05534E+01  7.10365E+01  7.33918E+01  6.89270E+01  6.19508E+01
   4.10025E+01  1.84308E+01  6.42187E+00 -1.73429E+01 -1.91104E+01 -4.27684E+01 -5.45077E+01 -5.44752E+01 -7.40645E+01 -9.52623E+01
  -1.07890E+02 -1.18237E+02 -1.32325E+02 -1.36304E+02 -1.30519E+02 -1.16085E+02 -1.28661E+02 -1.32024E+02 -1.24374E+02 -1.16280E+02
  -9.90714E+01 -7.50625E+01 -5.95661E+01 -6.48076E+01 -3.74828E+01 -4.46549E+01 -5.01452E+01 -3.88618E+01 -6.03081E+01 -4.28439E+01
  -4.77746E+01 -6.06982E+01 -5.08424E+01 -5.83680E+01 -5.31721E+01 -6.90344E+01 -7.26175E+01 -6.38609E+01 -7.73179E+01 -6.15905E+01
  -6.58403E+01 -6.12132E+01 -5.29192E+01 -7.08802E+01 -6.27115E+01 -6.06455E+01 -4.41521E+01 -3.56415E+01 -3.23209E+01 -2.53493E+01
  -3.21362E+01 -2.88594E+01 -3.04772E+01 -1.32398E+01 -2.85193E+00 -7.35139E-01 -2.85197E+00 -6.85418E+00  1.27156E+01  1.55237E+01
   2.69761E+01  4.46727E+01  4.28314E+01  5.39331E+01  6.24987E+01  7.15320E+01  8.12435E+01  8.43340E+01  8.26727E+01  6.77828E+01
   5.99054E+01  2.92586E+01  1.70096E+01  6.98071E+00 -3.05319E+01 -1.78893E+01 -1.65068E+01 -2.14723E+01 -1.99622E+01 -4.50001E+01
  -5.36756E+01 -5.29262E+01 -7.13681E+01 -7.19138E+01 -6.43443E+01 -6.77881E+01 -6.58501E+01 -9.55074E+01 -8.25074E+01 -7.69645E+01
  -8.72565E+01 -6.05583E+01 -7.45903E+01 -6.72769E+01 -5.61474E+01 -6.04669E+01 -7.34944E+01 -6.90469E+01 -5.52246E+01 -6.89127E+01
  -6.31411E+01 -6.85827E+01 -7.26459E+01 -7.96738E+01 -7.86114E+01 -6.73294E+01 -6.66735E+01 -7.32258E+01 -7.74775E+01 -6.64118E+01
  -7.03015E+01 -6.49622E+01 -6.95048E+01 -7.11119E+01 -6.56547E+01 -6.39014E+01 -5.39817E+01 -6.25651E+01 -5.76757E+01 -5.50971E+01
  -5.95925E+01 -5.26465E+01 -5.18967E+01 -5.98423E+01 -5.74892E+01 -4.96119E+01 -5.12687E+01 -4.31083E+01 -4.16827E+01 -5.94180E+01
  -5.98019E+01 -4.52751E+01 -5.41594E+01 -5.92821E+01 -5.61793E+01 -4.98863E+01 -4.16995E+01 -5.47307E+01 -5.11267E+01 -3.91951E+01
  -4.15591E+01 -5.47926E+01 -5.49293E+01 -4.12626E+01 -5.52024E+01 -4.27278E+01 -2.70140E+01 -4.60315E+01 -3.61284E+01 -4.65485E+01
  -6.23223E+01 -4.39792E+01 -4.97095E+01 -5.04037E+01 -4.00495E+01 -3.93189E+01 -4.06737E+01 -4.16507E+01 -4.74615E+01 -5.00549E+01
 NY points of the fit to the data follow
  -1.18287E+02 -1.24833E+02 -1.30488E+02 -1.31721E+02 -1.26476E+02 -1.16276E+02 -1.07562E+02 -1.06581E+02 -1.12753E+02 -1.20772E+02
  -1.27219E+02 -1.31474E+02 -1.34344E+02 -1.36972E+02 -1.39500E+02 -1.41393E+02 -1.43229E+02 -1.46764E+02 -1.52634E+02 -1.58788E+02
  -1.58449E+02 -1.44134E+02 -1.18550E+02 -9.16575E+01 -6.92453E+01 -5.64035E+01 -5.57639E+01 -5.79371E+01 -5.87393E+01 -5.90548E+01
  -5.92521E+01 -6.12394E+01 -6.47552E+01 -6.95447E+01 -7.54941E+01 -8.23146E+01 -9.06960E+01 -1.02578E+02 -1.18721E+02 -1.35368E+02
  -1.43990E+02 -1.36961E+02 -1.13620E+02 -8.24414E+01 -5.52250E+01 -3.73876E+01 -3.02322E+01 -3.13330E+01 -3.48505E+01 -3.85263E+01
  -4.15200E+01 -4.41320E+01 -4.82601E+01 -5.49375E+01 -6.32819E+01 -7.17427E+01 -7.76828E+01 -7.95910E+01 -7.89479E+01 -7.58717E+01
  -6.84666E+01 -5.95605E+01 -5.25638E+01 -4.40698E+01 -3.57442E+01 -3.44247E+01 -4.06374E+01 -5.37324E+01 -6.99831E+01 -8.07802E+01
  -8.00935E+01 -6.98582E+01 -5.81680E+01 -4.71924E+01 -3.56024E+01 -2.69616E+01 -2.25631E+01 -2.10449E+01 -2.22246E+01 -2.67363E+01
  -3.64822E+01 -5.20441E+01 -6.97873E+01 -8.43301E+01 -8.99603E+01 -8.39410E+01 -6.98335E+01 -5.36376E+01 -3.92255E+01 -3.08956E+01
  -2.55532E+01 -2.18767E+01 -1.87994E+01 -1.57175E+01 -1.31431E+01 -1.13908E+01 -1.05745E+01 -1.03613E+01 -1.03032E+01 -1.06345E+01
  -1.20180E+01 -1.80205E+01 -3.29517E+01 -5.51400E+01 -7.78563E+01 -9.65473E+01 -1.08485E+02 -1.17162E+02 -1.33374E+02 -1.59808E+02
  -1.81644E+02 -1.82263E+02 -1.58288E+02 -1.31301E+02 -1.12148E+02 -9.93857E+01 -9.25385E+01 -8.58884E+01 -7.91414E+01 -7.23298E+01
  -6.50754E+01 -5.68865E+01 -4.73863E+01 -3.61880E+01 -2.34445E+01 -1.04549E+01  1.04191E+00  1.30108E+01  2.72322E+01  3.75359E+01
   2.97584E+01 -1.15477E+01 -8.56753E+01 -1.56214E+02 -1.82231E+02 -1.71210E+02 -1.53771E+02 -1.38820E+02 -1.33885E+02 -1.33416E+02
  -1.32746E+02 -1.31761E+02 -1.30714E+02 -1.29438E+02 -1.27437E+02 -1.24427E+02 -1.20502E+02 -1.16111E+02 -1.11862E+02 -1.08291E+02
  -1.05557E+02 -1.03333E+02 -1.01020E+02 -9.80405E+01 -9.45315E+01 -9.13545E+01 -8.93511E+01 -8.85781E+01 -8.79559E+01 -8.62822E+01
  -8.37248E+01 -8.16991E+01 -8.13801E+01 -8.22035E+01 -8.22643E+01 -8.07769E+01 -7.94377E+01 -7.94220E+01 -7.84382E+01 -7.24534E+01
  -6.07276E+01 -4.84299E+01 -4.28490E+01 -4.68194E+01 -5.35647E+01 -5.40800E+01 -4.89138E+01 -4.68167E+01 -5.36443E+01 -6.71406E+01
  -7.98618E+01 -8.69049E+01 -8.99675E+01 -9.08957E+01 -9.01702E+01 -8.91376E+01 -8.77256E+01 -8.62466E+01 -8.47884E+01 -8.35268E+01
  -8.23209E+01 -8.04567E+01 -7.73949E+01 -7.22008E+01 -6.53577E+01 -6.08605E+01 -5.95800E+01 -5.68964E+01 -5.31368E+01 -5.14021E+01
  -5.01489E+01 -4.73696E+01 -4.24393E+01 -3.84363E+01 -3.96973E+01 -4.47243E+01 -5.20712E+01 -6.11260E+01 -7.08838E+01 -7.86749E+01
  -8.16991E+01 -7.79999E+01 -6.57080E+01 -4.53511E+01 -2.14188E+01  5.88186E-01  1.26803E+01  1.13045E+01  2.56216E+00 -9.00998E+00
  -1.98427E+01 -2.27172E+01 -2.22442E+01 -2.04957E+01 -2.04281E+01 -2.40078E+01 -3.11985E+01 -4.14267E+01 -5.38251E+01 -6.74676E+01
  -8.13994E+01 -9.46819E+01 -1.06198E+02 -1.15026E+02 -1.20785E+02 -1.23190E+02 -1.22097E+02 -1.19369E+02 -1.16480E+02 -1.12555E+02
  -1.07743E+02 -1.00616E+02 -8.91056E+01 -7.62878E+01 -6.57383E+01 -5.98461E+01 -6.01756E+01 -6.53271E+01 -7.20797E+01 -8.06784E+01
  -8.84193E+01 -9.21784E+01 -9.19961E+01 -9.12832E+01 -9.22387E+01 -8.72467E+01 -5.54320E+01  2.23008E+01  1.10624E+02  1.49623E+02
   1.38759E+02  1.13333E+02  8.86965E+01  7.65335E+01  7.21668E+01  6.84653E+01  6.46662E+01  6.11436E+01  5.84202E+01  5.66769E+01
   5.58226E+01  5.55167E+01  5.52416E+01  5.48220E+01  5.40996E+01  5.30082E+01  5.19080E+01  5.08603E+01  4.94786E+01  4.76187E+01
   4.52186E+01  4.26061E+01  4.00322E+01  3.74309E+01  3.46234E+01  3.15719E+01  2.83862E+01  2.47649E+01  2.05292E+01  1.56761E+01
   1.03349E+01  4.97153E+00  1.26300E-01 -3.62045E+00 -5.38699E+00 -4.89110E+00 -2.56467E+00  9.30138E-01  4.72458E+00  8.45668E+00
   1.21435E+01  1.58474E+01  1.92791E+01  2.22807E+01  2.49671E+01  2.76225E+01  3.05716E+01  3.39724E+01  3.75508E+01  4.08008E+01
   4.35059E+01  4.58672E+01  4.80929E+01  5.02362E+01  5.20695E+01  5.33113E+01  5.41743E+01  5.49624E+01  5.51816E+01  5.20132E+01
   4.12834E+01  1.88437E+01 -1.47789E+01 -5.03859E+01 -7.60480E+01 -8.80642E+01 -8.82675E+01 -8.10962E+01 -7.75793E+01 -8.14626E+01
  -8.63752E+01 -9.16944E+01 -9.29158E+01 -9.01395E+01 -8.43962E+01 -7.72810E+01 -7.07012E+01 -6.58827E+01 -6.27169E+01 -6.03661E+01
  -5.74914E+01 -5.32477E+01 -4.78664E+01 -4.24851E+01 -3.82502E+01 -3.58112E+01 -3.52658E+01 -3.58376E+01 -3.71006E+01 -3.94400E+01
  -4.31971E+01 -4.85462E+01 -5.50445E+01 -6.18326E+01 -6.75239E+01 -7.08555E+01 -7.16817E+01 -7.04188E+01 -6.75369E+01 -6.35674E+01
  -5.89882E+01 -5.39908E+01 -4.89743E+01 -4.41891E+01 -3.98479E+01 -3.60131E+01 -3.23502E+01 -2.86293E+01 -2.47719E+01 -2.07205E+01
  -1.67590E+01 -1.26605E+01 -8.09659E+00 -2.88810E+00  3.12051E+00  9.89258E+00  1.73215E+01  2.55275E+01  3.46316E+01  4.43267E+01
   5.43431E+01  6.49664E+01  7.57254E+01  8.54702E+01  9.25375E+01  9.51836E+01  9.18692E+01  8.23207E+01  6.79715E+01  5.16247E+01
   3.64435E+01  2.42177E+01  1.48137E+01  7.11545E+00 -4.79109E-01 -9.32235E+00 -2.01830E+01 -3.22749E+01 -4.42187E+01 -5.48268E+01
  -6.32243E+01 -6.90922E+01 -7.29315E+01 -7.54453E+01 -7.69367E+01 -7.77739E+01 -7.83418E+01 -7.90493E+01 -7.97868E+01 -8.03844E+01
  -8.05064E+01 -8.02065E+01 -7.96516E+01 -7.91224E+01 -7.86402E+01 -7.81314E+01 -7.76524E+01 -7.73003E+01 -7.68479E+01 -7.60580E+01
  -7.51873E+01 -7.46201E+01 -7.42113E+01 -7.36690E+01 -7.31211E+01 -7.26525E+01 -7.20967E+01 -7.12658E+01 -7.01942E+01 -6.92515E+01
  -6.86812E+01 -6.84291E+01 -6.82194E+01 -6.78170E+01 -6.70943E+01 -6.61196E+01 -6.50670E+01 -6.41419E+01 -6.33695E+01 -6.26776E+01
  -6.20982E+01 -6.15075E+01 -6.10814E+01 -6.07912E+01 -6.04641E+01 -5.98978E+01 -5.91006E+01 -5.82038E+01 -5.74061E+01 -5.68340E+01
  -5.63277E+01 -5.58500E+01 -5.51729E+01 -5.42476E+01 -5.33533E+01 -5.25715E+01 -5.18801E+01 -5.12596E+01 -5.06115E+01 -4.99781E+01
  -4.94590E+01 -4.91452E+01 -4.89025E+01 -4.85515E+01 -4.79305E+01 -4.70971E+01 -4.59565E+01 -4.47583E+01 -4.38636E+01 -4.35127E+01
  -4.35769E+01 -4.36743E+01 -4.34585E+01 -4.28989E+01 -4.21663E+01 -4.15450E+01 -4.10219E+01 -4.06975E+01 -4.04917E+01 -4.00945E+01
 NY background values follow
    -8.621E+01   -8.595E+01   -8.568E+01   -8.541E+01   -8.515E+01   -8.488E+01   -8.461E+01   -8.434E+01   -8.407E+01   -8.381E+01
    -8.354E+01   -8.327E+01   -8.300E+01   -8.273E+01   -8.246E+01   -8.220E+01   -8.193E+01   -8.166E+01   -8.139E+01   -8.112E+01
    -8.086E+01   -8.059E+01   -8.032E+01   -8.006E+01   -7.979E+01   -7.953E+01   -7.926E+01   -7.900E+01   -7.873E+01   -7.847E+01
    -7.821E+01   -7.794E+01   -7.768E+01   -7.742E+01   -7.716E+01   -7.690E+01   -7.664E+01   -7.639E+01   -7.613E+01   -7.588E+01
    -7.562E+01   -7.537E+01   -7.512E+01   -7.487E+01   -7.462E+01   -7.438E+01   -7.413E+01   -7.389E+01   -7.365E+01   -7.341E+01
    -7.317E+01   -7.294E+01   -7.271E+01   -7.248E+01   -7.225E+01   -7.202E+01   -7.180E+01   -7.158E+01   -7.136E+01   -7.114E+01
    -7.093E+01   -7.072E+01   -7.051E+01   -7.031E+01   -7.010E+01   -6.990E+01   -6.970E+01   -6.950E+01   -6.931E+01   -6.911E+01
    -6.892E+01   -6.873E+01   -6.854E+01   -6.835E+01   -6.816E+01   -6.797E+01   -6.778E+01   -6.759E+01   -6.740E+01   -6.721E+01
    -6.702E+01   -6.683E+01   -6.664E+01   -6.645E+01   -6.625E+01   -6.606E+01   -6.586E+01   -6.567E+01   -6.547E+01   -6.527E+01
    -6.506E+01   -6.486E+01   -6.465E+01   -6.444E+01   -6.423E+01   -6.402E+01   -6.380E+01   -6.358E+01   -6.336E+01   -6.313E+01
    -6.291E+01   -6.268E+01   -6.244E+01   -6.221E+01   -6.197E+01   -6.172E+01   -6.148E+01   -6.123E+01   -6.098E+01   -6.072E+01
    -6.047E+01   -6.020E+01   -5.994E+01   -5.967E+01   -5.940E+01   -5.912E+01   -5.884E+01   -5.856E+01   -5.827E+01   -5.798E+01
    -5.768E+01   -5.738E+01   -5.708E+01   -5.677E+01   -5.646E+01   -5.615E+01   -5.583E+01   -5.551E+01   -5.519E+01   -5.486E+01
    -5.453E+01   -5.421E+01   -5.387E+01   -5.354E+01   -5.321E+01   -5.287E+01   -5.254E+01   -5.220E+01   -5.186E+01   -5.152E+01
    -5.118E+01   -5.085E+01   -5.051E+01   -5.017E+01   -4.983E+01   -4.949E+01   -4.916E+01   -4.882E+01   -4.849E+01   -4.816E+01
    -4.783E+01   -4.750E+01   -4.717E+01   -4.685E+01   -4.652E+01   -4.620E+01   -4.588E+01   -4.557E+01   -4.525E+01   -4.494E+01
    -4.463E+01   -4.433E+01   -4.403E+01   -4.373E+01   -4.343E+01   -4.313E+01   -4.284E+01   -4.255E+01   -4.227E+01   -4.198E+01
    -4.171E+01   -4.143E+01   -4.116E+01   -4.089E+01   -4.063E+01   -4.036E+01   -4.011E+01   -3.985E+01   -3.960E+01   -3.936E+01
    -3.912E+01   -3.888E+01   -3.865E+01   -3.842E+01   -3.819E+01   -3.797E+01   -3.775E+01   -3.754E+01   -3.733E+01   -3.712E+01
    -3.692E+01   -3.672E+01   -3.652E+01   -3.633E+01   -3.613E+01   -3.595E+01   -3.576E+01   -3.558E+01   -3.540E+01   -3.522E+01
    -3.504E+01   -3.487E+01   -3.470E+01   -3.453E+01   -3.436E+01   -3.420E+01   -3.404E+01   -3.387E+01   -3.372E+01   -3.356E+01
    -3.340E+01   -3.325E+01   -3.310E+01   -3.294E+01   -3.280E+01   -3.265E+01   -3.250E+01   -3.236E+01   -3.222E+01   -3.208E+01
    -3.195E+01   -3.182E+01   -3.169E+01   -3.156E+01   -3.144E+01   -3.132E+01   -3.120E+01   -3.109E+01   -3.098E+01   -3.088E+01
    -3.077E+01   -3.068E+01   -3.058E+01   -3.049E+01   -3.041E+01   -3.033E+01   -3.025E+01   -3.018E+01   -3.012E+01   -3.006E+01
    -3.000E+01   -2.995E+01   -2.991E+01   -2.987E+01   -2.983E+01   -2.980E+01   -2.978E+01   -2.976E+01   -2.974E+01   -2.973E+01
    -2.973E+01   -2.972E+01   -2.973E+01   -2.974E+01   -2.975E+01   -2.977E+01   -2.980E+01   -2.982E+01   -2.986E+01   -2.990E+01
    -2.994E+01   -2.999E+01   -3.004E+01   -3.010E+01   -3.016E+01   -3.022E+01   -3.029E+01   -3.037E+01   -3.045E+01   -3.053E+01
    -3.062E+01   -3.071E+01   -3.081E+01   -3.091E+01   -3.102E+01   -3.113E+01   -3.125E+01   -3.138E+01   -3.151E+01   -3.165E+01
    -3.179E+01   -3.195E+01   -3.211E+01   -3.228E+01   -3.245E+01   -3.264E+01   -3.283E+01   -3.303E+01   -3.325E+01   -3.347E+01
    -3.370E+01   -3.394E+01   -3.419E+01   -3.445E+01   -3.473E+01   -3.501E+01   -3.531E+01   -3.561E+01   -3.593E+01   -3.626E+01
    -3.661E+01   -3.696E+01   -3.733E+01   -3.771E+01   -3.810E+01   -3.850E+01   -3.891E+01   -3.933E+01   -3.976E+01   -4.020E+01
    -4.065E+01   -4.110E+01   -4.156E+01   -4.202E+01   -4.250E+01   -4.297E+01   -4.346E+01   -4.394E+01   -4.443E+01   -4.493E+01
    -4.542E+01   -4.592E+01   -4.643E+01   -4.693E+01   -4.743E+01   -4.794E+01   -4.844E+01   -4.895E+01   -4.945E+01   -4.995E+01
    -5.045E+01   -5.095E+01   -5.144E+01   -5.194E+01   -5.242E+01   -5.291E+01   -5.338E+01   -5.386E+01   -5.432E+01   -5.478E+01
    -5.524E+01   -5.568E+01   -5.612E+01   -5.655E+01   -5.697E+01   -5.739E+01   -5.779E+01   -5.818E+01   -5.856E+01   -5.893E+01
    -5.929E+01   -5.964E+01   -5.997E+01   -6.029E+01   -6.060E+01   -6.089E+01   -6.117E+01   -6.144E+01   -6.168E+01   -6.192E+01
    -6.213E+01   -6.233E+01   -6.251E+01   -6.268E+01   -6.283E+01   -6.296E+01   -6.308E+01   -6.319E+01   -6.327E+01   -6.335E+01
    -6.341E+01   -6.345E+01   -6.348E+01   -6.349E+01   -6.349E+01   -6.348E+01   -6.345E+01   -6.341E+01   -6.335E+01   -6.329E+01
    -6.320E+01   -6.311E+01   -6.300E+01   -6.288E+01   -6.275E+01   -6.261E+01   -6.245E+01   -6.228E+01   -6.210E+01   -6.191E+01
    -6.171E+01   -6.149E+01   -6.127E+01   -6.103E+01   -6.079E+01   -6.053E+01   -6.027E+01   -6.000E+01   -5.971E+01   -5.942E+01
    -5.913E+01   -5.882E+01   -5.851E+01   -5.819E+01   -5.786E+01   -5.752E+01   -5.719E+01   -5.684E+01   -5.649E+01   -5.613E+01
    -5.577E+01   -5.541E+01   -5.504E+01   -5.467E+01   -5.429E+01   -5.391E+01   -5.353E+01   -5.314E+01   -5.276E+01   -5.237E+01
    -5.198E+01   -5.159E+01   -5.120E+01   -5.080E+01   -5.041E+01   -5.001E+01   -4.962E+01   -4.922E+01   -4.882E+01   -4.842E+01
    -4.802E+01   -4.762E+01   -4.722E+01   -4.682E+01   -4.642E+01   -4.602E+01   -4.562E+01   -4.522E+01   -4.482E+01   -4.442E+01
    -4.401E+01   -4.361E+01   -4.321E+01   -4.281E+01   -4.241E+01   -4.201E+01   -4.161E+01   -4.122E+01   -4.082E+01   -4.042E+01
    -4.002E+01   -3.963E+01   -3.923E+01   -3.884E+01   -3.845E+01   -3.806E+01   -3.766E+01   -3.727E+01   -3.688E+01   -3.649E+01
    -3.611E+01   -3.572E+01   -3.533E+01   -3.494E+01   -3.455E+01   -3.417E+01   -3.378E+01   -3.340E+01   -3.301E+01   -3.263E+01
    -3.224E+01   -3.186E+01   -3.147E+01   -3.109E+01   -3.070E+01   -3.032E+01   -2.994E+01   -2.955E+01   -2.917E+01   -2.879E+01
 Mac      Conc. = 3.72E-04
  -1.13366E+02 -1.13449E+02 -1.13477E+02 -1.13897E+02 -1.14964E+02 -1.16813E+02 -1.19147E+02 -1.21471E+02 -1.23140E+02 -1.23849E+02
  -1.23691E+02 -1.23287E+02 -1.23493E+02 -1.24834E+02 -1.26898E+02 -1.28104E+02 -1.26463E+02 -1.21268E+02 -1.13907E+02 -1.07005E+02
  -1.01741E+02 -9.77493E+01 -9.51253E+01 -9.37231E+01 -9.24755E+01 -9.07535E+01 -8.83396E+01 -8.54562E+01 -8.25842E+01 -8.01659E+01
  -7.85194E+01 -7.74725E+01 -7.70393E+01 -7.71839E+01 -7.73671E+01 -7.65173E+01 -7.40302E+01 -7.04718E+01 -6.73515E+01 -6.59952E+01
  -6.60930E+01 -6.61739E+01 -6.51085E+01 -6.31121E+01 -6.11496E+01 -6.01523E+01 -6.05202E+01 -6.18275E+01 -6.35995E+01 -6.54693E+01
  -6.69679E+01 -6.79538E+01 -6.85086E+01 -6.87661E+01 -6.84570E+01 -6.74863E+01 -6.58362E+01 -6.35991E+01 -6.13373E+01 -5.93351E+01
  -5.76014E+01 -5.65295E+01 -5.66636E+01 -5.77620E+01 -5.91171E+01 -6.02540E+01 -6.08772E+01 -6.09840E+01 -6.05150E+01 -5.88478E+01
  -5.57089E+01 -5.17716E+01 -4.84716E+01 -4.66345E+01 -4.61673E+01 -4.67424E+01 -4.79276E+01 -4.91695E+01 -5.02304E+01 -5.09088E+01
  -5.10799E+01 -5.09100E+01 -5.01498E+01 -4.88374E+01 -4.72824E+01 -4.58226E+01 -4.45701E+01 -4.34763E+01 -4.25871E+01 -4.18676E+01
  -4.12511E+01 -4.08168E+01 -4.08793E+01 -4.16173E+01 -4.34181E+01 -4.63220E+01 -4.97880E+01 -5.31450E+01 -5.59971E+01 -5.82964E+01
  -6.05421E+01 -6.35178E+01 -6.76946E+01 -7.34238E+01 -8.09157E+01 -8.97039E+01 -9.80528E+01 -1.03750E+02 -1.05300E+02 -1.03063E+02
