 
 $NMID
 ID=''
 FMTDAT='(2E13.5)'
 TRAMP=   1.00000E+0
 VOLUME=   1.00000E+0
 $END
   1.02818E+4  -2.23018E+3
   4.74814E+3  -1.83157E+3
  -5.45091E+3   9.28828E+2
   5.83697E+3   7.18045E+2
   3.77110E+3  -5.10801E+2
  -5.41907E+3   2.98545E+3
  -1.12478E+2  -4.17913E+2
   2.90867E+3  -4.68983E+3
   1.53499E+3   2.39913E+3
   1.66495E+3   5.43069E+3
  -3.32050E+3  -2.23891E+2
  -3.79839E+3  -1.22042E+3
   3.33013E+3   1.16629E+3
   8.73755E+2   1.65504E+3
  -4.32813E+3   5.45473E+0
  -1.45665E+2  -2.63918E+3
   1.03575E+3  -1.16701E+3
  -1.84697E+3   1.87021E+3
   2.45368E+2  -1.63311E+3
   2.67405E+3  -1.79710E+3
  -6.92848E+2   2.74228E+3
  -1.50863E+3  -6.60916E+2
   1.25687E+3  -3.77768E+3
   1.61166E+3   2.89306E+3
  -2.42853E+3   3.22695E+3
  -2.08699E+3  -3.81192E+3
   3.68849E+3  -1.44290E+3
   2.43344E+3   4.88788E+3
  -3.78399E+3   1.73400E+3
  -8.14961E+2  -2.98874E+3
   3.88510E+3  -3.26688E+2
  -8.31341E+1   2.75110E+3
  -2.79069E+3   2.61897E+2
   4.40292E+2  -2.26629E+3
   9.66279E+2  -4.08988E+1
  -1.15719E+3   6.01524E+1
   3.85844E+2  -2.45137E+3
   2.17417E+3  -1.30883E+3
   8.44736E+2   1.66775E+3
  -1.37077E+3   6.63099E+2
  -5.15770E+2  -1.03036E+3
   5.39876E+2   2.38810E+2
  -1.01763E+3   6.55530E+2
  -2.16103E+3  -9.79474E+2
  -3.46068E+2  -2.49621E+3
   2.39472E+3  -8.76100E+2
   1.74670E+3   2.22437E+3
  -7.93784E+2   1.87100E+3
  -1.18791E+3   1.31402E+2
  -2.15980E+2   5.95983E+2
  -8.17243E+2   8.49666E+2
  -1.33473E+3  -8.59045E+2
   6.30324E+2  -1.47851E+3
   1.22962E+3   3.74739E+2
  -1.63200E+2   3.36801E+2
  -6.07204E+1  -6.73956E+2
   8.85217E+2   4.26248E+2
  -5.44460E+2   1.67124E+3
  -2.13435E+3  -2.06321E+2
  -6.89088E+2  -1.78616E+3
   7.85602E+2  -6.21580E+2
   2.44737E+2   1.26780E+1
   3.21869E+2  -7.15832E+2
   1.26199E+3   8.67808E+0
   6.52684E+2   1.21078E+3
  -4.24866E+2   1.55499E+3
  -5.44832E+2   7.95768E+2
  -7.18401E+2   4.01810E+1
  -7.42861E+2  -3.47244E+2
   1.35593E+1  -5.29203E+2
   5.13777E+2  -3.69155E+2
   1.26417E+2   7.10131E+1
  -2.58919E+2  -3.54388E+2
   5.16473E+2  -9.81262E+2
   1.05058E+3  -8.27482E+1
   1.46654E+2   7.36271E+2
  -4.22655E+2   1.56422E+2
  -6.63703E+1  -6.28997E+2
   6.55762E+2  -6.63993E+2
   3.58115E+2   2.86509E+2
   1.03032E+2   1.77355E+2
   1.37850E+2  -4.57379E+2
   2.28133E+2   1.56943E+2
  -2.24783E+2   5.51515E+2
  -4.66446E+2   1.74435E+2
   1.41939E+2  -1.35444E+2
  -7.79739E+1   1.40977E+2
  -1.47320E+2  -1.54701E+2
   1.08101E+2  -5.39397E+2
   4.70578E+2  -4.25106E+2
   2.06846E+2   4.11852E+2
  -2.35949E+2  -3.50462E+2
   4.56814E+2  -3.82997E+2
   8.67055E+2   2.48307E+2
   3.58779E+1   7.82470E+2
  -6.03965E+2   1.54008E+2
  -3.75796E+1  -3.57425E+2
   5.60775E+2  -6.32802E+0
  -1.87314E+2   3.20963E+2
  -4.97731E+2  -1.42282E+2
   1.08258E+2  -3.89657E+2
   4.32638E+2  -2.19861E+2
   8.48607E+1   1.52294E+2
  -1.43342E+2   8.11293E+1
  -1.41773E+2   3.13501E+0
  -8.03258E+1  -4.40530E+1
   1.06960E+2  -3.81011E+2
   6.68170E+2  -2.89839E+2
   7.98731E+2   4.10644E+2
  -4.80090E+2   8.72825E+2
  -7.59113E+2   4.82963E+0
  -2.90888E+2  -6.71327E+2
   8.10399E+1  -2.34310E+2
   4.71335E+1  -9.81715E+0
  -2.43089E+2  -2.63828E+2
   1.24163E+2  -6.94188E+2
   3.75735E+2   1.03679E+1
   2.45506E+2   1.74337E+2
   4.38145E+1   3.09241E+2
  -3.45750E+2   1.73574E+2
  -4.11231E+2   1.23079E+1
  -4.05535E+2  -1.55384E+2
   1.05800E+2  -4.44576E+2
   1.68343E+2  -3.97743E+2
   1.11088E+2  -1.51603E+2
   3.93303E+2   1.57908E+2
   2.56759E+2   2.53514E+2
  -8.61759E+1   1.56612E+2
  -2.00921E+2  -9.64144E+0
  -1.53411E+2  -4.30641E+2
   1.22382E+2  -1.76886E+2
   3.90114E+2   7.30276E+1
  -7.46112E+1   2.25889E+2
  -1.42476E+2   1.10925E+2
  -1.98656E+2  -8.69375E+1
   1.58255E+2   1.77386E+2
  -6.35156E+1   1.85744E+2
  -3.76056E+2  -7.78182E+1
  -1.67020E+2  -3.86344E+1
  -9.12276E+0   5.16672E+1
   1.23714E+2   4.64304E+1
   1.47531E+2   7.27451E+1
   1.72327E+2   1.22163E+2
  -9.14404E+1   1.22776E+2
  -5.02391E+1  -3.61712E+1
   9.38171E+1   6.19340E+1
   1.78219E+2   1.30259E+2
   1.19074E+2   1.12746E+2
   1.81731E+2   3.34796E+1
  -4.43522E+1   1.26714E+2
   1.41595E+1   2.74468E+2
   1.31912E+2  -5.37758E+0
   2.68143E+2   1.77480E+2
   9.49094E+1   2.00370E+2
  -5.15511E+1  -2.06432E+1
   3.98399E+1  -5.20510E+0
   2.78449E+2   1.11484E+2
   1.89477E+2   1.85124E+1
  -8.21532E+1  -5.70693E+1
   1.08166E+2   4.35762E+1
   1.17240E+2   1.32183E+2
   9.00408E+1  -8.89215E+1
   2.54302E+2  -1.44244E+2
   1.43433E+2  -3.51190E+1
  -5.42063E+1  -1.19557E+2
   6.81996E+1   1.81252E+1
   2.95547E+1   3.00074E+1
   1.82964E+2   4.77246E+1
   3.78963E+1   5.07001E+1
  -1.43971E+2   6.42057E+1
   1.84789E+2  -1.42978E+2
   3.10688E+1   1.13074E+2
   8.80364E+1  -3.45424E+2
   1.25625E+2  -2.76637E+2
   1.54351E+2  -1.71745E+2
   1.43943E+2  -1.34080E+2
   1.11282E+1  -1.23076E+2
   4.46310E+1  -1.69462E+2
   2.89088E+2   1.74003E+2
  -5.46483E+1   2.81661E+1
   8.31430E+0   1.22280E+2
  -5.96255E+1  -2.84503E+1
   2.56356E+2  -1.98003E+2
  -1.44355E+1  -6.17988E+1
   1.53139E+2  -8.77351E+1
  -7.92415E+1   1.89969E+1
   1.18930E+2   3.57457E+1
   1.27136E+2   6.78617E+0
  -5.40738E+1   8.51584E+1
   5.96328E+1  -4.04567E+2
   1.42620E+2   8.38686E+1
   1.54175E+1  -4.45445E+1
  -5.63918E+0  -2.06559E+2
  -6.47693E+1   2.06067E+2
   1.34063E+1   1.31907E+2
   5.21324E+1  -9.47367E+1
  -2.12156E+2  -1.47429E+2
   2.33624E+2   6.84503E+0
   1.32937E+0  -2.11964E+2
  -1.02552E+2  -5.24715E+1
  -3.14370E+1   1.85765E+2
   1.53572E+2   3.10509E+1
   8.86184E+0   7.39289E+1
   6.72184E+1   3.11662E+2
   1.70750E+2   1.00639E+2
   3.82353E+0   6.26049E+1
   4.03903E+1   4.53875E+1
  -5.12173E+1  -6.94932E+1
   2.92087E+1   1.03006E+2
   2.51220E+1   2.67762E+1
   3.84208E+1   6.21843E+1
   1.19767E+2   1.10390E+2
   7.05627E+1  -9.75385E+1
   1.66364E+1   2.09484E+2
  -4.46136E+1  -9.96769E+1
  -1.80370E+2  -4.46228E+1
   3.30912E+1   1.41981E+1
  -2.22182E+2   1.32888E+2
   7.12180E+1   6.23210E+0
   2.30972E+2   2.02888E+2
   4.52170E+1   1.31741E+2
  -3.00390E+0   3.16398E+2
   2.46977E+2   2.54137E+2
   2.06752E+0   1.28457E+2
  -3.23622E+1  -3.81254E+0
  -3.99118E+2   1.61811E+2
   1.16614E+2  -1.24487E+2
  -2.08221E+2   1.42466E+2
   2.16908E+2   3.60838E+2
  -8.26719E+1   8.48865E+1
  -7.69736E+0   2.00145E+2
   2.04145E+2   2.18175E+2
  -7.44348E+1   2.46727E+2
   1.20334E+2   5.03438E+0
   1.19135E+2   9.79096E+1
  -5.71289E+1   2.04317E+1
   2.06830E+2   7.03608E+1
   9.13538E+1   2.50131E+1
   1.65457E+2   9.99705E+1
   1.31544E+1   1.72344E+2
   5.19172E+0  -4.68331E+1
   1.33056E+2   2.47827E+2
   3.44832E+1   1.95154E+2
  -2.26801E+2   1.24175E+2
   1.45318E+2  -1.52842E+2
   7.01709E+1   1.14048E+1
   5.08274E+1   1.12400E+2
   4.32743E+1  -5.03130E+1
  -8.51791E+1  -1.02669E+2
   9.50368E+1   1.67047E+1
   3.60389E+2  -1.22414E+2
   2.51956E+2  -6.09699E+1
  -1.19658E+2   1.53045E+2
  -1.04655E+2   1.73046E+2
   9.34747E+1  -3.74942E+1
   1.18894E+2  -2.62593E+1
   4.85113E+2   4.85508E+1
   3.09900E+2   2.49093E+2
   9.85575E+1   1.61727E+1
  -4.54494E+1  -1.56892E+2
  -2.67297E+0   9.09947E+1
  -1.31857E+2  -7.02642E+1
   8.38711E+1  -7.22159E+1
   3.00807E+1  -2.46309E+2
   3.89976E+2  -8.76850E+1
   2.18232E+2  -1.65737E+1
   1.62723E+2   1.79286E+2
  -1.05686E+1   1.71997E+2
  -5.25467E+1  -1.16882E+2
  -6.33396E+1   2.12400E+2
  -7.58338E+1  -9.10533E+1
  -1.03039E+2  -7.50381E+1
  -1.90302E+2  -2.76840E+1
   8.13581E+1  -2.01882E+2
   7.12318E+1  -9.30817E+1
   2.01055E+1   2.21838E+2
  -3.07217E+1  -1.57597E+1
   7.41047E+1  -8.85415E+1
   4.45998E+1  -2.05063E+2
   2.09597E+2  -1.19868E+2
   2.44427E+2  -1.77859E+2
   1.18825E+2  -1.03726E+2
   4.36345E+1   3.84555E+1
   1.53413E+0   2.32756E+2
   2.58738E+1   1.46274E+2
  -1.79208E+2   1.32471E+2
   3.09277E+1  -9.67656E+1
  -6.33358E+1  -1.39328E+2
   1.48174E+2  -9.90362E+1
   3.27983E+2  -4.56846E+1
  -2.86857E+0   1.22093E+0
   1.55214E+2  -2.35288E+2
   1.72010E+2   3.02096E+1
   8.52044E+1  -9.00730E+1
  -1.61643E+2  -1.63594E+2
   1.55911E+2  -1.07134E+2
  -2.32533E+1   7.13361E+1
   1.25521E+2  -3.33718E+1
   3.08477E+2  -3.60857E+1
  -8.57384E+0  -3.97853E+1
   5.81791E+1  -1.62361E+2
   1.06456E+2  -2.20256E+2
   1.93614E+2   1.56085E+2
   8.69375E+1   5.26222E+1
   9.27651E-1   2.83276E+1
  -1.46504E+2   1.24713E+2
  -1.56763E+1  -3.46747E+2
   2.85611E+1  -3.13895E+1
   1.78502E+2  -2.15599E+1
   2.19482E+2   3.22243E+2
  -3.29291E+1  -2.13048E+2
   6.52520E+1  -8.64312E+1
   1.78858E+2  -1.63396E+2
   2.72490E+2   2.48631E+1
  -7.75026E+1  -1.28363E+2
   1.33349E+2  -2.14000E+2
  -4.93649E+1  -3.02448E+1
   8.14827E+1   2.04302E+2
   9.47245E+1   6.89406E+0
  -3.57236E+1  -8.73644E+1
  -1.60232E+2  -7.06823E+1
  -1.53036E+2  -3.52096E+1
   1.40810E+2   8.07859E+0
  -2.45616E+1  -6.09355E+1
   1.17887E+2  -2.28645E+2
   1.69144E+2  -1.37459E+2
   9.22042E+1   1.35612E+2
   1.31544E+2   2.09522E+2
  -7.18869E+1  -1.20100E+2
  -7.83695E+1   1.30334E+2
  -3.99930E+1   1.83144E+2
  -7.68546E+1  -7.21457E+1
  -5.08373E-1   3.12001E+1
   4.60214E+1  -5.20844E+0
   4.50417E+1  -1.76734E+1
  -7.28431E+1   4.77433E+1
  -7.34092E+0   8.80113E+1
   6.45921E+1  -9.93626E+1
   1.46893E+2   1.62898E+2
  -4.51296E+1   5.35193E+1
   1.41164E+2  -1.06919E+2
   1.46741E+2  -2.48926E+2
  -1.28327E+2  -7.58892E+1
  -5.23464E+1  -6.78556E+1
  -1.46688E+2  -5.28905E+1
  -1.51814E+2  -8.97276E+1
  -2.75006E+2  -7.06275E+0
  -6.35502E+1  -1.00837E+2
  -1.35724E+2  -2.33558E+2
   2.06276E+2  -1.00332E+2
   6.18002E+1   1.90140E+2
  -5.39727E+1   2.32900E+2
   2.79141E+0  -5.56558E+1
  -1.97601E+1  -8.47242E+0
  -4.23188E+1   2.23023E+2
  -2.38473E+1  -1.95691E+2
  -7.80339E+0   1.19383E+2
  -3.57592E+1  -6.40465E+1
  -2.97857E+1   3.57757E+1
  -1.78618E+2   2.20031E+2
  -1.12062E+1   4.90810E+1
  -2.24469E+2   4.81578E+1
  -5.58675E+1  -4.67475E+1
  -1.09288E+2  -1.43887E+2
   1.52488E+2   1.59166E+2
   5.93907E+1   1.89746E+2
  -1.38852E+2   1.97657E+2
