 
 $NMID
 ID=''
 FMTDAT='(2E13.5)'
 TRAMP=   1.00000E+0
 VOLUME=   1.00000E+0
 $END
   1.09948E+5   6.25483E+5
  -2.72128E+5   1.67562E+6
  -4.61565E+4   1.66441E+6
  -1.41910E+5   1.52710E+6
  -2.56833E+5   1.56173E+6
  -2.75339E+5   1.53724E+6
  -3.42768E+5   1.50287E+6
  -3.68708E+5   1.54142E+6
  -3.36725E+5   1.49848E+6
  -3.89957E+5   1.44026E+6
  -4.44095E+5   1.44841E+6
  -4.52123E+5   1.42839E+6
  -4.76576E+5   1.40486E+6
  -4.81542E+5   1.40643E+6
  -4.83033E+5   1.36736E+6
  -5.19029E+5   1.33039E+6
  -5.46671E+5   1.33379E+6
  -5.63550E+5   1.31102E+6
  -6.01519E+5   1.27814E+6
  -6.24798E+5   1.25840E+6
  -6.45276E+5   1.22308E+6
  -6.80312E+5   1.19737E+6
  -6.99654E+5   1.18418E+6
  -7.14127E+5   1.15319E+6
  -7.37682E+5   1.12308E+6
  -7.45328E+5   1.10841E+6
  -7.55132E+5   1.08524E+6
  -7.70294E+5   1.06516E+6
  -7.75230E+5   1.04779E+6
  -7.82043E+5   1.02443E+6
  -8.03964E+5   9.99938E+5
  -8.16406E+5   9.75597E+5
  -8.28374E+5   9.46829E+5
  -8.45741E+5   9.23628E+5
  -8.59523E+5   8.97575E+5
  -8.73530E+5   8.66977E+5
  -8.91223E+5   8.41935E+5
  -9.04633E+5   8.16165E+5
  -9.13867E+5   7.87083E+5
  -9.22611E+5   7.64943E+5
  -9.27911E+5   7.43604E+5
  -9.33819E+5   7.19621E+5
  -9.38039E+5   6.99121E+5
  -9.41317E+5   6.80487E+5
  -9.45354E+5   6.59607E+5
  -9.52500E+5   6.40246E+5
  -9.58124E+5   6.16912E+5
  -9.63790E+5   5.90203E+5
  -9.68501E+5   5.64420E+5
  -9.74145E+5   5.40716E+5
  -9.80031E+5   5.15892E+5
  -9.84938E+5   4.90337E+5
  -9.89164E+5   4.66235E+5
  -9.94635E+5   4.42092E+5
  -9.97148E+5   4.18204E+5
  -9.98019E+5   3.95461E+5
  -9.99036E+5   3.73313E+5
  -9.99078E+5   3.51998E+5
  -9.97824E+5   3.31544E+5
  -9.97650E+5   3.12146E+5
  -9.97988E+5   2.92194E+5
  -9.97493E+5   2.71594E+5
  -9.96605E+5   2.49339E+5
  -9.94722E+5   2.26819E+5
  -9.92514E+5   2.04642E+5
  -9.89147E+5   1.83237E+5
  -9.85237E+5   1.62594E+5
  -9.81020E+5   1.41850E+5
  -9.78306E+5   1.21237E+5
  -9.75605E+5   1.01015E+5
  -9.70764E+5   8.08108E+4
  -9.64644E+5   6.29319E+4
  -9.59788E+5   4.57762E+4
  -9.54528E+5   2.67534E+4
  -9.47944E+5   7.26883E+3
  -9.41439E+5  -1.02405E+4
  -9.35334E+5  -2.74765E+4
  -9.28446E+5  -4.60998E+4
  -9.19836E+5  -6.55681E+4
  -9.11997E+5  -8.47625E+4
  -9.03857E+5  -1.03219E+5
  -8.95170E+5  -1.20425E+5
  -8.85993E+5  -1.37083E+5
  -8.76198E+5  -1.54469E+5
  -8.66385E+5  -1.71517E+5
  -8.56588E+5  -1.86677E+5
  -8.47134E+5  -2.00742E+5
  -8.37277E+5  -2.14317E+5
  -8.26993E+5  -2.28073E+5
  -8.16084E+5  -2.40848E+5
  -8.05776E+5  -2.53751E+5
  -7.95841E+5  -2.66832E+5
  -7.84818E+5  -2.79859E+5
  -7.72481E+5  -2.92768E+5
  -7.59854E+5  -3.05093E+5
  -7.47694E+5  -3.17257E+5
  -7.36813E+5  -3.29431E+5
  -7.25396E+5  -3.41386E+5
  -7.12356E+5  -3.52409E+5
  -6.99761E+5  -3.62487E+5
  -6.87870E+5  -3.72851E+5
  -6.75863E+5  -3.83896E+5
  -6.62602E+5  -3.92955E+5
  -6.49652E+5  -4.00772E+5
  -6.37596E+5  -4.07935E+5
  -6.26157E+5  -4.16088E+5
  -6.13687E+5  -4.24311E+5
  -6.00358E+5  -4.32211E+5
  -5.86954E+5  -4.39087E+5
  -5.74601E+5  -4.44990E+5
  -5.61918E+5  -4.51252E+5
  -5.49201E+5  -4.58586E+5
  -5.35658E+5  -4.66015E+5
  -5.21940E+5  -4.72353E+5
  -5.08874E+5  -4.78401E+5
  -4.95455E+5  -4.84215E+5
  -4.81974E+5  -4.89928E+5
  -4.68085E+5  -4.95069E+5
  -4.55008E+5  -4.98709E+5
  -4.42526E+5  -5.02313E+5
  -4.30470E+5  -5.06255E+5
  -4.17845E+5  -5.10685E+5
  -4.05053E+5  -5.14466E+5
  -3.91980E+5  -5.18085E+5
  -3.78925E+5  -5.21562E+5
  -3.65823E+5  -5.23803E+5
  -3.52716E+5  -5.25711E+5
  -3.40294E+5  -5.28046E+5
  -3.27689E+5  -5.30598E+5
  -3.14877E+5  -5.32643E+5
  -3.01575E+5  -5.35158E+5
  -2.88268E+5  -5.36581E+5
  -2.75249E+5  -5.37487E+5
  -2.62741E+5  -5.38297E+5
  -2.50115E+5  -5.39286E+5
  -2.37182E+5  -5.39782E+5
  -2.24925E+5  -5.39321E+5
  -2.13067E+5  -5.39664E+5
  -2.00824E+5  -5.39826E+5
  -1.88058E+5  -5.39139E+5
  -1.75776E+5  -5.38226E+5
  -1.64171E+5  -5.36721E+5
  -1.52790E+5  -5.35163E+5
  -1.41803E+5  -5.33923E+5
  -1.30273E+5  -5.32674E+5
  -1.18982E+5  -5.30539E+5
  -1.07651E+5  -5.27866E+5
  -9.69963E+4  -5.25029E+5
  -8.63678E+4  -5.21907E+5
  -7.64118E+4  -5.18929E+5
  -6.63374E+4  -5.15477E+5
  -5.66775E+4  -5.12168E+5
  -4.73823E+4  -5.08693E+5
  -3.81245E+4  -5.05370E+5
  -2.81921E+4  -5.01923E+5
  -1.91404E+4  -4.97553E+5
  -1.04965E+4  -4.93271E+5
  -1.70276E+3  -4.89453E+5
   7.18308E+3  -4.84743E+5
   1.51930E+4  -4.80285E+5
   2.35386E+4  -4.75745E+5
   3.16669E+4  -4.70772E+5
   4.00008E+4  -4.65871E+5
   4.75802E+4  -4.60281E+5
   5.49430E+4  -4.55233E+5
   6.16742E+4  -4.50100E+5
   6.87192E+4  -4.45099E+5
   7.62048E+4  -4.40010E+5
   8.29376E+4  -4.34188E+5
   8.93974E+4  -4.28905E+5
   9.54994E+4  -4.23707E+5
   1.01677E+5  -4.18173E+5
   1.07775E+5  -4.12594E+5
   1.13745E+5  -4.06860E+5
   1.19518E+5  -4.01053E+5
   1.25368E+5  -3.95693E+5
   1.31513E+5  -3.90167E+5
   1.37057E+5  -3.83851E+5
   1.42116E+5  -3.77533E+5
   1.47179E+5  -3.71362E+5
   1.52438E+5  -3.65997E+5
   1.57808E+5  -3.60188E+5
   1.62740E+5  -3.54018E+5
   1.67551E+5  -3.47882E+5
   1.72007E+5  -3.41638E+5
   1.76154E+5  -3.35608E+5
   1.80333E+5  -3.29432E+5
   1.84092E+5  -3.23237E+5
   1.87678E+5  -3.17317E+5
   1.91331E+5  -3.12058E+5
   1.95624E+5  -3.06298E+5
   1.99712E+5  -2.99658E+5
   2.02955E+5  -2.92861E+5
   2.06125E+5  -2.86487E+5
   2.09232E+5  -2.80451E+5
   2.12339E+5  -2.74220E+5
   2.15640E+5  -2.67756E+5
   2.18322E+5  -2.61541E+5
   2.21294E+5  -2.55141E+5
   2.24081E+5  -2.48775E+5
   2.26870E+5  -2.41754E+5
   2.29113E+5  -2.35214E+5
   2.30683E+5  -2.28678E+5
   2.32653E+5  -2.22826E+5
   2.34792E+5  -2.16517E+5
   2.37058E+5  -2.09870E+5
   2.38494E+5  -2.03304E+5
   2.40042E+5  -1.96890E+5
   2.41424E+5  -1.90695E+5
   2.42597E+5  -1.84070E+5
   2.44136E+5  -1.77675E+5
   2.44686E+5  -1.71528E+5
   2.45732E+5  -1.65471E+5
   2.46599E+5  -1.59273E+5
   2.47617E+5  -1.52697E+5
   2.47908E+5  -1.46117E+5
   2.48017E+5  -1.40040E+5
   2.47849E+5  -1.33932E+5
   2.48231E+5  -1.28546E+5
   2.47888E+5  -1.22440E+5
   2.47977E+5  -1.16530E+5
   2.47268E+5  -1.11134E+5
   2.47153E+5  -1.05224E+5
   2.46915E+5  -9.97047E+4
   2.46411E+5  -9.39001E+4
   2.45155E+5  -8.83062E+4
   2.44173E+5  -8.33477E+4
   2.43408E+5  -7.81848E+4
   2.42861E+5  -7.26716E+4
   2.41715E+5  -6.73640E+4
   2.40302E+5  -6.22933E+4
   2.39132E+5  -5.75583E+4
   2.37864E+5  -5.28789E+4
   2.36440E+5  -4.79170E+4
   2.34539E+5  -4.34052E+4
   2.33008E+5  -3.89642E+4
   2.31676E+5  -3.48701E+4
   2.30074E+5  -3.02465E+4
   2.28142E+5  -2.58054E+4
   2.26243E+5  -2.15908E+4
   2.24628E+5  -1.79144E+4
   2.22738E+5  -1.38070E+4
   2.21084E+5  -9.89800E+3
   2.18832E+5  -5.57981E+3
   2.16982E+5  -1.73973E+3
   2.14880E+5   1.88587E+3
   2.12917E+5   5.50878E+3
   2.11002E+5   9.24424E+3
   2.08337E+5   1.26752E+4
   2.06152E+5   1.59272E+4
   2.04356E+5   1.91698E+4
   2.02283E+5   2.26033E+4
   1.99933E+5   2.58336E+4
   1.97511E+5   2.90809E+4
   1.94877E+5   3.20085E+4
   1.92849E+5   3.49986E+4
   1.90352E+5   3.78904E+4
   1.88323E+5   4.12743E+4
   1.85630E+5   4.40694E+4
   1.83438E+5   4.73835E+4
   1.81039E+5   5.01376E+4
   1.78166E+5   5.32616E+4
   1.75133E+5   5.55787E+4
   1.72436E+5   5.80042E+4
   1.70231E+5   6.05555E+4
   1.67756E+5   6.30433E+4
   1.65152E+5   6.57379E+4
   1.62535E+5   6.81910E+4
   1.59669E+5   7.02390E+4
   1.56756E+5   7.25000E+4
   1.54075E+5   7.46352E+4
   1.51458E+5   7.66760E+4
   1.48798E+5   7.84333E+4
   1.46159E+5   8.06224E+4
   1.43290E+5   8.27000E+4
   1.40435E+5   8.46982E+4
   1.37216E+5   8.66564E+4
   1.34652E+5   8.81060E+4
   1.31840E+5   8.96053E+4
   1.28826E+5   9.11745E+4
   1.26200E+5   9.28490E+4
   1.23115E+5   9.43829E+4
   1.20444E+5   9.52917E+4
   1.17667E+5   9.69720E+4
   1.14893E+5   9.84697E+4
   1.11702E+5   9.94757E+4
   1.09171E+5   1.00296E+5
   1.06222E+5   1.01120E+5
   1.03930E+5   1.02243E+5
   1.00959E+5   1.03434E+5
   9.81230E+4   1.04155E+5
   9.52869E+4   1.05109E+5
   9.24643E+4   1.05992E+5
   8.97433E+4   1.06613E+5
   8.70728E+4   1.07245E+5
   8.41088E+4   1.07785E+5
   8.17916E+4   1.08508E+5
   7.91861E+4   1.08914E+5
   7.64192E+4   1.09580E+5
   7.37072E+4   1.10089E+5
   7.10873E+4   1.10100E+5
   6.87121E+4   1.10626E+5
   6.63323E+4   1.10883E+5
   6.37863E+4   1.11377E+5
   6.10800E+4   1.11445E+5
   5.85555E+4   1.11537E+5
   5.60473E+4   1.11452E+5
   5.36209E+4   1.11533E+5
   5.13869E+4   1.11905E+5
   4.91021E+4   1.11679E+5
   4.64394E+4   1.11673E+5
   4.44124E+4   1.11840E+5
   4.19796E+4   1.11766E+5
   3.96500E+4   1.11453E+5
   3.74778E+4   1.11241E+5
   3.53981E+4   1.10770E+5
   3.32117E+4   1.10781E+5
   3.09402E+4   1.10069E+5
   2.87745E+4   1.10102E+5
   2.68391E+4   1.09583E+5
   2.49038E+4   1.09233E+5
   2.27791E+4   1.08747E+5
   2.08014E+4   1.08221E+5
   1.88496E+4   1.07597E+5
   1.68610E+4   1.06811E+5
   1.53507E+4   1.06417E+5
   1.33717E+4   1.06109E+5
   1.14845E+4   1.05684E+5
   9.43500E+3   1.04722E+5
   7.68212E+3   1.03860E+5
   5.85340E+3   1.03067E+5
   4.43916E+3   1.02265E+5
   2.67309E+3   1.01523E+5
   9.51396E+2   1.00620E+5
  -5.84867E+2   9.96849E+4
  -2.31669E+3   9.92035E+4
  -3.97791E+3   9.84093E+4
  -5.67114E+3   9.71614E+4
  -7.22367E+3   9.60353E+4
  -8.69719E+3   9.49928E+4
  -9.72668E+3   9.42918E+4
  -1.14533E+4   9.32022E+4
  -1.30932E+4   9.21471E+4
  -1.45413E+4   9.11442E+4
  -1.56558E+4   8.99609E+4
  -1.69745E+4   8.88217E+4
  -1.84407E+4   8.78218E+4
  -1.97094E+4   8.64967E+4
  -2.05463E+4   8.56063E+4
  -2.15967E+4   8.47168E+4
  -2.28290E+4   8.32659E+4
  -2.42773E+4   8.20780E+4
  -2.53367E+4   8.08510E+4
  -2.63471E+4   7.97635E+4
  -2.72493E+4   7.84968E+4
  -2.87121E+4   7.73291E+4
  -2.93652E+4   7.59117E+4
  -3.04661E+4   7.48975E+4
  -3.13022E+4   7.37666E+4
  -3.23610E+4   7.26324E+4
  -3.31798E+4   7.13494E+4
  -3.40761E+4   6.99234E+4
  -3.47351E+4   6.86435E+4
  -3.55760E+4   6.75621E+4
  -3.60199E+4   6.62756E+4
  -3.69620E+4   6.51721E+4
  -3.77413E+4   6.35212E+4
