 LCModel (Version 6.3-1N) Copyright: S.W. Provencher.          Ref.: Magn. Reson. Med. 30:672-679 (1993).                
 Slice_N1@21_16  28-Feb-2025 11:42:40
 27 lines in following concentration table = NCONC+1
    Conc.  %SD /Cr+PCr  Metabolite                                         
 2.79E-04   5% 2.9E-04 Mac                                                 
    3.397  81%   3.562 Cr                                                  
    4.232  65%   4.438 PCr                                                 
    5.770  21%   6.051 Ins                                                 
    4.214  28%   4.419 NAA                                                 
    5.659  25%   5.935 Tau                                                 
    2.088  16%   2.190 PCho                                                
    0.000 999%   0.000 GPC                                                 
    7.973  17%   8.362 Glu                                                 
    2.571  41%   2.696 Gln                                                 
    0.000 999%   0.000 Ala                                                 
    0.902 185%   0.946 Asc                                                 
    1.464  70%   1.535 Asp                                                 
    0.731  79%   0.766 GABA                                                
    0.457 143%   0.479 Glc                                                 
    1.601  39%   1.679 GSH                                                 
   11.557   9%  12.120 Lac                                                 
    4.311  22%   4.521 NAAG                                                
    0.000 999%   0.000 PE                                                  
    2.088  16%   2.190 GPC+PCho                                            
    8.524  12%   8.939 NAA+NAAG                                            
   10.544  16%  11.057 Glu+Gln                                             
    7.629  12%   8.000 Cr+PCr                                              
    8.524  12%   8.939 NAA+NAAG                                            
    7.629  12%   8.000 Cr+PCr                                              
   10.544  16%  11.057 Glu+Gln                                             
   6 lines in following misc. output table
  FWHM = 0.049 ppm    S/N =   2                                            
  Data shift =-0.008 ppm                                                   
  Ph: -97 deg       0.0 deg/ppm                                            
  alphaB,S = 1.4E-01,   2.6E+01                                            
   19 spline knots.   Ns = 6(1)                                            
  ( 5) 2 infls.   ( 1) 1 extrs.                                            
  480 points on ppm-axis = NY
      4.100000     4.091866     4.083733     4.075600     4.067466     4.059333     4.051199     4.043066     4.034933     4.026799
      4.018666     4.010532     4.002399     3.994265     3.986132     3.977998     3.969864     3.961731     3.953597     3.945463
      3.937330     3.929196     3.921062     3.912929     3.904795     3.896662     3.888528     3.880394     3.872261     3.864127
      3.855993     3.847860     3.839726     3.831592     3.823459     3.815325     3.807191     3.799058     3.790924     3.782790
      3.774657     3.766523     3.758389     3.750256     3.742122     3.733989     3.725855     3.717721     3.709588     3.701454
      3.693320     3.685187     3.677053     3.668919     3.660786     3.652652     3.644518     3.636385     3.628251     3.620117
      3.611984     3.603850     3.595716     3.587583     3.579449     3.571316     3.563182     3.555048     3.546915     3.538781
      3.530647     3.522514     3.514380     3.506246     3.498113     3.489979     3.481845     3.473712     3.465578     3.457444
      3.449311     3.441177     3.433043     3.424910     3.416776     3.408643     3.400509     3.392375     3.384242     3.376108
      3.367974     3.359841     3.351707     3.343573     3.335440     3.327306     3.319172     3.311039     3.302905     3.294771
      3.286638     3.278504     3.270370     3.262237     3.254103     3.245970     3.237836     3.229702     3.221569     3.213435
      3.205301     3.197168     3.189034     3.180900     3.172767     3.164633     3.156499     3.148366     3.140232     3.132098
      3.123965     3.115831     3.107697     3.099564     3.091430     3.083297     3.075163     3.067029     3.058896     3.050762
      3.042628     3.034495     3.026361     3.018227     3.010094     3.001960     2.993826     2.985693     2.977559     2.969425
      2.961292     2.953158     2.945024     2.936891     2.928757     2.920624     2.912490     2.904356     2.896223     2.888089
      2.879955     2.871822     2.863688     2.855554     2.847421     2.839287     2.831153     2.823020     2.814886     2.806752
      2.798619     2.790485     2.782351     2.774218     2.766084     2.757951     2.749817     2.741683     2.733550     2.725416
      2.717282     2.709149     2.701015     2.692881     2.684748     2.676614     2.668480     2.660347     2.652213     2.644079
      2.635946     2.627812     2.619678     2.611545     2.603411     2.595278     2.587144     2.579010     2.570877     2.562743
      2.554609     2.546476     2.538342     2.530208     2.522075     2.513941     2.505807     2.497674     2.489540     2.481406
      2.473273     2.465139     2.457006     2.448872     2.440738     2.432605     2.424471     2.416337     2.408204     2.400070
      2.391936     2.383803     2.375669     2.367535     2.359402     2.351268     2.343134     2.335001     2.326867     2.318733
      2.310600     2.302466     2.294333     2.286199     2.278065     2.269932     2.261798     2.253664     2.245531     2.237397
      2.229263     2.221130     2.212996     2.204862     2.196729     2.188595     2.180461     2.172328     2.164194     2.156060
      2.147927     2.139793     2.131660     2.123526     2.115392     2.107259     2.099125     2.090991     2.082858     2.074724
      2.066590     2.058457     2.050323     2.042189     2.034056     2.025922     2.017788     2.009655     2.001521     1.993387
      1.985254     1.977120     1.968987     1.960853     1.952719     1.944586     1.936452     1.928318     1.920185     1.912051
      1.903917     1.895784     1.887650     1.879516     1.871383     1.863249     1.855115     1.846982     1.838848     1.830714
      1.822581     1.814447     1.806314     1.798180     1.790046     1.781913     1.773779     1.765645     1.757512     1.749378
      1.741244     1.733111     1.724977     1.716843     1.708710     1.700576     1.692442     1.684309     1.676175     1.668041
      1.659908     1.651774     1.643641     1.635507     1.627373     1.619240     1.611106     1.602972     1.594839     1.586705
      1.578571     1.570438     1.562304     1.554170     1.546037     1.537903     1.529769     1.521636     1.513502     1.505368
      1.497235     1.489101     1.480968     1.472834     1.464700     1.456567     1.448433     1.440299     1.432166     1.424032
      1.415898     1.407765     1.399631     1.391497     1.383364     1.375230     1.367096     1.358963     1.350829     1.342695
      1.334562     1.326428     1.318295     1.310161     1.302027     1.293894     1.285760     1.277626     1.269493     1.261359
      1.253225     1.245092     1.236958     1.228824     1.220691     1.212557     1.204423     1.196290     1.188156     1.180022
      1.171889     1.163755     1.155622     1.147488     1.139354     1.131221     1.123087     1.114953     1.106820     1.098686
      1.090552     1.082419     1.074285     1.066151     1.058018     1.049884     1.041750     1.033617     1.025483     1.017349
      1.009216     1.001082     0.992949     0.984815     0.976681     0.968548     0.960414     0.952280     0.944147     0.936013
      0.927879     0.919746     0.911612     0.903478     0.895345     0.887211     0.879077     0.870944     0.862810     0.854676
      0.846543     0.838409     0.830276     0.822142     0.814008     0.805875     0.797741     0.789607     0.781474     0.773340
      0.765206     0.757073     0.748939     0.740805     0.732672     0.724538     0.716404     0.708271     0.700137     0.692003
      0.683870     0.675736     0.667603     0.659469     0.651335     0.643202     0.635068     0.626934     0.618801     0.610667
      0.602533     0.594400     0.586266     0.578132     0.569999     0.561865     0.553731     0.545598     0.537464     0.529330
      0.521197     0.513063     0.504930     0.496796     0.488662     0.480529     0.472395     0.464261     0.456128     0.447994
      0.439861     0.431727     0.423593     0.415460     0.407326     0.399192     0.391059     0.382925     0.374792     0.366658
      0.358524     0.350391     0.342257     0.334124     0.325990     0.317856     0.309723     0.301589     0.293455     0.285322
      0.277188     0.269055     0.260921     0.252787     0.244654     0.236520     0.228386     0.220253     0.212119     0.203986
 NY phased data points follow
  -7.31631E+00 -2.87367E+00 -2.88364E-01  3.05668E+00 -1.30652E+01 -2.08257E+01 -4.63156E+00 -1.07705E+01 -1.60113E+01 -1.15515E+01
  -1.56295E+01 -3.00159E+01 -2.01251E+01 -2.65131E+01 -3.57894E+01 -1.80650E+01 -3.92773E+01 -3.72276E+01 -3.69655E+01 -4.70475E+01
  -3.97070E+01 -5.40688E+01 -4.44090E+01 -3.24834E+01 -1.74150E+01 -4.60176E-01 -3.75151E+00  3.56180E+00  1.92184E+01  1.87767E+01
   1.63695E+01  1.76073E+01  6.79472E+00  6.38292E+00 -2.29023E+00  2.17800E-01  3.81886E+00 -5.69320E+00 -1.02352E+01 -2.79023E+01
  -2.98868E+01 -2.44528E+01 -2.09615E+01 -3.42870E+01 -1.40833E+01  1.12809E+01  4.94136E+00  3.20057E+01  3.08773E+01  3.63578E+01
   4.71915E+01  3.66919E+01  3.27231E+01  3.03881E+01  3.62026E+01  2.35490E+01  7.59612E+00 -8.90857E+00  1.11264E+01  1.68583E+01
  -1.50177E+00  3.54726E+00  1.19367E+00  2.40039E+01  3.44236E+01  2.77885E+01  1.86551E+01  2.07488E+01  1.47957E+01 -4.62110E+00
  -2.46109E+00 -1.84165E+01 -5.40005E+00  1.31900E+01  1.46572E+01  1.58547E+01  2.00635E+01  3.54858E+01  2.65672E+01  3.16382E+01
   2.95747E+01  2.89386E+01  3.45972E+01  1.48670E+01  1.75550E+01  1.28323E+01  4.29860E+00  2.09167E+01  2.77110E+01  2.68594E+01
   3.41000E+01  4.29315E+01  6.03160E+01  7.27704E+01  6.35002E+01  6.48636E+01  6.38013E+01  7.09268E+01  9.02138E+01  7.54460E+01
   7.65261E+01  7.33102E+01  5.09314E+01  5.17816E+01  3.11182E+01  2.15574E+01  2.50252E+01  1.76527E-02 -2.52936E+01 -5.14246E+01
  -8.39725E+01 -1.03139E+02 -8.74666E+01 -8.18321E+01 -8.70688E+01 -4.78090E+01 -1.86538E+01 -9.89468E+00 -3.42573E+00 -1.31142E+01
   4.37277E+00  1.74022E+01  1.30338E+01  1.72349E+01  2.92821E+01  4.43578E+01  4.19966E+01  6.08789E+01  7.54943E+01  8.05404E+01
   8.83505E+01  7.72656E+01  6.17126E+01  2.39436E+01 -6.32739E+00 -3.34168E+01 -5.85841E+01 -6.08065E+01 -5.42387E+01 -4.89096E+01
  -4.29296E+01 -4.14370E+01 -4.88427E+01 -4.16635E+01 -5.69527E+01 -5.24781E+01 -4.29923E+01 -5.41335E+01 -4.15265E+01 -5.57219E+01
  -3.78375E+01 -2.02289E+01 -4.73587E+01 -3.76225E+01 -2.02972E+01 -2.21392E+01 -1.75411E+01 -1.14274E+01 -2.14598E+01 -2.04671E+01
   7.31458E-01 -6.67882E-02 -1.81688E+01 -1.05454E+01  3.04870E+00  6.71270E+00 -3.23658E+00 -1.36063E+01 -5.86887E+00 -1.01522E+01
  -8.60937E+00 -1.69855E+00  5.92713E+00  3.22844E+00  9.08989E-01  1.18803E+01  2.23121E+00  1.90086E+00 -6.71310E+00 -2.16595E+01
  -1.66148E+01 -1.87136E+01 -3.37233E+01 -3.89117E+01 -3.57608E+01 -4.63465E+01 -3.97866E+01 -3.48448E+01 -3.65485E+01 -2.91491E+01
  -2.59225E+01 -1.77220E+01 -1.57278E+01 -1.87098E+01 -2.87961E+01 -2.12286E+01 -1.25260E+01 -2.50630E+01 -2.46752E+01 -1.63982E+01
   5.85356E+00  6.00598E+00 -7.21629E+00 -5.48653E+00 -5.03932E+00  4.49840E+00 -1.05403E+01 -2.97035E+01 -3.78663E+01 -4.69717E+01
  -4.65351E+01 -4.17285E+01 -3.52563E+01 -2.89952E+01 -1.64209E+01 -1.08510E+01  1.15576E+01  1.74698E+01  3.05648E+00  1.04852E+01
  -6.14312E+00 -1.48967E+01  1.21285E+00 -2.64393E+00 -7.16343E+00  8.22563E+00  2.22145E+00 -1.68305E+00  1.38307E+01  2.51866E+00
  -3.07322E+00  4.98081E+00 -6.25152E-01 -2.47478E+00 -1.08766E+01 -3.22304E+01 -1.71295E+01 -1.59726E+01 -3.50284E+01 -4.42154E+01
  -4.89295E+01 -3.01784E+01 -3.84082E+01 -2.63363E+01 -8.13720E+00 -8.30666E+00 -6.64760E+00 -1.54527E+01 -1.69569E+01 -2.39603E+01
  -1.70249E+01 -3.09974E+01 -4.42805E+01 -4.02125E+01 -2.71516E+01 -2.24349E+01 -8.49631E+00  3.38389E+01  5.79575E+01  1.02520E+02
   1.30564E+02  1.65870E+02  1.53693E+02  1.14428E+02  1.13284E+02  8.53093E+01  9.46913E+01  8.32977E+01  6.84766E+01  6.93737E+01
   7.06196E+01  7.20494E+01  6.02616E+01  7.95114E+01  8.10922E+01  7.59177E+01  7.59163E+01  7.97950E+01  7.32967E+01  7.19750E+01
   6.88708E+01  6.93935E+01  8.58758E+01  6.59342E+01  6.34999E+01  6.39373E+01  5.99855E+01  5.66220E+01  4.89984E+01  4.11704E+01
   3.32590E+01  3.36085E+01  1.45484E+01  2.28320E+01  3.18308E+01  2.28188E+01  2.10547E+01  1.57450E+01  1.19779E+01 -2.79026E+00
  -6.00777E+00  7.49123E+00  6.17247E+00  1.69527E+01  1.38865E+01 -7.69188E+00  1.49967E+01  1.03061E+01  2.57791E+00  1.80913E+01
   1.32544E+01  7.65182E+00 -5.34202E+00 -2.41543E+00  6.88993E+00  6.77763E+00 -4.92718E+00 -8.90726E+00 -9.32634E+00  2.68719E+00
   3.85094E+00 -1.34558E+01  1.46772E+01  2.43513E+01  2.30563E+01  3.96594E+01  6.45628E+01  7.59596E+01  6.81063E+01  7.10597E+01
   6.56588E+01  6.27144E+01  4.55979E+01  4.55643E+01  4.94658E+01  3.66415E+01  5.63330E+01  7.48144E+01  6.67731E+01  5.81850E+01
   6.09498E+01  5.34486E+01  4.23812E+01  3.46400E+01  2.01223E+01  1.22188E+00 -9.69392E+00 -2.18183E+01 -4.06317E+01 -5.49875E+01
  -5.43714E+01 -5.20883E+01 -5.89867E+01 -4.42820E+01 -5.67660E+01 -6.57830E+01 -4.54429E+01 -5.14653E+01 -4.67066E+01 -3.93058E+01
  -3.02758E+01 -2.09252E+01 -2.03853E+01 -6.97990E+00 -5.51456E+00  2.72172E+00  1.74419E+01  7.91608E+00  1.29048E+01  2.62462E+01
   3.90819E+01  4.22911E+01  3.67512E+01  5.60649E+01  6.14313E+01  6.41150E+01  6.05634E+01  5.56634E+01  6.77197E+01  6.65546E+01
   7.46974E+01  7.74512E+01  8.37329E+01  1.03050E+02  1.03267E+02  1.13530E+02  1.28804E+02  1.14380E+02  1.16188E+02  1.27020E+02
   1.23576E+02  1.15235E+02  1.07285E+02  1.01027E+02  7.66669E+01  8.60541E+01  7.76935E+01  6.36959E+01  7.10121E+01  4.90007E+01
   4.93660E+01  3.21160E+01  1.13022E+01 -2.46623E+00 -6.97127E+00 -3.50190E+00 -2.15708E+01 -1.74406E+01 -1.75174E+01 -1.85384E+01
  -9.62626E+00 -1.26596E+01 -1.71573E+01 -1.46293E+01 -1.73439E+01 -9.73409E+00 -8.15636E+00 -1.53230E+01 -1.49449E+01 -1.91973E+01
  -6.33945E+00 -5.66610E+00 -4.52120E+00 -5.70152E+00 -6.38604E+00 -8.50318E+00 -1.92579E+01 -1.23338E+01 -1.59067E+01 -1.15451E+01
  -1.93815E+01 -2.22993E+01 -8.47282E+00 -5.62866E+00 -7.86683E+00 -4.56416E+00 -5.26000E+00 -1.85096E+01 -1.50391E+01 -1.96710E+01
  -1.51423E+01 -1.15344E+01 -6.82173E+00 -1.07955E+01 -2.16518E+01 -1.09028E+01 -8.74435E+00  3.54638E+00 -1.00588E+01 -1.36489E+01
  -4.45859E+00 -7.35355E-01  3.36278E+00 -1.18616E+01 -4.49302E+00 -1.20289E+01 -1.79432E+01 -5.48254E+00  1.45729E+00 -6.09550E+00
  -1.01887E+01 -5.47046E+00 -1.16171E+01  3.98561E+00  7.72935E+00 -1.30293E+00 -4.62300E+00 -3.88589E+00  5.98983E+00 -3.44889E+00
  -5.56638E+00  1.79949E+00  1.62668E+00  6.18735E+00 -7.04902E+00 -1.17652E+01 -7.76501E+00 -1.39038E+00  2.39069E+00 -1.58825E+01
 NY points of the fit to the data follow
  -3.98505E+01 -3.55313E+01 -3.05794E+01 -2.54708E+01 -2.05143E+01 -1.56510E+01 -1.09775E+01 -7.18957E+00 -4.75049E+00 -4.22172E+00
  -5.68452E+00 -8.62514E+00 -1.28165E+01 -1.75545E+01 -2.23887E+01 -2.75286E+01 -3.31505E+01 -3.90046E+01 -4.49590E+01 -4.99823E+01
  -5.21436E+01 -5.01033E+01 -4.31241E+01 -3.17009E+01 -1.78052E+01 -3.93224E+00  7.92606E+00  1.63213E+01  2.07885E+01  2.31294E+01
   2.35590E+01  2.32080E+01  2.24818E+01  2.12258E+01  1.92264E+01  1.62617E+01  1.22170E+01  7.16485E+00  9.85703E-01 -6.16495E+00
  -1.30934E+01 -1.81457E+01 -1.98679E+01 -1.74878E+01 -1.11415E+01 -1.97368E+00  8.26939E+00  1.78119E+01  2.48341E+01  2.91889E+01
   3.08814E+01  3.01955E+01  2.75175E+01  2.35312E+01  1.86568E+01  1.33488E+01  8.68418E+00  5.07582E+00  2.36287E+00  9.96467E-01
   1.21785E+00  2.70538E+00  5.59971E+00  9.86646E+00  1.47159E+01  1.95833E+01  2.35433E+01  2.48933E+01  2.31834E+01  1.89521E+01
   1.34106E+01  8.70500E+00  6.38677E+00  7.30538E+00  1.14330E+01  1.79484E+01  2.55103E+01  3.22280E+01  3.69789E+01  3.95274E+01
   3.92474E+01  3.58230E+01  2.99230E+01  2.28265E+01  1.60454E+01  1.12324E+01  9.70430E+00  1.18788E+01  1.71483E+01  2.41810E+01
   3.18897E+01  3.87431E+01  4.47447E+01  4.95747E+01  5.35936E+01  5.70913E+01  6.02403E+01  6.30525E+01  6.52271E+01  6.66069E+01
   6.70524E+01  6.58782E+01  6.26688E+01  5.68508E+01  4.74186E+01  3.47688E+01  1.95706E+01  7.30378E-01 -2.17330E+01 -4.46184E+01
  -6.41037E+01 -7.68572E+01 -8.04515E+01 -7.62205E+01 -6.59121E+01 -5.21338E+01 -3.89834E+01 -2.86479E+01 -1.99970E+01 -1.22991E+01
  -5.05582E+00  2.11409E+00  9.52044E+00  1.74569E+01  2.61698E+01  3.60230E+01  4.72395E+01  5.87618E+01  6.88150E+01  7.66219E+01
   7.96662E+01  7.32813E+01  5.59958E+01  3.05303E+01  2.01246E+00 -2.37856E+01 -4.27431E+01 -5.36840E+01 -5.69784E+01 -5.45577E+01
  -5.23197E+01 -5.10358E+01 -5.03134E+01 -4.99217E+01 -4.96008E+01 -4.90635E+01 -4.81083E+01 -4.66648E+01 -4.47353E+01 -4.24567E+01
  -4.00393E+01 -3.76002E+01 -3.52736E+01 -3.30762E+01 -3.09733E+01 -2.89539E+01 -2.70315E+01 -2.52776E+01 -2.37302E+01 -2.23752E+01
  -2.11434E+01 -1.99537E+01 -1.87964E+01 -1.76875E+01 -1.65709E+01 -1.53445E+01 -1.39602E+01 -1.24772E+01 -1.10149E+01 -9.48528E+00
  -7.59173E+00 -5.28924E+00 -3.04388E+00 -1.52867E+00 -1.08435E+00 -1.78361E+00 -3.34655E+00 -5.53324E+00 -8.13810E+00 -1.08248E+01
  -1.35212E+01 -1.63633E+01 -1.93369E+01 -2.20283E+01 -2.40710E+01 -2.52511E+01 -2.55371E+01 -2.51096E+01 -2.40391E+01 -2.22154E+01
  -1.96375E+01 -1.67058E+01 -1.36780E+01 -1.06439E+01 -7.89306E+00 -5.71877E+00 -4.25256E+00 -3.47046E+00 -3.08248E+00 -2.77135E+00
  -2.86248E+00 -3.22742E+00 -3.58088E+00 -4.37148E+00 -5.79709E+00 -7.97118E+00 -1.09459E+01 -1.45068E+01 -1.84742E+01 -2.23901E+01
  -2.55706E+01 -2.72106E+01 -2.66616E+01 -2.35107E+01 -1.72625E+01 -8.45229E+00  1.57432E+00  1.13885E+01  1.93624E+01  2.42785E+01
   2.58960E+01  2.51386E+01  2.28434E+01  2.04216E+01  1.84240E+01  1.62442E+01  1.37745E+01  1.00058E+01  4.41752E+00 -2.96352E+00
  -1.19418E+01 -2.17749E+01 -3.16082E+01 -4.07260E+01 -4.82188E+01 -5.32890E+01 -5.57074E+01 -5.53689E+01 -5.25573E+01 -4.80729E+01
  -4.27888E+01 -3.73107E+01 -3.23455E+01 -2.82953E+01 -2.50628E+01 -2.31694E+01 -2.26574E+01 -2.37277E+01 -2.67078E+01 -3.07584E+01
  -3.49923E+01 -3.91143E+01 -4.08462E+01 -3.68212E+01 -2.62858E+01 -1.05300E+01  9.29455E+00  3.15838E+01  5.38053E+01  7.31057E+01
   8.70750E+01  9.45379E+01  9.77807E+01  9.68459E+01  9.19848E+01  8.62119E+01  8.08827E+01  7.60195E+01  7.15846E+01  6.76480E+01
   6.43523E+01  6.18798E+01  6.03465E+01  5.96956E+01  5.97386E+01  6.02084E+01  6.08271E+01  6.13373E+01  6.16162E+01  6.15011E+01
   6.09394E+01  5.99574E+01  5.85687E+01  5.68562E+01  5.48624E+01  5.26615E+01  5.02959E+01  4.77626E+01  4.50427E+01  4.20868E+01
   3.89130E+01  3.55855E+01  3.22116E+01  2.89722E+01  2.61253E+01  2.39134E+01  2.25674E+01  2.21856E+01  2.27113E+01  2.40228E+01
   2.59158E+01  2.81774E+01  3.06204E+01  3.31283E+01  3.56276E+01  3.80947E+01  4.05264E+01  4.29421E+01  4.53570E+01  4.77759E+01
   5.01451E+01  5.24012E+01  5.44936E+01  5.63692E+01  5.79559E+01  5.92068E+01  6.00884E+01  6.05176E+01  6.04333E+01  5.98166E+01
   5.86801E+01  5.70607E+01  5.49677E+01  5.23755E+01  4.92642E+01  4.55696E+01  4.11745E+01  3.60592E+01  3.03968E+01  2.45272E+01
   1.89467E+01  1.42712E+01  1.10972E+01  9.98135E+00  1.12857E+01  1.51865E+01  2.16826E+01  3.02679E+01  3.97184E+01  4.87663E+01
   5.53854E+01  5.61178E+01  4.86215E+01  3.22719E+01  8.44649E+00 -1.80938E+01 -4.13689E+01 -5.68962E+01 -6.27579E+01 -5.95817E+01
  -5.15137E+01 -4.24902E+01 -3.43982E+01 -2.98236E+01 -2.75032E+01 -2.63842E+01 -2.56742E+01 -2.47729E+01 -2.33162E+01 -2.11099E+01
  -1.81410E+01 -1.45355E+01 -1.04720E+01 -6.13212E+00 -1.68800E+00  2.72207E+00  7.00940E+00  1.11421E+01  1.51349E+01  1.90244E+01
   2.28520E+01  2.66943E+01  3.05881E+01  3.46185E+01  3.88744E+01  4.34183E+01  4.83201E+01  5.36484E+01  5.94426E+01  6.56844E+01
   7.23315E+01  7.93081E+01  8.64433E+01  9.34775E+01  9.99554E+01  1.05327E+02  1.08988E+02  1.10383E+02  1.09121E+02  1.05213E+02
   9.91038E+01  9.15069E+01  8.32078E+01  7.48962E+01  6.69606E+01  5.94604E+01  5.21705E+01  4.48599E+01  3.73727E+01  2.97870E+01
   2.23548E+01  1.54057E+01  9.26813E+00  4.13933E+00  6.09972E-02 -3.06063E+00 -5.36017E+00 -7.04421E+00 -8.29811E+00 -9.25122E+00
  -9.96249E+00 -1.04864E+01 -1.08362E+01 -1.10502E+01 -1.11326E+01 -1.11092E+01 -1.10161E+01 -1.09080E+01 -1.07961E+01 -1.06576E+01
  -1.04914E+01 -1.03113E+01 -1.01414E+01 -9.96980E+00 -9.79271E+00 -9.61901E+00 -9.46697E+00 -9.30344E+00 -9.08745E+00 -8.85080E+00
  -8.61905E+00 -8.41540E+00 -8.25067E+00 -8.13184E+00 -8.03006E+00 -7.91563E+00 -7.75773E+00 -7.53943E+00 -7.28546E+00 -7.02632E+00
  -6.78714E+00 -6.57747E+00 -6.41988E+00 -6.29767E+00 -6.22082E+00 -6.16518E+00 -6.09760E+00 -6.01063E+00 -5.88948E+00 -5.73711E+00
  -5.57263E+00 -5.41999E+00 -5.26545E+00 -5.11285E+00 -4.93924E+00 -4.72922E+00 -4.50913E+00 -4.28843E+00 -4.07449E+00 -3.89178E+00
  -3.74864E+00 -3.64552E+00 -3.57438E+00 -3.52571E+00 -3.46230E+00 -3.37026E+00 -3.20923E+00 -2.97962E+00 -2.68924E+00 -2.41206E+00
  -2.19952E+00 -2.08070E+00 -2.03593E+00 -2.02461E+00 -2.01198E+00 -1.96061E+00 -1.84868E+00 -1.70566E+00 -1.54491E+00 -1.35902E+00
 NY background values follow
    -4.366E+00   -4.299E+00   -4.232E+00   -4.164E+00   -4.096E+00   -4.027E+00   -3.957E+00   -3.887E+00   -3.815E+00   -3.743E+00
    -3.669E+00   -3.594E+00   -3.518E+00   -3.440E+00   -3.361E+00   -3.279E+00   -3.196E+00   -3.111E+00   -3.024E+00   -2.935E+00
    -2.843E+00   -2.749E+00   -2.652E+00   -2.553E+00   -2.451E+00   -2.346E+00   -2.238E+00   -2.127E+00   -2.012E+00   -1.894E+00
    -1.773E+00   -1.648E+00   -1.520E+00   -1.388E+00   -1.253E+00   -1.114E+00   -9.729E-01   -8.283E-01   -6.808E-01   -5.304E-01
    -3.772E-01   -2.212E-01   -6.270E-02    9.838E-02    2.619E-01    4.278E-01    5.959E-01    7.662E-01    9.386E-01    1.113E+00
     1.289E+00    1.468E+00    1.647E+00    1.829E+00    2.012E+00    2.197E+00    2.383E+00    2.570E+00    2.758E+00    2.948E+00
     3.138E+00    3.330E+00    3.522E+00    3.716E+00    3.909E+00    4.104E+00    4.299E+00    4.494E+00    4.690E+00    4.885E+00
     5.081E+00    5.277E+00    5.473E+00    5.668E+00    5.864E+00    6.059E+00    6.253E+00    6.447E+00    6.640E+00    6.833E+00
     7.025E+00    7.215E+00    7.405E+00    7.594E+00    7.781E+00    7.968E+00    8.152E+00    8.336E+00    8.517E+00    8.697E+00
     8.876E+00    9.052E+00    9.227E+00    9.399E+00    9.570E+00    9.738E+00    9.905E+00    1.007E+01    1.023E+01    1.039E+01
     1.055E+01    1.070E+01    1.085E+01    1.100E+01    1.115E+01    1.130E+01    1.144E+01    1.158E+01    1.171E+01    1.185E+01
     1.198E+01    1.211E+01    1.223E+01    1.235E+01    1.247E+01    1.259E+01    1.270E+01    1.281E+01    1.291E+01    1.301E+01
     1.311E+01    1.321E+01    1.330E+01    1.339E+01    1.347E+01    1.355E+01    1.363E+01    1.370E+01    1.377E+01    1.384E+01
     1.390E+01    1.396E+01    1.401E+01    1.406E+01    1.410E+01    1.415E+01    1.418E+01    1.422E+01    1.425E+01    1.427E+01
     1.429E+01    1.431E+01    1.432E+01    1.433E+01    1.433E+01    1.433E+01    1.433E+01    1.432E+01    1.430E+01    1.428E+01
     1.426E+01    1.423E+01    1.420E+01    1.416E+01    1.412E+01    1.407E+01    1.403E+01    1.397E+01    1.392E+01    1.386E+01
     1.379E+01    1.373E+01    1.366E+01    1.359E+01    1.351E+01    1.344E+01    1.336E+01    1.328E+01    1.319E+01    1.311E+01
     1.302E+01    1.293E+01    1.284E+01    1.275E+01    1.266E+01    1.257E+01    1.247E+01    1.238E+01    1.228E+01    1.219E+01
     1.209E+01    1.199E+01    1.190E+01    1.180E+01    1.171E+01    1.161E+01    1.152E+01    1.142E+01    1.133E+01    1.124E+01
     1.114E+01    1.105E+01    1.096E+01    1.087E+01    1.078E+01    1.069E+01    1.060E+01    1.052E+01    1.043E+01    1.035E+01
     1.027E+01    1.018E+01    1.011E+01    1.003E+01    9.952E+00    9.878E+00    9.806E+00    9.736E+00    9.668E+00    9.602E+00
     9.538E+00    9.476E+00    9.416E+00    9.358E+00    9.300E+00    9.244E+00    9.188E+00    9.132E+00    9.075E+00    9.019E+00
     8.961E+00    8.902E+00    8.842E+00    8.780E+00    8.716E+00    8.649E+00    8.580E+00    8.507E+00    8.432E+00    8.352E+00
     8.268E+00    8.180E+00    8.087E+00    7.989E+00    7.885E+00    7.776E+00    7.661E+00    7.540E+00    7.411E+00    7.276E+00
     7.134E+00    6.983E+00    6.826E+00    6.661E+00    6.489E+00    6.309E+00    6.122E+00    5.928E+00    5.727E+00    5.519E+00
     5.304E+00    5.081E+00    4.852E+00    4.616E+00    4.373E+00    4.123E+00    3.866E+00    3.603E+00    3.333E+00    3.056E+00
     2.773E+00    2.483E+00    2.186E+00    1.883E+00    1.574E+00    1.259E+00    9.366E-01    6.084E-01    2.740E-01   -6.659E-02
    -4.133E-01   -7.657E-01   -1.123E+00   -1.484E+00   -1.849E+00   -2.217E+00   -2.586E+00   -2.957E+00   -3.327E+00   -3.698E+00
    -4.067E+00   -4.435E+00   -4.799E+00   -5.161E+00   -5.518E+00   -5.870E+00   -6.217E+00   -6.557E+00   -6.890E+00   -7.215E+00
    -7.531E+00   -7.837E+00   -8.134E+00   -8.419E+00   -8.693E+00   -8.954E+00   -9.202E+00   -9.436E+00   -9.655E+00   -9.859E+00
    -1.005E+01   -1.022E+01   -1.037E+01   -1.051E+01   -1.063E+01   -1.074E+01   -1.083E+01   -1.091E+01   -1.097E+01   -1.102E+01
    -1.105E+01   -1.107E+01   -1.107E+01   -1.106E+01   -1.104E+01   -1.100E+01   -1.095E+01   -1.089E+01   -1.082E+01   -1.073E+01
    -1.063E+01   -1.052E+01   -1.039E+01   -1.026E+01   -1.011E+01   -9.955E+00   -9.787E+00   -9.607E+00   -9.417E+00   -9.217E+00
    -9.007E+00   -8.787E+00   -8.558E+00   -8.320E+00   -8.073E+00   -7.819E+00   -7.556E+00   -7.286E+00   -7.009E+00   -6.726E+00
    -6.436E+00   -6.141E+00   -5.840E+00   -5.534E+00   -5.223E+00   -4.908E+00   -4.590E+00   -4.267E+00   -3.942E+00   -3.614E+00
    -3.284E+00   -2.952E+00   -2.618E+00   -2.283E+00   -1.947E+00   -1.611E+00   -1.275E+00   -9.396E-01   -6.049E-01   -2.713E-01
     6.085E-02    3.910E-01    7.190E-01    1.045E+00    1.368E+00    1.688E+00    2.004E+00    2.318E+00    2.627E+00    2.933E+00
     3.234E+00    3.531E+00    3.823E+00    4.110E+00    4.392E+00    4.668E+00    4.938E+00    5.202E+00    5.460E+00    5.711E+00
     5.955E+00    6.192E+00    6.422E+00    6.644E+00    6.858E+00    7.064E+00    7.261E+00    7.450E+00    7.629E+00    7.799E+00
     7.960E+00    8.111E+00    8.253E+00    8.386E+00    8.510E+00    8.626E+00    8.733E+00    8.831E+00    8.922E+00    9.004E+00
     9.079E+00    9.146E+00    9.206E+00    9.258E+00    9.304E+00    9.342E+00    9.374E+00    9.400E+00    9.419E+00    9.432E+00
     9.440E+00    9.441E+00    9.438E+00    9.428E+00    9.414E+00    9.395E+00    9.371E+00    9.342E+00    9.309E+00    9.272E+00
     9.230E+00    9.185E+00    9.136E+00    9.084E+00    9.027E+00    8.968E+00    8.905E+00    8.839E+00    8.770E+00    8.699E+00
     8.624E+00    8.547E+00    8.467E+00    8.385E+00    8.300E+00    8.214E+00    8.125E+00    8.034E+00    7.942E+00    7.848E+00
     7.753E+00    7.656E+00    7.558E+00    7.458E+00    7.358E+00    7.257E+00    7.155E+00    7.052E+00    6.949E+00    6.845E+00
     6.741E+00    6.637E+00    6.532E+00    6.428E+00    6.323E+00    6.217E+00    6.112E+00    6.006E+00    5.900E+00    5.794E+00
     5.687E+00    5.580E+00    5.473E+00    5.366E+00    5.259E+00    5.151E+00    5.043E+00    4.935E+00    4.826E+00    4.718E+00
     4.609E+00    4.500E+00    4.391E+00    4.281E+00    4.172E+00    4.062E+00    3.952E+00    3.841E+00    3.731E+00    3.620E+00
 Mac      Conc. = 2.79E-04
  -2.35851E+01 -2.40243E+01 -2.44649E+01 -2.49341E+01 -2.54817E+01 -2.61607E+01 -2.70152E+01 -2.80609E+01 -2.92169E+01 -3.03647E+01
  -3.13942E+01 -3.22559E+01 -3.29396E+01 -3.34765E+01 -3.39216E+01 -3.42783E+01 -3.43594E+01 -3.38448E+01 -3.25318E+01 -3.04038E+01
  -2.76077E+01 -2.44300E+01 -2.12408E+01 -1.83533E+01 -1.59373E+01 -1.39551E+01 -1.21940E+01 -1.05402E+01 -8.91881E+00 -7.28785E+00
  -5.70108E+00 -4.25645E+00 -3.03798E+00 -2.06116E+00 -1.30232E+00 -6.65348E-01  1.88735E-02  8.99736E-01  2.00458E+00  3.24380E+00
   4.48256E+00  5.60170E+00  6.56209E+00  7.39400E+00  8.14786E+00  8.84102E+00  9.43185E+00  9.81421E+00  9.86144E+00  9.54661E+00
   8.94564E+00  8.18248E+00  7.42808E+00  6.80657E+00  6.39908E+00  6.26039E+00  6.45133E+00  6.98118E+00  7.79020E+00  8.81923E+00
   9.95904E+00  1.10705E+01  1.20156E+01  1.26619E+01  1.29478E+01  1.29312E+01  1.27478E+01  1.25226E+01  1.24102E+01  1.25890E+01
   1.31760E+01  1.42047E+01  1.55822E+01  1.71115E+01  1.85717E+01  1.97621E+01  2.05415E+01  2.08528E+01  2.07956E+01  2.05561E+01
   2.02733E+01  2.00507E+01  1.99968E+01  2.01515E+01  2.05382E+01  2.11169E+01  2.18386E+01  2.26446E+01  2.34655E+01  2.42404E+01
   2.49077E+01  2.54281E+01  2.57652E+01  2.58422E+01  2.55792E+01  2.49202E+01  2.38401E+01  2.23587E+01  2.05753E+01  1.86056E+01
   1.65206E+01  1.43028E+01  1.18680E+01  9.06418E+00  5.77788E+00  1.95223E+00 -2.29973E+00 -6.63654E+00 -1.05371E+01 -1.35193E+01
