 
 $NMID
 ID=''
 FMTDAT='(2E13.5)'
 TRAMP=   1.00000E+0
 VOLUME=   1.00000E+0
 $END
  -1.71501E+5   7.17362E+5
  -1.08726E+6   1.57855E+6
  -9.14208E+5   1.61701E+6
  -1.00966E+6   1.47840E+6
  -1.09972E+6   1.53852E+6
  -1.02716E+6   1.48635E+6
  -1.08187E+6   1.35427E+6
  -1.17429E+6   1.37881E+6
  -1.13455E+6   1.38529E+6
  -1.13928E+6   1.31002E+6
  -1.17804E+6   1.27781E+6
  -1.17898E+6   1.24162E+6
  -1.20385E+6   1.20247E+6
  -1.20968E+6   1.19823E+6
  -1.18998E+6   1.15354E+6
  -1.21163E+6   1.10167E+6
  -1.23639E+6   1.09294E+6
  -1.23253E+6   1.05347E+6
  -1.24988E+6   9.97456E+5
  -1.26287E+6   9.69358E+5
  -1.26428E+6   9.24523E+5
  -1.28127E+6   8.80423E+5
  -1.28627E+6   8.56666E+5
  -1.28119E+6   8.15801E+5
  -1.29091E+6   7.69983E+5
  -1.28922E+6   7.48958E+5
  -1.28356E+6   7.18541E+5
  -1.28662E+6   6.88507E+5
  -1.28117E+6   6.62539E+5
  -1.27308E+6   6.29767E+5
  -1.27867E+6   5.94307E+5
  -1.27491E+6   5.66011E+5
  -1.26989E+6   5.29390E+5
  -1.26959E+6   4.94009E+5
  -1.26221E+6   4.62522E+5
  -1.25610E+6   4.27423E+5
  -1.25841E+6   3.93253E+5
  -1.25238E+6   3.60078E+5
  -1.24019E+6   3.27538E+5
  -1.23482E+6   3.00310E+5
  -1.22594E+6   2.73201E+5
  -1.21377E+6   2.44167E+5
  -1.20271E+6   2.21413E+5
  -1.19356E+6   1.99485E+5
  -1.18273E+6   1.72702E+5
  -1.17189E+6   1.48927E+5
  -1.16064E+6   1.23641E+5
  -1.15102E+6   9.29463E+4
  -1.13805E+6   6.39602E+4
  -1.12361E+6   3.85432E+4
  -1.11156E+6   1.20076E+4
  -1.10074E+6  -1.64481E+4
  -1.08691E+6  -4.30242E+4
  -1.07370E+6  -6.79003E+4
  -1.05988E+6  -9.24596E+4
  -1.04543E+6  -1.17840E+5
  -1.03013E+6  -1.41146E+5
  -1.01408E+6  -1.61131E+5
  -9.98879E+5  -1.80788E+5
  -9.84097E+5  -2.02200E+5
  -9.68488E+5  -2.23095E+5
  -9.52677E+5  -2.42046E+5
  -9.38073E+5  -2.62474E+5
  -9.21261E+5  -2.84141E+5
  -9.02114E+5  -3.04241E+5
  -8.84220E+5  -3.21895E+5
  -8.67622E+5  -3.40594E+5
  -8.49222E+5  -3.58791E+5
  -8.31306E+5  -3.75585E+5
  -8.15358E+5  -3.92508E+5
  -7.97626E+5  -4.09662E+5
  -7.77954E+5  -4.23712E+5
  -7.60642E+5  -4.36393E+5
  -7.44542E+5  -4.50679E+5
  -7.26217E+5  -4.65568E+5
  -7.07129E+5  -4.78000E+5
  -6.88827E+5  -4.89700E+5
  -6.70869E+5  -5.02942E+5
  -6.51805E+5  -5.16016E+5
  -6.31867E+5  -5.27528E+5
  -6.12589E+5  -5.38167E+5
  -5.93637E+5  -5.48844E+5
  -5.74524E+5  -5.58667E+5
  -5.54829E+5  -5.67478E+5
  -5.35846E+5  -5.75703E+5
  -5.17195E+5  -5.83471E+5
  -4.99104E+5  -5.89858E+5
  -4.81043E+5  -5.95725E+5
  -4.63262E+5  -6.01199E+5
  -4.45244E+5  -6.06148E+5
  -4.28082E+5  -6.10237E+5
  -4.10504E+5  -6.14923E+5
  -3.92502E+5  -6.19673E+5
  -3.74076E+5  -6.23611E+5
  -3.55846E+5  -6.26574E+5
  -3.37826E+5  -6.28745E+5
  -3.20763E+5  -6.31570E+5
  -3.03169E+5  -6.34397E+5
  -2.85286E+5  -6.36235E+5
  -2.68652E+5  -6.36978E+5
  -2.52551E+5  -6.37837E+5
  -2.35791E+5  -6.39061E+5
  -2.18681E+5  -6.38650E+5
  -2.03156E+5  -6.37287E+5
  -1.88042E+5  -6.35645E+5
  -1.73677E+5  -6.35216E+5
  -1.58515E+5  -6.34156E+5
  -1.43250E+5  -6.32320E+5
  -1.28428E+5  -6.29563E+5
  -1.14414E+5  -6.26383E+5
  -1.00650E+5  -6.23918E+5
  -8.62523E+4  -6.21676E+5
  -7.17005E+4  -6.19017E+5
  -5.73716E+4  -6.15583E+5
  -4.34073E+4  -6.11344E+5
  -2.96379E+4  -6.07565E+5
  -1.61229E+4  -6.03483E+5
  -2.97166E+3  -5.98402E+5
   9.28554E+3  -5.92861E+5
   2.07192E+4  -5.87717E+5
   3.21518E+4  -5.83167E+5
   4.39573E+4  -5.78140E+5
   5.53810E+4  -5.72212E+5
   6.67572E+4  -5.66451E+5
   7.80568E+4  -5.60623E+5
   8.87953E+4  -5.53966E+5
   9.93824E+4  -5.46796E+5
   1.09584E+5  -5.40080E+5
   1.19723E+5  -5.33360E+5
   1.30057E+5  -5.26164E+5
   1.40461E+5  -5.18780E+5
   1.50443E+5  -5.10838E+5
   1.59877E+5  -5.02585E+5
   1.68721E+5  -4.94510E+5
   1.77591E+5  -4.86821E+5
   1.86184E+5  -4.78237E+5
   1.94292E+5  -4.70108E+5
   2.02405E+5  -4.61712E+5
   2.10456E+5  -4.53203E+5
   2.18682E+5  -4.44575E+5
   2.25858E+5  -4.35406E+5
   2.32365E+5  -4.25988E+5
   2.38160E+5  -4.16968E+5
   2.44691E+5  -4.08226E+5
   2.51398E+5  -3.99258E+5
   2.57404E+5  -3.89976E+5
   2.62855E+5  -3.80527E+5
   2.67946E+5  -3.70862E+5
   2.73110E+5  -3.61334E+5
   2.77350E+5  -3.52045E+5
   2.81545E+5  -3.42498E+5
   2.85226E+5  -3.33287E+5
   2.89138E+5  -3.24612E+5
   2.92562E+5  -3.15920E+5
   2.96115E+5  -3.06286E+5
   2.99055E+5  -2.96984E+5
   3.01754E+5  -2.88518E+5
   3.04685E+5  -2.79561E+5
   3.06735E+5  -2.70400E+5
   3.08800E+5  -2.61549E+5
   3.10892E+5  -2.52728E+5
   3.12463E+5  -2.43858E+5
   3.13949E+5  -2.34808E+5
   3.15244E+5  -2.26112E+5
   3.16238E+5  -2.17573E+5
   3.16465E+5  -2.09267E+5
   3.17241E+5  -2.01309E+5
   3.18198E+5  -1.92870E+5
   3.18463E+5  -1.84655E+5
   3.18357E+5  -1.76768E+5
   3.18084E+5  -1.69000E+5
   3.17864E+5  -1.61202E+5
   3.17487E+5  -1.53347E+5
   3.16819E+5  -1.45891E+5
   3.15877E+5  -1.38266E+5
   3.15232E+5  -1.30992E+5
   3.14277E+5  -1.23379E+5
   3.13177E+5  -1.15576E+5
   3.11610E+5  -1.07986E+5
   3.10014E+5  -1.00846E+5
   3.08721E+5  -9.37976E+4
   3.07341E+5  -8.69776E+4
   3.05387E+5  -7.96034E+4
   3.03456E+5  -7.25580E+4
   3.01117E+5  -6.59662E+4
   2.99045E+5  -5.94270E+4
   2.96592E+5  -5.30342E+4
   2.93905E+5  -4.64635E+4
   2.91305E+5  -4.05390E+4
   2.88875E+5  -3.46689E+4
   2.86735E+5  -2.86076E+4
   2.83794E+5  -2.22885E+4
   2.80789E+5  -1.57134E+4
   2.77607E+5  -9.71359E+3
   2.74092E+5  -3.92717E+3
   2.71199E+5   1.55501E+3
   2.67849E+5   7.51355E+3
   2.64595E+5   1.29992E+4
   2.61042E+5   1.84513E+4
   2.57469E+5   2.41544E+4
   2.53836E+5   2.97165E+4
   2.50014E+5   3.48552E+4
   2.45643E+5   3.98838E+4
   2.41904E+5   4.44769E+4
   2.38037E+5   4.91268E+4
   2.34035E+5   5.39713E+4
   2.29840E+5   5.87984E+4
   2.25708E+5   6.29678E+4
   2.21470E+5   6.73027E+4
   2.16866E+5   7.15437E+4
   2.12684E+5   7.59802E+4
   2.08258E+5   7.97013E+4
   2.03962E+5   8.33989E+4
   1.99337E+5   8.69953E+4
   1.95087E+5   9.04804E+4
   1.90308E+5   9.44330E+4
   1.85620E+5   9.71740E+4
   1.81047E+5   1.00054E+5
   1.76338E+5   1.02799E+5
   1.71999E+5   1.05625E+5
   1.67154E+5   1.08192E+5
   1.62904E+5   1.10708E+5
   1.58382E+5   1.12892E+5
   1.53912E+5   1.15447E+5
   1.49289E+5   1.17713E+5
   1.44567E+5   1.19188E+5
   1.40377E+5   1.20752E+5
   1.35764E+5   1.22744E+5
   1.31394E+5   1.24103E+5
   1.26882E+5   1.25767E+5
   1.22222E+5   1.27038E+5
   1.18079E+5   1.28127E+5
   1.13730E+5   1.29025E+5
   1.09588E+5   1.29904E+5
   1.05564E+5   1.30780E+5
   1.01293E+5   1.31373E+5
   9.74600E+4   1.31945E+5
   9.34911E+4   1.32644E+5
   8.93278E+4   1.32866E+5
   8.53241E+4   1.33075E+5
   8.15295E+4   1.33213E+5
   7.79553E+4   1.33165E+5
   7.39742E+4   1.33319E+5
   6.98531E+4   1.33196E+5
   6.62602E+4   1.32940E+5
   6.31063E+4   1.32517E+5
   5.94056E+4   1.32387E+5
   5.60837E+4   1.31903E+5
   5.21574E+4   1.31326E+5
   4.93267E+4   1.30671E+5
   4.57828E+4   1.30198E+5
   4.23967E+4   1.29480E+5
   3.90672E+4   1.28889E+5
   3.60136E+4   1.27911E+5
   3.26844E+4   1.26937E+5
   2.99213E+4   1.25897E+5
   2.66814E+4   1.24818E+5
   2.36431E+4   1.24160E+5
   2.06365E+4   1.23122E+5
   1.76144E+4   1.21970E+5
   1.48425E+4   1.20925E+5
   1.18841E+4   1.19356E+5
   9.02637E+3   1.17927E+5
   6.33273E+3   1.16636E+5
   3.92598E+3   1.15268E+5
   1.15857E+3   1.13820E+5
  -1.58947E+3   1.12462E+5
  -3.92014E+3   1.10757E+5
  -6.21514E+3   1.09241E+5
  -8.51024E+3   1.07697E+5
  -1.08061E+4   1.05891E+5
  -1.29864E+4   1.04242E+5
  -1.52471E+4   1.02830E+5
  -1.72629E+4   1.01039E+5
  -1.96280E+4   9.93951E+4
  -2.15379E+4   9.76854E+4
  -2.38350E+4   9.58323E+4
  -2.56566E+4   9.38918E+4
  -2.72803E+4   9.21652E+4
  -2.90718E+4   9.02196E+4
  -3.08457E+4   8.83659E+4
  -3.26680E+4   8.65156E+4
  -3.40368E+4   8.48201E+4
  -3.54983E+4   8.30444E+4
  -3.69968E+4   8.08938E+4
  -3.85632E+4   7.90077E+4
  -3.94700E+4   7.71514E+4
  -4.09139E+4   7.50126E+4
  -4.20776E+4   7.32552E+4
  -4.32097E+4   7.16554E+4
  -4.43655E+4   6.95576E+4
  -4.55180E+4   6.76735E+4
  -4.64953E+4   6.58710E+4
  -4.70644E+4   6.39831E+4
  -4.79724E+4   6.20631E+4
  -4.88313E+4   6.01201E+4
  -4.96918E+4   5.82505E+4
  -5.03117E+4   5.66713E+4
  -5.08736E+4   5.48951E+4
  -5.15275E+4   5.29165E+4
  -5.19722E+4   5.08857E+4
  -5.24579E+4   4.93391E+4
  -5.30174E+4   4.74917E+4
  -5.34469E+4   4.58798E+4
  -5.37260E+4   4.40190E+4
  -5.40400E+4   4.21251E+4
  -5.42330E+4   4.06033E+4
  -5.43514E+4   3.89639E+4
  -5.49435E+4   3.73120E+4
  -5.47283E+4   3.56772E+4
  -5.49921E+4   3.40478E+4
  -5.49680E+4   3.25020E+4
  -5.50076E+4   3.08544E+4
  -5.49368E+4   2.94495E+4
  -5.48815E+4   2.76622E+4
  -5.46494E+4   2.59844E+4
  -5.43964E+4   2.44968E+4
  -5.43535E+4   2.30893E+4
  -5.39229E+4   2.17464E+4
  -5.37671E+4   2.03198E+4
  -5.35668E+4   1.88637E+4
  -5.32889E+4   1.75160E+4
  -5.28094E+4   1.60363E+4
  -5.26685E+4   1.47407E+4
  -5.20442E+4   1.32829E+4
  -5.15412E+4   1.23767E+4
  -5.10103E+4   1.08091E+4
  -5.06663E+4   9.52813E+3
  -4.99602E+4   8.38147E+3
  -4.92474E+4   6.99139E+3
  -4.89022E+4   6.04709E+3
  -4.80729E+4   4.83231E+3
  -4.79734E+4   3.85932E+3
  -4.70495E+4   2.73015E+3
  -4.63276E+4   1.69027E+3
  -4.58487E+4   7.79270E+2
  -4.52270E+4  -3.06894E+2
  -4.40995E+4  -1.20373E+3
  -4.35064E+4  -2.33845E+3
  -4.26900E+4  -3.36120E+3
  -4.19324E+4  -4.11599E+3
  -4.16477E+4  -4.90602E+3
  -4.06074E+4  -5.78152E+3
  -3.95466E+4  -6.53428E+3
  -3.89024E+4  -7.29957E+3
  -3.81751E+4  -8.17313E+3
  -3.74122E+4  -8.76945E+3
  -3.65911E+4  -9.48442E+3
  -3.57799E+4  -1.02852E+4
  -3.46631E+4  -1.06757E+4
  -3.38643E+4  -1.12523E+4
  -3.34225E+4  -1.19926E+4
  -3.25246E+4  -1.26640E+4
  -3.15281E+4  -1.30562E+4
  -3.05728E+4  -1.36461E+4
  -2.99028E+4  -1.41381E+4
  -2.88021E+4  -1.44418E+4
  -2.81195E+4  -1.49256E+4
  -2.73651E+4  -1.51260E+4
  -2.66667E+4  -1.56826E+4
  -2.56218E+4  -1.61684E+4
  -2.48436E+4  -1.61818E+4
  -2.39783E+4  -1.64944E+4
  -2.31431E+4  -1.67402E+4
  -2.23902E+4  -1.68867E+4
  -2.17757E+4  -1.74318E+4
  -2.06621E+4  -1.74566E+4
