 
 $NMID
 ID=''
 FMTDAT='(2E13.5)'
 TRAMP=   1.00000E+0
 VOLUME=   1.00000E+0
 $END
   1.56353E+5   5.04849E+5
  -9.67782E+4   1.40258E+6
   3.18414E+4   1.37339E+6
  -8.98220E+4   1.30551E+6
  -1.68237E+5   1.37104E+6
  -1.67891E+5   1.33280E+6
  -2.35817E+5   1.27313E+6
  -2.88972E+5   1.29014E+6
  -3.04865E+5   1.26083E+6
  -3.68698E+5   1.22967E+6
  -4.05525E+5   1.23680E+6
  -4.16500E+5   1.20440E+6
  -4.61664E+5   1.17002E+6
  -4.90331E+5   1.16038E+6
  -5.07703E+5   1.12545E+6
  -5.46677E+5   1.09819E+6
  -5.78993E+5   1.09048E+6
  -6.06337E+5   1.05160E+6
  -6.47820E+5   1.01444E+6
  -6.76683E+5   9.92356E+5
  -7.05847E+5   9.50557E+5
  -7.42650E+5   9.14807E+5
  -7.63538E+5   8.91340E+5
  -7.85604E+5   8.55066E+5
  -8.13945E+5   8.17573E+5
  -8.24109E+5   7.91746E+5
  -8.37014E+5   7.60328E+5
  -8.58253E+5   7.31417E+5
  -8.69609E+5   7.00420E+5
  -8.79059E+5   6.67338E+5
  -8.97843E+5   6.37535E+5
  -9.10151E+5   6.05209E+5
  -9.22497E+5   5.64356E+5
  -9.34758E+5   5.27670E+5
  -9.42827E+5   4.93541E+5
  -9.54769E+5   4.55518E+5
  -9.68817E+5   4.19261E+5
  -9.73909E+5   3.82656E+5
  -9.75241E+5   3.46624E+5
  -9.80242E+5   3.14789E+5
  -9.81130E+5   2.81867E+5
  -9.80606E+5   2.49426E+5
  -9.79261E+5   2.22168E+5
  -9.78261E+5   1.94041E+5
  -9.75251E+5   1.63247E+5
  -9.72802E+5   1.35212E+5
  -9.69797E+5   1.04832E+5
  -9.65863E+5   7.03643E+4
  -9.58081E+5   3.75036E+4
  -9.50246E+5   7.17600E+3
  -9.44701E+5  -2.32361E+4
  -9.37187E+5  -5.46681E+4
  -9.27031E+5  -8.51657E+4
  -9.17525E+5  -1.13921E+5
  -9.06845E+5  -1.41967E+5
  -8.95222E+5  -1.69782E+5
  -8.82282E+5  -1.95735E+5
  -8.68815E+5  -2.18993E+5
  -8.54957E+5  -2.41316E+5
  -8.41964E+5  -2.64273E+5
  -8.27232E+5  -2.87507E+5
  -8.12097E+5  -3.09688E+5
  -7.97086E+5  -3.31543E+5
  -7.80463E+5  -3.53705E+5
  -7.61894E+5  -3.74453E+5
  -7.43244E+5  -3.93190E+5
  -7.24815E+5  -4.11262E+5
  -7.06516E+5  -4.29248E+5
  -6.88101E+5  -4.47105E+5
  -6.69322E+5  -4.64156E+5
  -6.49566E+5  -4.79434E+5
  -6.29841E+5  -4.92646E+5
  -6.11068E+5  -5.05574E+5
  -5.91954E+5  -5.19232E+5
  -5.71169E+5  -5.31471E+5
  -5.50680E+5  -5.42547E+5
  -5.30245E+5  -5.52772E+5
  -5.09904E+5  -5.63099E+5
  -4.88095E+5  -5.72828E+5
  -4.66081E+5  -5.81288E+5
  -4.44552E+5  -5.89022E+5
  -4.23223E+5  -5.95806E+5
  -4.02082E+5  -6.01793E+5
  -3.80768E+5  -6.06897E+5
  -3.59305E+5  -6.11289E+5
  -3.38618E+5  -6.14022E+5
  -3.18723E+5  -6.16764E+5
  -2.98777E+5  -6.18586E+5
  -2.79127E+5  -6.19732E+5
  -2.60079E+5  -6.19687E+5
  -2.41725E+5  -6.18915E+5
  -2.22996E+5  -6.18581E+5
  -2.03351E+5  -6.17407E+5
  -1.84160E+5  -6.15459E+5
  -1.65315E+5  -6.11735E+5
  -1.47403E+5  -6.08432E+5
  -1.29939E+5  -6.04561E+5
  -1.11729E+5  -6.01206E+5
  -9.41351E+4  -5.95785E+5
  -7.76180E+4  -5.90371E+5
  -6.21366E+4  -5.84968E+5
  -4.53400E+4  -5.79330E+5
  -2.94229E+4  -5.72065E+5
  -1.48167E+4  -5.63623E+5
  -1.33570E+3  -5.56281E+5
   1.23239E+4  -5.49239E+5
   2.61833E+4  -5.41341E+5
   4.00421E+4  -5.32619E+5
   5.29010E+4  -5.22831E+5
   6.47824E+4  -5.13208E+5
   7.60304E+4  -5.04419E+5
   8.82608E+4  -4.95416E+5
   1.00462E+5  -4.85658E+5
   1.11989E+5  -4.75387E+5
   1.22073E+5  -4.64943E+5
   1.32700E+5  -4.54581E+5
   1.42793E+5  -4.44280E+5
   1.52463E+5  -4.33185E+5
   1.60517E+5  -4.21737E+5
   1.68058E+5  -4.11399E+5
   1.75817E+5  -4.01230E+5
   1.83545E+5  -3.90287E+5
   1.90508E+5  -3.79215E+5
   1.97475E+5  -3.68388E+5
   2.03864E+5  -3.57368E+5
   2.09742E+5  -3.45787E+5
   2.14867E+5  -3.34427E+5
   2.19624E+5  -3.23321E+5
   2.24705E+5  -3.12590E+5
   2.29241E+5  -3.01121E+5
   2.33939E+5  -2.89949E+5
   2.37566E+5  -2.78196E+5
   2.40611E+5  -2.66919E+5
   2.43378E+5  -2.56118E+5
   2.45945E+5  -2.45130E+5
   2.48240E+5  -2.33893E+5
   2.49531E+5  -2.23081E+5
   2.51167E+5  -2.12854E+5
   2.52716E+5  -2.02095E+5
   2.53636E+5  -1.91062E+5
   2.53985E+5  -1.80201E+5
   2.53716E+5  -1.70133E+5
   2.53387E+5  -1.60316E+5
   2.52836E+5  -1.50653E+5
   2.52342E+5  -1.40608E+5
   2.51166E+5  -1.30406E+5
   2.49463E+5  -1.21050E+5
   2.47756E+5  -1.11750E+5
   2.45616E+5  -1.02732E+5
   2.42948E+5  -9.38860E+4
   2.40655E+5  -8.50645E+4
   2.37891E+5  -7.66683E+4
   2.34894E+5  -6.87021E+4
   2.32168E+5  -6.06831E+4
   2.28887E+5  -5.27993E+4
   2.25433E+5  -4.51726E+4
   2.21764E+5  -3.78670E+4
   2.18223E+5  -3.11214E+4
   2.14328E+5  -2.38063E+4
   2.10134E+5  -1.72074E+4
   2.06307E+5  -1.05974E+4
   2.02167E+5  -4.65579E+3
   1.97809E+5   1.85714E+3
   1.93178E+5   7.95780E+3
   1.88358E+5   1.34711E+4
   1.83882E+5   1.84728E+4
   1.79382E+5   2.41290E+4
   1.74954E+5   2.90946E+4
   1.70338E+5   3.38605E+4
   1.65521E+5   3.83895E+4
   1.60699E+5   4.25002E+4
   1.56332E+5   4.69125E+4
   1.51398E+5   5.09890E+4
   1.46668E+5   5.49241E+4
   1.41638E+5   5.81191E+4
   1.37080E+5   6.15530E+4
   1.32538E+5   6.51978E+4
   1.27623E+5   6.81792E+4
   1.22251E+5   7.10193E+4
   1.17702E+5   7.36594E+4
   1.13385E+5   7.60805E+4
   1.08594E+5   7.86494E+4
   1.03713E+5   8.09910E+4
   9.89138E+4   8.28876E+4
   9.44421E+4   8.45519E+4
   8.98949E+4   8.61831E+4
   8.51956E+4   8.75333E+4
   8.08292E+4   8.86822E+4
   7.64598E+4   8.97507E+4
   7.21596E+4   9.08615E+4
   6.80058E+4   9.21468E+4
   6.36879E+4   9.29824E+4
   5.93089E+4   9.34901E+4
   5.48697E+4   9.38668E+4
   5.09908E+4   9.45068E+4
   4.69872E+4   9.46661E+4
   4.28506E+4   9.45584E+4
   3.87466E+4   9.49735E+4
   3.50109E+4   9.46611E+4
   3.08326E+4   9.44853E+4
   2.73505E+4   9.42212E+4
   2.33589E+4   9.34447E+4
   1.98112E+4   9.28244E+4
   1.62498E+4   9.23128E+4
   1.25990E+4   9.15844E+4
   9.22390E+3   9.08414E+4
   5.99003E+3   8.96430E+4
   2.82480E+3   8.86737E+4
  -4.84277E+2   8.76745E+4
  -3.60130E+3   8.65217E+4
  -6.77087E+3   8.52605E+4
  -9.66416E+3   8.36317E+4
  -1.23304E+4   8.23697E+4
  -1.53260E+4   8.10263E+4
  -1.79921E+4   7.94666E+4
  -2.04652E+4   7.76239E+4
  -2.28317E+4   7.58631E+4
  -2.48842E+4   7.45423E+4
  -2.74088E+4   7.26247E+4
  -2.95586E+4   7.10174E+4
  -3.15337E+4   6.90807E+4
  -3.34765E+4   6.71012E+4
  -3.50248E+4   6.54582E+4
  -3.70938E+4   6.35966E+4
  -3.90207E+4   6.16549E+4
  -4.02658E+4   5.96895E+4
  -4.16154E+4   5.76385E+4
  -4.31733E+4   5.60451E+4
  -4.43976E+4   5.37648E+4
  -4.56286E+4   5.18515E+4
  -4.67632E+4   5.00892E+4
  -4.76540E+4   4.81897E+4
  -4.85863E+4   4.65099E+4
  -4.93314E+4   4.45723E+4
  -5.01789E+4   4.26169E+4
  -5.06172E+4   4.06641E+4
  -5.13370E+4   3.90320E+4
  -5.16661E+4   3.70943E+4
  -5.23184E+4   3.54493E+4
  -5.25915E+4   3.37358E+4
  -5.28135E+4   3.19334E+4
  -5.29699E+4   3.05815E+4
  -5.32707E+4   2.86733E+4
  -5.34979E+4   2.69813E+4
  -5.34716E+4   2.51411E+4
  -5.35526E+4   2.36041E+4
  -5.34719E+4   2.24408E+4
  -5.32325E+4   2.05166E+4
  -5.33742E+4   1.92458E+4
  -5.28384E+4   1.75015E+4
  -5.27387E+4   1.62876E+4
  -5.26273E+4   1.50752E+4
  -5.21850E+4   1.34059E+4
  -5.17200E+4   1.20213E+4
  -5.12430E+4   1.08407E+4
  -5.07312E+4   9.50536E+3
  -5.02748E+4   8.09680E+3
  -4.98616E+4   6.88446E+3
  -4.93730E+4   5.66580E+3
  -4.88117E+4   4.67082E+3
  -4.84134E+4   3.23404E+3
  -4.76585E+4   1.90347E+3
  -4.69222E+4   7.30435E+2
  -4.60499E+4  -1.79438E+2
  -4.54718E+4  -1.03776E+3
  -4.49687E+4  -2.21925E+3
  -4.40259E+4  -3.21899E+3
  -4.32223E+4  -4.02419E+3
  -4.26542E+4  -5.08159E+3
  -4.17389E+4  -6.00226E+3
  -4.09787E+4  -6.65206E+3
  -3.99895E+4  -7.72417E+3
  -3.95989E+4  -8.55875E+3
  -3.86482E+4  -8.93867E+3
  -3.76840E+4  -9.87711E+3
  -3.68824E+4  -1.06805E+4
  -3.59040E+4  -1.15475E+4
  -3.51812E+4  -1.19236E+4
  -3.43033E+4  -1.25028E+4
  -3.35301E+4  -1.31147E+4
  -3.26388E+4  -1.34691E+4
  -3.18617E+4  -1.40734E+4
  -3.09185E+4  -1.44850E+4
  -3.01447E+4  -1.50352E+4
  -2.91749E+4  -1.51893E+4
  -2.83381E+4  -1.57490E+4
  -2.71984E+4  -1.61880E+4
  -2.68051E+4  -1.62513E+4
  -2.58642E+4  -1.65867E+4
  -2.50781E+4  -1.67949E+4
  -2.44064E+4  -1.72062E+4
  -2.33481E+4  -1.73908E+4
  -2.24641E+4  -1.75758E+4
  -2.17832E+4  -1.76930E+4
  -2.11069E+4  -1.79378E+4
  -2.02155E+4  -1.81852E+4
  -1.93134E+4  -1.82073E+4
  -1.89469E+4  -1.81214E+4
  -1.80621E+4  -1.83754E+4
  -1.74513E+4  -1.83707E+4
  -1.65262E+4  -1.82472E+4
  -1.59219E+4  -1.81319E+4
  -1.49959E+4  -1.82977E+4
  -1.45425E+4  -1.84285E+4
  -1.39170E+4  -1.82784E+4
  -1.30678E+4  -1.81415E+4
  -1.24350E+4  -1.80742E+4
  -1.18294E+4  -1.80160E+4
  -1.12435E+4  -1.80931E+4
  -1.04807E+4  -1.77455E+4
  -9.96167E+3  -1.79002E+4
  -9.58811E+3  -1.77096E+4
  -8.87551E+3  -1.75197E+4
  -8.39599E+3  -1.74841E+4
  -7.88549E+3  -1.75419E+4
  -7.27175E+3  -1.72553E+4
  -6.77381E+3  -1.69454E+4
  -6.17729E+3  -1.68762E+4
  -5.73860E+3  -1.66991E+4
  -5.29183E+3  -1.65395E+4
  -4.89485E+3  -1.62254E+4
  -4.23243E+3  -1.62448E+4
  -3.90414E+3  -1.60860E+4
  -3.20003E+3  -1.56227E+4
  -3.04045E+3  -1.54975E+4
  -2.82781E+3  -1.54411E+4
  -2.30800E+3  -1.52205E+4
  -1.97991E+3  -1.48899E+4
  -1.41374E+3  -1.47518E+4
  -8.01917E+2  -1.44847E+4
  -9.68122E+2  -1.45106E+4
  -5.26930E+2  -1.42817E+4
  -2.22868E+2  -1.40337E+4
   2.20693E+2  -1.34669E+4
   5.57588E+2  -1.35290E+4
   7.84770E+2  -1.35219E+4
   7.96438E+2  -1.31606E+4
   1.56660E+3  -1.30427E+4
   1.50172E+3  -1.27749E+4
   1.71158E+3  -1.24927E+4
   1.99560E+3  -1.25679E+4
   2.49613E+3  -1.20803E+4
   2.59264E+3  -1.17010E+4
   2.93981E+3  -1.15876E+4
   3.16386E+3  -1.15012E+4
   3.28632E+3  -1.12615E+4
   3.39249E+3  -1.09548E+4
   3.49311E+3  -1.08041E+4
   3.87222E+3  -1.06109E+4
   4.00473E+3  -1.05158E+4
   3.81663E+3  -1.02932E+4
   4.27561E+3  -1.00714E+4
   4.34000E+3  -9.73242E+3
   4.57879E+3  -9.67207E+3
   4.74253E+3  -9.54865E+3
   4.60365E+3  -9.21705E+3
   4.81058E+3  -8.93506E+3
   5.05040E+3  -8.99855E+3
   4.94773E+3  -8.80271E+3
   5.08952E+3  -8.86686E+3
   5.34747E+3  -8.28932E+3
   5.40045E+3  -8.12045E+3
   5.17388E+3  -8.26340E+3
   5.22198E+3  -8.18550E+3
   5.48116E+3  -7.67378E+3
   5.57650E+3  -7.73635E+3
   5.78309E+3  -7.41489E+3
