 
 $NMID
 ID=''
 FMTDAT='(2E13.5)'
 TRAMP=   1.00000E+0
 VOLUME=   1.00000E+0
 $END
  -1.74578E+5   7.26130E+5
  -1.17575E+6   1.62483E+6
  -1.00772E+6   1.72079E+6
  -1.02984E+6   1.59184E+6
  -1.10082E+6   1.59564E+6
  -1.08561E+6   1.55438E+6
  -1.13081E+6   1.50575E+6
  -1.14733E+6   1.53970E+6
  -1.10564E+6   1.48682E+6
  -1.16883E+6   1.41231E+6
  -1.20860E+6   1.42994E+6
  -1.16811E+6   1.40141E+6
  -1.19128E+6   1.33698E+6
  -1.22908E+6   1.32816E+6
  -1.21550E+6   1.29861E+6
  -1.22147E+6   1.25470E+6
  -1.24504E+6   1.24192E+6
  -1.25381E+6   1.20475E+6
  -1.26991E+6   1.16105E+6
  -1.27515E+6   1.14516E+6
  -1.27993E+6   1.10839E+6
  -1.30065E+6   1.07041E+6
  -1.30457E+6   1.04993E+6
  -1.30420E+6   1.01309E+6
  -1.32137E+6   9.75196E+5
  -1.32151E+6   9.58956E+5
  -1.31949E+6   9.28301E+5
  -1.33075E+6   8.96947E+5
  -1.33269E+6   8.71762E+5
  -1.32939E+6   8.41659E+5
  -1.33926E+6   8.10263E+5
  -1.33987E+6   7.87044E+5
  -1.34032E+6   7.55267E+5
  -1.34650E+6   7.24689E+5
  -1.34392E+6   6.99127E+5
  -1.34227E+6   6.73669E+5
  -1.35107E+6   6.48526E+5
  -1.35341E+6   6.19635E+5
  -1.34813E+6   5.89884E+5
  -1.34869E+6   5.67306E+5
  -1.34764E+6   5.42468E+5
  -1.34384E+6   5.14338E+5
  -1.33880E+6   4.93414E+5
  -1.33662E+6   4.73014E+5
  -1.33398E+6   4.46740E+5
  -1.33230E+6   4.22986E+5
  -1.32884E+6   4.00086E+5
  -1.32649E+6   3.72668E+5
  -1.32181E+6   3.46575E+5
  -1.31593E+6   3.23573E+5
  -1.31255E+6   3.00301E+5
  -1.31042E+6   2.76781E+5
  -1.30607E+6   2.54028E+5
  -1.30157E+6   2.30721E+5
  -1.29664E+6   2.08108E+5
  -1.29140E+6   1.85581E+5
  -1.28495E+6   1.62489E+5
  -1.27654E+6   1.40717E+5
  -1.26854E+6   1.22130E+5
  -1.26317E+6   1.02926E+5
  -1.25658E+6   8.15440E+4
  -1.24908E+6   6.08403E+4
  -1.24243E+6   4.09407E+4
  -1.23558E+6   2.03313E+4
  -1.22534E+6  -3.42870E+2
  -1.21438E+6  -1.91988E+4
  -1.20505E+6  -3.73316E+4
  -1.19678E+6  -5.49259E+4
  -1.18787E+6  -7.32137E+4
  -1.17921E+6  -9.17372E+4
  -1.16939E+6  -1.10141E+5
  -1.15820E+6  -1.26302E+5
  -1.14853E+6  -1.41925E+5
  -1.13880E+6  -1.58536E+5
  -1.12846E+6  -1.75226E+5
  -1.11645E+6  -1.90892E+5
  -1.10569E+6  -2.05775E+5
  -1.09459E+6  -2.21527E+5
  -1.08362E+6  -2.37277E+5
  -1.07145E+6  -2.52723E+5
  -1.05858E+6  -2.67693E+5
  -1.04628E+6  -2.81518E+5
  -1.03446E+6  -2.95357E+5
  -1.02169E+6  -3.09900E+5
  -1.00786E+6  -3.23759E+5
  -9.94523E+5  -3.36306E+5
  -9.82316E+5  -3.48144E+5
  -9.69966E+5  -3.59811E+5
  -9.55992E+5  -3.71357E+5
  -9.42393E+5  -3.81443E+5
  -9.29881E+5  -3.91227E+5
  -9.17378E+5  -4.01070E+5
  -9.04141E+5  -4.11827E+5
  -8.89700E+5  -4.21502E+5
  -8.75132E+5  -4.30095E+5
  -8.61486E+5  -4.37889E+5
  -8.48676E+5  -4.46039E+5
  -8.35696E+5  -4.54842E+5
  -8.21755E+5  -4.63453E+5
  -8.07781E+5  -4.70234E+5
  -7.94825E+5  -4.77368E+5
  -7.81261E+5  -4.85319E+5
  -7.66517E+5  -4.92706E+5
  -7.51722E+5  -4.98395E+5
  -7.38479E+5  -5.03095E+5
  -7.26105E+5  -5.08220E+5
  -7.13466E+5  -5.13964E+5
  -6.99098E+5  -5.19833E+5
  -6.84841E+5  -5.24111E+5
  -6.71823E+5  -5.27170E+5
  -6.59255E+5  -5.31000E+5
  -6.46850E+5  -5.36366E+5
  -6.33054E+5  -5.41330E+5
  -6.19267E+5  -5.45411E+5
  -6.05677E+5  -5.49437E+5
  -5.92531E+5  -5.53463E+5
  -5.78605E+5  -5.57470E+5
  -5.64495E+5  -5.60556E+5
  -5.50843E+5  -5.62018E+5
  -5.39083E+5  -5.63685E+5
  -5.27207E+5  -5.66335E+5
  -5.14954E+5  -5.68975E+5
  -5.02710E+5  -5.71015E+5
  -4.90177E+5  -5.72942E+5
  -4.77628E+5  -5.75113E+5
  -4.64628E+5  -5.76441E+5
  -4.52029E+5  -5.76842E+5
  -4.40174E+5  -5.77714E+5
  -4.28263E+5  -5.78873E+5
  -4.15852E+5  -5.80425E+5
  -4.03045E+5  -5.81736E+5
  -3.89575E+5  -5.82417E+5
  -3.77156E+5  -5.82622E+5
  -3.65202E+5  -5.82261E+5
  -3.53332E+5  -5.82710E+5
  -3.40888E+5  -5.82146E+5
  -3.29327E+5  -5.81548E+5
  -3.18329E+5  -5.80713E+5
  -3.06984E+5  -5.80434E+5
  -2.95057E+5  -5.79855E+5
  -2.83079E+5  -5.78160E+5
  -2.71959E+5  -5.75802E+5
  -2.62014E+5  -5.73672E+5
  -2.51445E+5  -5.72276E+5
  -2.40344E+5  -5.71269E+5
  -2.29181E+5  -5.68939E+5
  -2.18349E+5  -5.66017E+5
  -2.07602E+5  -5.63550E+5
  -1.97284E+5  -5.60666E+5
  -1.87509E+5  -5.57254E+5
  -1.77760E+5  -5.53888E+5
  -1.68386E+5  -5.50309E+5
  -1.59115E+5  -5.47588E+5
  -1.50108E+5  -5.44552E+5
  -1.40697E+5  -5.40735E+5
  -1.31945E+5  -5.36842E+5
  -1.23215E+5  -5.32740E+5
  -1.14935E+5  -5.29309E+5
  -1.06457E+5  -5.25291E+5
  -9.79795E+4  -5.21066E+5
  -8.98889E+4  -5.16674E+5
  -8.18669E+4  -5.12595E+5
  -7.38463E+4  -5.07783E+5
  -6.56714E+4  -5.03100E+5
  -5.79997E+4  -4.98393E+5
  -5.14161E+4  -4.93702E+5
  -4.43264E+4  -4.89607E+5
  -3.70106E+4  -4.85381E+5
  -2.94975E+4  -4.80680E+5
  -2.30847E+4  -4.75835E+5
  -1.69377E+4  -4.70899E+5
  -1.03617E+4  -4.66644E+5
  -3.94359E+3  -4.61626E+5
   2.42414E+3  -4.56687E+5
   8.43934E+3  -4.52023E+5
   1.45372E+4  -4.47213E+5
   2.11167E+4  -4.42828E+5
   2.74528E+4  -4.37814E+5
   3.34971E+4  -4.32157E+5
   3.88794E+4  -4.27100E+5
   4.45141E+4  -4.22562E+5
   5.00622E+4  -4.18012E+5
   5.60133E+4  -4.12817E+5
   6.16589E+4  -4.07669E+5
   6.67194E+4  -4.02846E+5
   7.15066E+4  -3.97524E+5
   7.62523E+4  -3.92547E+5
   8.09415E+4  -3.87285E+5
   8.50448E+4  -3.82159E+5
   8.90814E+4  -3.77616E+5
   9.40581E+4  -3.73540E+5
   9.91239E+4  -3.68332E+5
   1.03855E+5  -3.62603E+5
   1.07756E+5  -3.57137E+5
   1.12159E+5  -3.52034E+5
   1.15979E+5  -3.46805E+5
   1.20568E+5  -3.41925E+5
   1.24476E+5  -3.36245E+5
   1.28467E+5  -3.31140E+5
   1.32398E+5  -3.26219E+5
   1.36399E+5  -3.20610E+5
   1.39990E+5  -3.14975E+5
   1.42867E+5  -3.09354E+5
   1.45736E+5  -3.04408E+5
   1.48979E+5  -2.99430E+5
   1.52269E+5  -2.93965E+5
   1.55387E+5  -2.88407E+5
   1.58214E+5  -2.82900E+5
   1.60728E+5  -2.77422E+5
   1.63568E+5  -2.72430E+5
   1.66364E+5  -2.66640E+5
   1.68544E+5  -2.61078E+5
   1.70560E+5  -2.56195E+5
   1.73060E+5  -2.51199E+5
   1.75753E+5  -2.45909E+5
   1.77821E+5  -2.39803E+5
   1.79062E+5  -2.34160E+5
   1.80602E+5  -2.29337E+5
   1.81928E+5  -2.24328E+5
   1.83504E+5  -2.19185E+5
   1.84685E+5  -2.14131E+5
   1.85890E+5  -2.08899E+5
   1.87282E+5  -2.04208E+5
   1.88373E+5  -1.98808E+5
   1.89251E+5  -1.93585E+5
   1.89759E+5  -1.88492E+5
   1.89970E+5  -1.83913E+5
   1.90507E+5  -1.79222E+5
   1.91488E+5  -1.74488E+5
   1.92165E+5  -1.69516E+5
   1.92374E+5  -1.64427E+5
   1.92261E+5  -1.59675E+5
   1.92396E+5  -1.55731E+5
   1.92769E+5  -1.51148E+5
   1.92469E+5  -1.46302E+5
   1.92063E+5  -1.42199E+5
   1.92395E+5  -1.38037E+5
   1.92042E+5  -1.34015E+5
   1.91962E+5  -1.29427E+5
   1.91260E+5  -1.25208E+5
   1.90711E+5  -1.21734E+5
   1.90309E+5  -1.17639E+5
   1.90050E+5  -1.13781E+5
   1.89640E+5  -1.09879E+5
   1.88968E+5  -1.05689E+5
   1.88471E+5  -1.02136E+5
   1.87802E+5  -9.84206E+4
   1.87030E+5  -9.46947E+4
   1.86459E+5  -9.09428E+4
   1.85332E+5  -8.75072E+4
   1.84498E+5  -8.44787E+4
   1.84211E+5  -8.13950E+4
   1.83315E+5  -7.75582E+4
   1.82394E+5  -7.41110E+4
   1.81144E+5  -7.11088E+4
   1.80334E+5  -6.81275E+4
   1.79625E+5  -6.48591E+4
   1.78780E+5  -6.14059E+4
   1.77642E+5  -5.84605E+4
   1.76673E+5  -5.55769E+4
   1.76064E+5  -5.22640E+4
   1.74853E+5  -4.90078E+4
   1.73499E+5  -4.58952E+4
   1.72154E+5  -4.31169E+4
   1.70916E+5  -4.06330E+4
   1.69986E+5  -3.81203E+4
   1.68776E+5  -3.49935E+4
   1.67730E+5  -3.21633E+4
   1.66225E+5  -2.93165E+4
   1.64842E+5  -2.69342E+4
   1.63496E+5  -2.46511E+4
   1.62054E+5  -2.19003E+4
   1.60719E+5  -1.95226E+4
   1.59225E+5  -1.74986E+4
   1.58161E+5  -1.49432E+4
   1.56833E+5  -1.23458E+4
   1.55262E+5  -9.61471E+3
   1.53358E+5  -7.39162E+3
   1.52026E+5  -5.32243E+3
   1.50508E+5  -3.13509E+3
   1.48741E+5  -9.91829E+2
   1.47503E+5   1.20232E+3
   1.45668E+5   3.18466E+3
   1.44184E+5   4.97615E+3
   1.42349E+5   7.09538E+3
   1.40844E+5   9.02717E+3
   1.38606E+5   1.11047E+4
   1.37065E+5   1.24250E+4
   1.35750E+5   1.39173E+4
   1.34080E+5   1.58294E+4
   1.32460E+5   1.79182E+4
   1.30680E+5   1.93093E+4
   1.28791E+5   2.09871E+4
   1.26914E+5   2.24969E+4
   1.25322E+5   2.37440E+4
   1.23330E+5   2.53930E+4
   1.21787E+5   2.65366E+4
   1.20324E+5   2.79953E+4
   1.18660E+5   2.94736E+4
   1.16365E+5   3.08288E+4
   1.14866E+5   3.21703E+4
   1.13138E+5   3.32145E+4
   1.11654E+5   3.40564E+4
   1.10050E+5   3.54867E+4
   1.08005E+5   3.68983E+4
   1.06138E+5   3.77751E+4
   1.04499E+5   3.88309E+4
   1.03097E+5   3.96718E+4
   1.01070E+5   4.04859E+4
   9.94046E+4   4.15442E+4
   9.78128E+4   4.24731E+4
   9.62909E+4   4.30511E+4
   9.48381E+4   4.41171E+4
   9.29396E+4   4.51057E+4
   9.13589E+4   4.59202E+4
   8.93712E+4   4.63735E+4
   8.80380E+4   4.73234E+4
   8.60675E+4   4.77632E+4
   8.47567E+4   4.84388E+4
   8.29289E+4   4.91864E+4
   8.11851E+4   4.95468E+4
   7.98398E+4   5.03408E+4
   7.82196E+4   5.04786E+4
   7.64415E+4   5.12471E+4
   7.50597E+4   5.14484E+4
   7.34437E+4   5.18045E+4
   7.20023E+4   5.24874E+4
   7.04903E+4   5.30637E+4
   6.88043E+4   5.34817E+4
   6.70471E+4   5.38695E+4
   6.56887E+4   5.38475E+4
   6.44685E+4   5.43459E+4
   6.28835E+4   5.44055E+4
   6.13825E+4   5.45811E+4
   6.01380E+4   5.48000E+4
   5.86285E+4   5.52831E+4
   5.73861E+4   5.55429E+4
   5.56668E+4   5.60501E+4
   5.40248E+4   5.57064E+4
   5.27025E+4   5.56484E+4
   5.16486E+4   5.58176E+4
   5.00064E+4   5.60687E+4
   4.86886E+4   5.58945E+4
   4.73559E+4   5.60785E+4
   4.60401E+4   5.59741E+4
   4.47683E+4   5.60591E+4
   4.32944E+4   5.61945E+4
   4.18096E+4   5.61208E+4
   4.10527E+4   5.56087E+4
   4.01818E+4   5.58469E+4
   3.89822E+4   5.59268E+4
   3.72240E+4   5.58859E+4
   3.61412E+4   5.53750E+4
   3.48996E+4   5.52895E+4
   3.38743E+4   5.52520E+4
   3.29192E+4   5.46908E+4
   3.18027E+4   5.46574E+4
   3.06492E+4   5.45001E+4
   2.97457E+4   5.41952E+4
   2.87060E+4   5.41790E+4
   2.74647E+4   5.41006E+4
   2.67350E+4   5.35944E+4
   2.55766E+4   5.31151E+4
   2.46763E+4   5.27216E+4
   2.40200E+4   5.26287E+4
   2.29860E+4   5.22045E+4
   2.18934E+4   5.18920E+4
