 
 $NMID
 ID=''
 FMTDAT='(2E13.5)'
 TRAMP=   1.00000E+0
 VOLUME=   1.00000E+0
 $END
   1.13194E+4  -3.72503E+3
   4.99408E+3  -7.10810E+3
  -4.92433E+2   2.50503E+3
   9.27099E+3   3.73685E+3
   2.98071E+3   3.75927E+2
  -5.29973E+3   6.62557E+3
   5.10837E+2   3.95726E+3
  -8.28629E+2  -3.04828E+3
  -4.75627E+3   2.47290E+3
   1.07958E+3   3.79188E+3
  -1.19076E+3  -6.88464E+2
  -5.98257E+3   4.07358E+2
  -1.54410E+1  -1.09616E+3
   1.76580E+3  -3.14219E+3
  -3.02138E+3  -4.35487E+2
  -1.18670E+3  -2.58482E+3
   2.96671E+3  -5.62866E+3
   3.17101E+3   5.17464E+2
   2.50125E+3   1.89094E+3
   9.35051E+2  -1.58344E+3
   1.26896E+3   9.17350E+2
   2.00634E+3   2.98585E+3
   3.38895E+2   6.87022E+2
  -2.90743E+1   1.86697E+3
  -3.37139E+2   2.56816E+3
  -2.24840E+3   9.79984E+1
  -1.42383E+3  -6.87626E+2
   3.07196E+2   8.69999E+2
  -1.72872E+3   5.61592E+2
  -2.21817E+3  -9.15990E+2
   1.73334E+2  -2.30677E+3
   4.46202E+2  -2.09650E+3
   5.15123E+2  -1.13676E+2
   2.00441E+2   5.30034E+2
  -9.23378E+2  -1.14038E+3
   3.19466E+2  -2.31694E+3
   3.04110E+3  -1.33901E+3
   2.08776E+3   1.17740E+3
   1.93739E+2   1.48695E+3
   8.63500E+2   5.61551E+2
   8.49596E+2   1.89199E+3
  -1.30135E+3   2.01530E+3
  -1.86651E+3  -1.26631E+2
  -6.20023E+2  -6.78266E+2
  -3.73213E+2   2.68000E+2
  -9.01068E+2  -4.04738E+2
   2.64107E+2  -1.08369E+3
   6.15203E+2   2.68613E+2
  -9.20176E+2   4.80138E+2
  -1.56492E+3  -9.60790E+2
   4.85792E+1  -1.59281E+3
   5.62098E+2  -1.04930E+3
   2.34008E+2  -5.71150E+2
   6.43467E+2  -6.01799E+2
   1.42817E+3  -2.27233E+2
   1.12704E+3   7.96635E+2
   1.36406E+2   1.47756E+3
  -5.74383E+2   1.17391E+3
  -7.37152E+2   3.25848E+2
  -3.70754E+2   1.42402E+2
  -2.47688E+2  -4.44154E+0
  -3.42274E+2   2.39417E+2
   2.75923E+2  -1.48958E+2
   9.98749E+1   2.75458E+2
  -8.84004E+2   9.11864E+2
  -9.39286E+2   5.43696E+1
  -5.79020E+2  -7.71142E+2
  -4.14034E+2  -1.09642E+3
  -9.56412E+1  -8.31071E+2
   9.47447E+2  -4.41620E+2
   9.94153E+2   1.68155E+2
   4.00229E+2   1.99946E+2
   4.49452E+2   2.01413E+2
   9.83744E+2   1.29203E+2
   7.65796E+2   7.40234E+2
   5.57818E+1   7.44685E+2
   9.81727E-1   4.05424E+2
  -7.47549E+1   5.88936E+2
  -8.59966E+1   4.81613E+2
  -6.28146E+2   2.97881E+2
  -3.12011E+2   8.09553E+1
  -3.31653E+2  -9.51455E+1
  -9.89398E+0  -3.31166E+2
  -2.34738E+2  -3.90428E+2
  -2.20406E+2  -5.55709E+2
   1.60449E+1  -3.34301E+2
   4.86441E+2  -5.28147E+2
   6.01176E+2  -3.67814E+2
   5.72665E+2  -3.99791E+1
   3.44736E+2   1.99642E+2
   4.01176E+2   1.11694E+1
   4.24466E+2   3.56372E+2
   2.41441E+2   6.30814E+2
   2.99638E+2   6.42106E+2
  -2.48113E+2   2.51493E+2
  -5.68589E+2   1.29661E+2
  -5.46762E+2  -1.11980E+2
  -3.02319E+2   5.70743E+0
  -2.61144E+2  -8.08052E+1
  -5.92273E+2  -2.21511E+2
  -2.07418E+2  -1.14678E+2
   2.28708E+2  -3.26180E+2
   1.98676E+2   1.65654E+2
  -1.07702E+2   1.62283E+1
   8.96646E+1  -2.07965E+2
   1.44326E+2  -2.77905E+2
   5.29566E+2   4.55732E+1
   4.13327E+1   4.53642E+2
   9.05869E+1   4.51038E+2
  -1.06042E+2   3.28957E+1
  -4.30913E+1   1.10540E+2
  -2.85663E+1   9.05245E+1
  -4.28170E+2   8.10515E+1
  -2.05417E+2   3.29240E+2
  -2.90251E+2   1.20076E+2
  -4.06197E+1   1.62917E+2
  -2.46454E+2   1.65020E+2
  -2.61925E+2   5.98753E+1
  -3.81211E+2  -3.48457E+1
  -2.42012E+2  -3.74944E+2
  -1.20232E+2  -2.81085E+2
   1.23221E+2  -3.70231E+1
  -9.83041E+1  -7.32320E+1
  -5.62581E+1  -4.76030E+1
  -8.79719E+1   1.03620E+2
   1.83066E+2   6.76670E+1
  -3.06792E+1   1.64466E+2
  -7.48364E+1  -2.21622E+2
  -1.28246E+1   9.64829E+1
  -1.79632E+2  -1.16215E+1
  -7.86413E+1  -7.44074E+1
  -7.53930E+1  -4.44384E+1
   2.71740E+1  -1.50126E+2
  -1.47383E+2   8.56900E+1
  -1.22778E+2   1.92811E+2
  -7.34254E+1  -9.36606E+1
  -9.14753E+0  -2.75201E+1
   1.13028E+2  -1.29410E+2
   1.64034E+1   1.89569E+1
   9.91094E+1  -1.67153E+2
   5.12308E+1  -1.27901E+2
  -2.04720E+1  -1.19437E+2
  -1.98381E+1  -1.34312E+1
   3.38082E+1   1.63630E+2
  -7.18703E+0   9.43084E+0
  -3.24540E+2   1.68959E+2
   6.55262E+1   1.34017E+2
   4.29331E+1  -2.16943E+2
  -1.57017E+1  -7.34015E+1
   2.19665E+1   4.92878E+1
  -7.87449E+1  -2.80493E+1
  -1.90748E+2   6.34359E+1
   3.42955E+1   2.15263E+1
  -2.46380E+1  -8.10136E+1
  -1.16471E+0  -4.80754E+1
   2.89864E+2  -7.69467E+1
   1.91620E+2   6.26889E+0
   1.85755E+1   3.92442E+1
   2.80165E+2   7.09692E+1
   1.50841E+2  -8.74734E+1
   2.69636E+1  -9.27471E+1
  -4.69440E+1   1.88529E+1
  -4.08350E+1   8.95641E+1
  -1.21428E+1  -1.49989E+1
   1.84625E+2   8.07017E+1
  -4.63010E+1   2.82194E+2
  -8.14485E+1   2.46036E+1
  -2.51693E+2  -7.10618E+1
  -3.05256E+2   1.04812E+2
   7.55517E+1   1.44669E+1
   5.77008E+1  -2.64939E+1
  -6.83792E+1   6.31699E+1
   4.90556E+1   1.36772E+2
   4.35636E+1  -1.95337E+2
   1.48488E+2  -2.04366E+2
  -1.96357E+2   3.18025E+1
  -3.30969E+1  -1.01926E+2
   2.34573E+1  -4.22296E+1
  -2.30440E+1   1.91135E+2
   2.18389E+2  -4.89502E+1
  -6.59071E+1  -4.28716E+1
  -3.83028E+1  -5.00185E+1
  -4.94267E+0   1.05834E+2
   9.11092E+1  -2.10855E+1
  -1.90008E+2  -1.48746E+2
  -2.64587E+2  -3.24531E+2
  -2.19903E+2  -1.60639E+2
   3.11721E+1  -2.72673E+1
   5.52248E+0  -1.34346E+2
  -4.51510E+1  -1.30527E+2
   2.68083E+1  -6.88136E+0
   4.38494E+1  -4.21909E+1
   3.54069E+1  -2.27970E+1
   1.52888E+2   1.35762E+2
  -1.78753E+2   4.49947E+1
   1.00230E+2  -4.64097E+1
   3.65579E+1   7.83274E+1
  -1.13647E+2   1.04913E+2
  -1.14920E+2  -2.33306E+2
   1.25575E+2   5.77906E+1
  -1.80940E+2  -6.69598E+1
  -8.15265E+1  -1.29820E+2
   2.15011E+2   1.95186E+2
  -1.61243E+2   2.66884E+2
  -2.86852E+1   5.08132E+1
   4.57100E+1  -1.21296E+2
   3.01979E+1  -6.60367E+1
  -1.16833E+2  -3.37854E+2
  -7.83827E+1   1.11475E+2
  -1.94690E+2  -5.47709E+1
  -5.79329E+1  -2.38579E+2
  -3.08168E+1  -6.67080E+0
  -1.22935E+2   2.02788E+1
  -3.09779E+2   5.37290E+1
  -9.64785E+1   1.45982E+1
   2.14304E+2  -2.06694E+2
   1.12451E+2   2.17566E+2
  -1.20847E+1   2.58360E+2
  -8.83115E+1   6.12370E+1
   2.35445E+1   9.48289E+1
  -1.57587E+2  -1.21637E+1
  -5.05096E-2   9.00593E+1
   5.95199E+1   3.25284E+1
  -1.41939E+2  -2.16361E+1
   1.32918E+2   1.48492E+2
  -6.68673E+1   1.21671E+1
   3.04834E+1   9.09554E+1
  -1.97879E+1   7.26383E+1
  -1.66490E+2  -1.86641E+2
   1.91205E+2  -1.03249E+2
  -5.49095E+1   1.11799E+2
   1.46952E+2  -4.04296E+1
  -1.26106E+2  -5.96339E+1
   2.33050E+2  -3.36542E+1
   6.46682E+1   1.61596E+2
  -2.80125E+1  -7.63126E+1
  -1.06125E+0  -5.27903E+1
  -7.64229E+1  -8.46527E+1
   8.13395E+0   2.48415E+1
   2.98480E+1   1.07100E+2
   2.76576E+2  -8.53557E+1
   3.89374E+0  -1.00193E+2
   7.03099E+1  -1.72287E+2
   1.28998E+2   8.45107E+1
  -6.39128E+1   3.28394E+1
   7.44706E+1   5.95984E+1
   6.76293E+1   1.83261E+2
  -3.58147E+1   4.96542E+1
   9.66279E+1   9.67971E+1
  -3.57084E+1  -2.07879E+1
   7.56740E+1  -2.46332E+2
   4.50216E+1  -8.97228E+1
   4.27276E+1  -7.83271E+0
   2.45337E+2  -1.29893E+2
  -5.35976E+1  -1.70554E+2
   9.88353E+1   1.98099E+1
  -1.91171E+2  -3.26704E+2
   4.07129E+1   9.31177E+1
  -1.03145E+2  -3.34092E+1
   1.42856E+1  -1.48956E+2
   1.62031E+2  -3.48639E+2
   1.16343E+2  -1.71232E+2
  -5.83389E-1   2.06974E+2
  -1.86398E+2   2.54243E+1
  -1.51537E+2   7.75025E+1
  -3.00847E+1  -1.56226E+1
  -7.00772E+1  -2.37858E+2
   1.12008E+2  -1.53476E+2
   4.38858E+1  -1.77889E+2
  -1.75605E+2   7.47716E+0
   8.92682E+1   5.46480E+1
  -7.74320E+1   1.69329E+2
   1.02903E+2   7.80332E+1
   9.92041E+0  -5.94177E+1
  -4.48823E+1  -1.35854E+2
   1.14150E+2  -1.64814E+2
  -2.67622E+1  -1.51899E+2
   1.65815E+2  -9.79505E+1
  -1.24881E+2  -1.52008E+2
  -6.00638E+1   3.78590E+1
  -9.10732E+1  -1.54692E+2
   5.10064E+1  -8.06325E+1
   1.20114E+1  -2.62780E+1
  -1.92253E+2   1.46755E+2
  -2.25856E+1  -6.47035E+1
   1.18179E+2   2.42644E+1
  -6.21624E+1   1.87890E+2
  -1.66504E+1   1.31826E+2
   6.27520E+1   3.18559E+0
   1.78452E+2   1.10112E+1
  -9.16892E+0  -1.35477E+2
  -1.53963E+2  -3.11920E+1
   6.58858E+1   3.00723E+0
  -1.68587E+1   2.59462E+1
   1.11420E+2   1.09975E+2
  -6.76401E+1  -1.73227E+2
  -2.29209E+2  -1.43546E+2
  -1.89763E+2   1.10216E+2
  -1.84669E+2  -1.70402E+2
   1.39843E+2  -9.77938E+1
   6.22142E+1  -1.84272E+2
   1.48567E+2   2.36734E+1
  -6.12166E+1   5.61945E+1
   9.32118E+1  -2.27298E+2
   1.46446E+2  -7.77362E+1
   5.73516E+1  -6.33601E+1
   7.81785E+1  -6.98197E+1
  -7.41283E+1  -5.46373E+0
  -1.21028E+2  -9.06538E+0
   1.22506E+2   5.74199E+1
  -8.69768E+1  -6.23844E+0
  -1.14064E+2   6.79855E+1
   3.21816E+1   1.70661E+2
  -5.87624E+1  -2.29587E+1
   1.42172E+2   1.47796E+2
   2.26313E+1  -6.33610E+1
  -1.24910E+2  -2.31844E+1
   5.42529E+1   4.55760E+1
   5.06557E+1  -7.88202E+1
   8.96863E+0  -1.11685E+2
  -8.34847E+1  -2.67194E+1
   3.91799E+1  -7.28280E+1
   1.96864E+2   3.34432E+1
  -2.12273E+1   8.45805E+1
  -1.07681E+2   3.21193E+1
  -1.41320E+2  -2.79524E+1
   1.36549E+2  -1.06011E+2
  -2.15039E+1  -3.64125E+1
  -6.20707E+1  -7.13649E+1
  -1.18793E+2   1.75221E+2
  -1.53745E+1   9.19069E+1
  -5.40122E+1   7.58807E+1
  -5.32320E-1   1.92548E+2
   9.87024E+0   4.96621E+1
   1.69182E+1   1.36641E+2
   2.32819E+1  -1.54876E+2
   2.06758E+1  -1.33807E+2
   1.35017E+2  -5.24289E+1
   1.44843E+2   1.11398E+2
   1.20606E+2   2.50119E+2
  -2.70897E+2   5.40409E+1
  -4.72715E+1  -6.61595E+1
   1.56895E+2  -6.22905E+1
  -3.49763E+1  -6.25425E+1
  -1.26058E+1  -1.35382E+1
   2.69260E+1   1.24444E+2
  -8.70014E+1  -8.39226E-1
  -2.05431E+1  -4.70221E+1
  -1.18256E+1   1.01675E+2
  -2.55772E+0  -4.84916E+1
  -1.91330E+1  -2.58449E+2
   7.56833E+1  -8.81908E+1
   2.69883E+0   4.77758E+1
   1.02209E+2  -7.25430E+1
  -1.02603E+2  -1.42314E+2
  -4.89440E-2  -1.19905E+1
  -1.25001E+2   4.37351E+1
   2.86558E+1  -8.88187E+1
   7.53833E+1   4.79173E+1
   5.15365E+0   1.37467E+2
  -3.29463E+1   7.60677E+1
  -1.08208E+2  -1.41481E+2
  -1.71779E+1   1.85292E+2
   1.41542E+2  -2.37937E+1
  -1.99654E+2  -7.96929E+1
   6.91996E+1  -1.32209E+2
   6.06000E+1   1.31389E+1
