 
 $NMID
 ID=''
 FMTDAT='(2E13.5)'
 TRAMP=   1.00000E+0
 VOLUME=   1.00000E+0
 $END
   1.09921E+3  -3.83677E+3
   1.22556E+4  -2.31217E+3
   1.25026E+3  -5.44365E+3
  -2.18949E+3   8.25107E+3
   6.63581E+3   9.13424E+3
  -2.67068E+3  -1.76144E+3
  -7.10660E+3   9.40973E+2
   3.70048E+3   2.93925E+3
   2.09049E+2  -3.54420E+3
  -6.20082E+3  -1.12576E+3
   1.80334E+3   2.06009E+3
   2.59088E+3  -2.49600E+3
  -3.41595E+3  -1.23468E+3
   5.68642E+2   1.90141E+3
   1.22408E+3  -1.61461E+3
  -2.01636E+3  -1.95950E+3
   1.81884E+3   9.79991E+2
   2.30953E+3   2.16774E+1
  -1.58573E+3  -5.39510E+2
   2.39719E+2   1.01767E+3
   9.26591E+2   3.73685E+2
  -2.10904E+3  -5.43431E+2
   4.37607E+2   3.59606E+2
   1.40138E+3   4.22974E+2
  -1.82710E+3   1.91143E+2
  -6.47837E+2  -8.22440E+2
   2.05481E+3  -6.58526E+2
   2.65007E+2   1.70949E+3
  -1.13899E+3   1.32089E+3
   3.06760E+2  -1.17761E+3
   6.03762E+2  -4.49474E+2
  -1.22181E+2   1.19578E+3
  -5.60725E+2   6.78214E+2
  -1.32460E+3   1.63890E+2
  -8.17372E+2  -1.45684E+3
   6.23587E+2  -1.99099E+3
   8.83895E+2   5.32755E+1
  -2.76353E+2   1.00077E+3
  -7.48222E+1  -3.55358E+2
   7.45427E+2  -2.76396E+2
   3.28131E+2   5.44563E+2
  -7.18496E+2  -5.41117E+2
   5.44613E+2  -9.17421E+2
   1.09427E+3   2.49647E+2
   1.58445E+2   7.45813E+2
   3.36407E+2   1.39482E+2
   6.17111E+2   7.56197E+2
  -6.59610E+2   1.03045E+3
  -1.32353E+3   3.35532E+2
  -5.31191E+2  -5.15988E+2
   2.85794E+1  -3.94095E+2
   1.55814E+1  -5.80379E+2
  -3.69562E+1  -3.93785E+2
   5.90919E+1   1.59835E+2
   4.92979E+2   7.69244E+0
   3.06913E+2  -2.11256E+0
  -1.87292E+2  -1.70704E+2
  -4.43037E+2  -4.84067E+2
   3.38774E+2  -3.96256E+2
   6.01499E+2   1.21643E+2
   4.84464E+2   5.94572E+2
   1.50085E+2   5.61341E+2
  -2.26532E+2   7.21993E+2
  -6.58263E+2   4.70687E+2
  -8.76028E+2  -6.94141E+0
  -4.98828E+2  -1.48654E+2
   8.25959E+1  -7.51142E+2
   3.44795E+2  -5.93892E+2
   1.64240E+2  -6.59199E+1
  -2.18392E+2   3.96921E+2
  -2.24226E+2  -8.10115E+1
   5.65564E+2  -5.51811E+2
   7.10133E+2  -1.44049E+2
   2.88937E+2   6.39552E+2
  -3.29673E+2   7.79323E+1
   5.49223E+1  -1.23074E+2
  -3.38011E+1   7.95126E+1
  -8.79205E+1   2.09128E+1
  -5.25403E+2   4.41081E+2
  -2.69618E+2  -1.29767E+2
  -1.12616E+2  -4.53190E+2
   1.53357E+1  -2.48992E+2
   2.72172E+1   3.22922E+1
  -1.25284E+2  -1.99024E+2
  -1.15171E+2  -2.17820E+2
   4.35108E+2  -1.86898E+2
   3.88767E+2   3.50149E+2
  -6.61240E+1   1.91499E+2
  -3.85550E+2  -1.93363E+2
  -1.49217E+2  -1.20157E+2
   2.29880E+2   2.98535E+2
  -1.75706E+2   3.13252E+2
  -3.48641E+2  -8.38067E+1
  -6.43481E+2  -6.17459E+2
   7.98214E+1  -3.36503E+2
   3.83157E+2   1.78256E+1
   1.25813E+2   1.32831E+2
  -6.47777E+1  -1.59591E+2
   3.41483E+2  -2.17205E+2
   2.31836E+2   3.88629E+2
  -1.49858E+2   7.13727E+2
  -2.82676E+2   7.27262E+1
  -1.72781E+1  -2.26464E+2
   1.69918E+2  -1.14634E+2
   8.99926E+1   1.63470E+2
  -9.08492E+1   4.24039E+2
  -9.68500E+1   1.45105E+2
  -3.17073E+2  -2.43548E+2
   5.03946E+1  -5.56195E+2
   8.89297E+1   7.06133E+1
   1.94815E+2   3.68434E+2
  -8.33202E+1   2.85740E+2
  -3.12836E+2   6.92965E+1
  -1.29192E+2   1.14080E+2
   1.13870E+2   7.63972E+1
  -1.49940E+1  -1.49760E+2
  -1.78259E+2  -1.98415E+1
  -3.32439E+1  -2.27217E+2
   3.49717E+2  -1.19311E+2
   4.39736E+2   2.29258E+1
   5.69358E+1   2.13151E+2
  -3.75647E+1   1.63254E+2
  -1.91041E+2  -7.70303E+1
  -1.80535E+2   5.85292E+1
  -1.27827E+2  -2.65790E+1
   9.51695E+1   5.77576E+0
  -6.75217E+1  -2.06290E+2
   1.03527E+2  -1.21271E+2
  -3.89265E+1   1.58167E+2
  -1.53379E+2   2.62223E+2
  -3.46794E+2  -1.07496E+2
  -6.40193E+0  -3.09593E+2
   3.81965E+2  -1.15406E+2
  -2.46064E+2  -5.56615E+1
  -3.64398E+1   1.84761E+1
   1.78994E+2  -1.79832E+2
   3.84433E+2   3.41550E+2
  -1.14783E+2   1.91913E+2
  -1.53797E+2  -1.01568E+2
  -1.81848E+2  -3.06499E+2
  -5.69304E+1  -2.18173E+2
   6.33401E+1   6.66596E+1
   6.36658E+1   3.53879E+2
  -9.04981E+1  -9.44262E+1
  -2.26553E+2  -2.02774E+2
  -3.17180E+2  -6.55046E+1
  -1.63793E+2   6.48996E+1
   2.84737E+2  -3.54054E+1
  -1.89350E+2  -1.75767E+2
   2.71226E+2  -1.45010E+2
  -2.72574E+1   7.85984E+1
  -9.98561E+1   9.59027E+1
  -2.33229E+1   1.79758E+2
   4.22535E+1   2.45975E+2
  -1.05512E+2  -7.31957E+1
  -1.46786E+2   3.15486E+1
  -1.51331E+2  -7.01864E+1
  -2.34713E+2  -1.38167E+2
  -3.39113E+2  -1.23369E+2
  -2.36961E+2   3.00087E+1
   7.83634E+1  -1.13042E+0
  -2.45542E+1   9.46786E+1
   5.81660E+1  -9.30152E+1
   7.59955E+1   1.31082E+2
   2.05970E+2   2.68232E+2
   1.24503E+1   2.19167E+2
  -1.16903E+2  -1.77640E+2
  -1.63708E+2   1.39711E+0
  -2.59687E+2  -4.19945E+1
   7.19389E+1   5.15209E+1
  -1.15473E+2  -1.51355E+1
  -1.71389E+2  -8.19775E+1
   9.56399E+0   6.08796E+1
   1.48225E+2  -1.36193E+2
  -9.66725E+1   1.92196E+2
   6.08282E+1   9.13478E+1
   3.33962E+1  -1.89099E+2
  -1.21944E+2  -1.86422E+1
   1.63018E+2   2.14215E+2
   3.16657E+2   3.21698E+1
   6.59645E+1  -5.39605E+1
  -1.02867E+2   9.87909E+1
   8.80591E+1   1.20944E+2
   9.31343E+1  -8.07518E+1
  -1.07051E+2  -5.23952E+1
   1.72706E+2   1.49576E+2
   1.18392E+2   1.39759E+2
   4.73750E+1  -2.83353E+2
   1.13479E+2   1.80855E+2
  -1.40855E+2   1.79321E+2
  -1.47443E+2   1.88228E+1
   2.43259E+0  -2.22862E+2
   1.15737E+2  -1.36776E+2
   1.62659E+2   1.14367E+2
  -7.69422E+1   9.53079E-1
   8.43688E+1  -1.24199E+2
   6.65398E+1   2.93061E+1
  -6.01135E+1   5.69729E+1
   8.47300E+1  -7.66601E+1
   6.09484E+1  -4.99886E+1
   2.52361E+1  -1.09450E+2
   1.86138E+2  -6.79689E+0
   7.53656E+1   9.79308E+0
  -7.94248E+1   2.90996E+1
  -1.30791E+2   1.25110E+2
   6.60132E+1  -8.34928E+0
   9.14601E+1  -2.33066E+2
   3.37822E+2  -7.69396E+0
  -6.63529E+1  -2.63062E+2
   2.47272E+2  -5.10643E+1
  -2.78200E+2  -2.30126E+1
  -4.41026E+1   2.22228E+1
  -5.11470E+0   8.38782E+1
  -1.96461E+2   1.19574E+2
   5.65792E+1   4.32623E+1
  -2.24436E+1   5.87046E+1
  -2.01003E+2   1.37283E+2
   4.83721E+1  -2.07872E+1
   6.36893E+1   1.48586E+2
  -1.83539E+2   2.76932E+2
  -5.03430E+1   4.14590E+2
  -2.02818E+2  -3.17079E+1
   4.36815E+1   6.93842E+1
  -3.89693E+1   2.61650E+0
  -1.47887E+2   1.24904E+2
  -2.45259E+2  -6.79486E+1
   1.00027E+1   2.10734E+2
  -8.88598E+1   1.33014E+2
  -1.96251E+2   1.22640E+2
  -2.57055E+2   7.76591E+1
   2.59198E+1   1.49241E+2
  -1.17741E+2  -4.91787E+1
  -2.26896E+2   1.92633E+2
  -9.33893E+1  -3.02802E+1
   4.49200E+1  -4.56548E+1
   4.98565E+0   2.60580E+1
  -2.12426E+2   1.87243E+2
  -2.00922E+2   2.57862E+1
   1.01969E+2   2.22735E+2
  -9.16239E+1   3.13814E+2
  -1.09939E+2   9.23730E+1
  -3.63995E+0   5.50014E+1
   1.82094E+2  -4.12794E+0
  -9.89313E+1   2.17522E+2
  -1.47010E+2   3.18067E+1
  -6.38056E+1   7.50654E+1
   2.69969E+1   6.20637E+1
   2.31446E+2   4.68900E+1
  -2.04214E+2   3.38052E+2
  -4.41591E+1   1.74509E+2
  -2.95958E+0   2.29380E+1
  -2.36042E+2  -4.54474E+1
   4.20403E+1   1.98580E+2
  -1.44052E+2   4.92672E+1
   6.50277E+1   6.00896E+1
  -9.75142E+1   3.20012E+2
  -2.96371E+1   7.28880E+1
   2.57277E+1   2.13222E+2
   5.16588E+1  -7.39020E+1
  -4.27189E+1   6.00242E+1
  -4.44717E+1  -4.09009E+1
  -1.30142E+2  -4.34110E+1
   2.62656E+2   2.47973E+2
   9.05242E+1   6.18712E+1
  -1.57848E+2   3.33114E+2
   3.06059E+1   1.00896E+2
   7.85958E+1  -2.09787E+2
   4.34552E+1   1.62150E+2
   2.24412E+2   7.36209E+0
   3.97126E+1   1.32686E+2
   7.24904E+1   1.30941E+2
  -7.82547E+1  -6.85926E+1
  -1.40939E+0   1.01726E+2
  -1.04712E+2  -2.97632E+2
  -2.12624E+2  -2.69965E+1
   4.17528E+1   3.93916E+1
   2.71373E+1   5.47518E+1
   6.26993E+1   1.57134E+2
  -4.03886E+1   1.98645E+2
  -5.26084E+1   1.80432E+1
  -3.31925E+0   3.27133E+1
   2.55840E+1   2.20470E+1
  -5.28421E+1   8.20635E+1
   3.27684E+2   5.13003E+1
   8.10247E+1  -4.10477E+1
   6.71889E+1  -5.01831E+1
   4.94650E+0   8.66676E+1
   1.78751E+2  -1.81750E+1
   9.39297E+1  -1.76978E+1
  -2.31978E+1   5.04412E+1
  -3.03363E+1  -1.26766E+2
  -5.71331E+1   1.81599E+2
  -8.45283E+0   9.08979E+0
  -1.26882E+2  -6.97643E+1
  -1.72262E+1  -1.82450E+1
   1.38413E+2  -1.02551E+2
  -1.03684E+2   2.48969E+1
  -1.42118E+2   1.33228E+2
  -6.24052E+0   7.72673E+0
  -2.77521E+1   1.59765E+2
  -1.21199E+1  -1.35092E+1
  -1.98761E+2  -2.04897E+2
  -1.28679E+2   4.64308E+1
  -2.79990E+2  -4.59437E+1
   8.28576E+1  -3.13120E+1
   1.88351E+2  -8.67784E+1
  -8.37229E+1   1.17801E+2
  -2.03638E+1  -1.73445E+2
  -1.09023E+2  -8.68720E+1
  -3.80705E+2  -1.36363E+1
  -1.88488E+2   1.21507E+2
  -1.17557E+2   1.63783E+1
  -4.84042E+1   7.30311E+1
  -1.36499E+2   1.03950E+2
  -1.15694E+2   1.64344E+2
  -1.92554E+2  -2.56981E+1
  -3.99611E+1   1.40419E+2
  -1.40675E+2  -1.85306E+2
   7.34588E+1  -2.18709E+2
   3.45448E+1   1.75921E+2
  -9.11863E+1  -1.58355E+2
   5.57029E+1  -1.30484E+2
  -1.58947E+2   7.70080E+1
  -8.91224E+1  -1.59834E+2
  -7.37991E+1  -4.73519E+1
   4.82092E+0   4.49984E+1
  -4.72480E+1  -1.88418E+1
  -6.59253E+0  -2.09504E+1
   5.05325E+1  -2.59559E+2
   1.42426E+1   1.55625E+1
  -2.07968E+1  -6.14076E+1
  -2.57019E+2   1.00992E+2
  -1.76198E+2   1.13262E+2
  -1.52042E+2   9.31433E+1
   8.49901E+1   5.67106E+1
  -1.82762E+2  -1.75448E+2
   5.07859E+1   1.33524E+2
  -5.56004E+1   2.96780E+1
   2.12323E+2   2.18226E+1
  -4.78557E+0   7.45094E+1
  -2.77948E+2   1.12876E+2
  -1.01621E+2   1.37000E+2
   2.03011E+2  -2.29522E+2
  -6.55139E+1  -5.13454E+1
  -1.20681E+2   1.99160E+1
  -8.60367E+1   4.27030E+1
  -3.68548E+1   2.37223E+1
   5.20117E+1   7.35079E+1
  -2.93842E+1  -1.35432E+1
  -2.71746E+2   1.61927E+2
   6.09661E+1  -3.95728E+1
  -1.51982E+2   1.45206E+2
   1.16119E+2  -1.19737E+2
   1.33767E+2   9.25496E+1
  -4.52720E+1  -1.07719E+2
   4.76085E+1   1.73632E+2
  -1.67091E+2  -2.77515E+2
  -1.19221E+2  -1.56278E+2
  -2.50343E+1  -2.10296E+1
  -2.52973E+1  -1.54749E+2
   4.84146E+1   8.23439E+1
  -2.21215E+1  -2.46190E+1
  -1.15546E+2   3.88896E+1
   5.60854E+1   7.71899E+1
   1.09984E+2  -2.43125E+1
   1.47013E+2   4.18686E+1
   5.60871E+1  -5.97666E+1
