 
 $NMID
 ID=''
 FMTDAT='(2E13.5)'
 TRAMP=   1.00000E+0
 VOLUME=   1.00000E+0
 $END
  -4.59326E+5   1.45585E+5
  -1.30075E+6  -3.20101E+4
  -1.27452E+6   1.46275E+5
  -1.17121E+6   7.73355E+4
  -1.18299E+6  -3.91863E+2
  -1.13975E+6  -3.33351E+4
  -1.11019E+6  -1.19937E+5
  -1.15802E+6  -1.63079E+5
  -1.14974E+6  -1.47077E+5
  -1.11994E+6  -1.72196E+5
  -1.11235E+6  -1.90793E+5
  -1.06798E+6  -2.01011E+5
  -1.03345E+6  -2.46539E+5
  -1.03668E+6  -2.73602E+5
  -1.01827E+6  -2.82275E+5
  -9.98448E+5  -3.04112E+5
  -9.92117E+5  -3.17571E+5
  -9.60196E+5  -3.33430E+5
  -9.29765E+5  -3.69220E+5
  -9.14309E+5  -3.92786E+5
  -8.85501E+5  -4.12558E+5
  -8.62178E+5  -4.38919E+5
  -8.47377E+5  -4.52217E+5
  -8.18731E+5  -4.66150E+5
  -7.90567E+5  -4.86850E+5
  -7.72388E+5  -4.92879E+5
  -7.49667E+5  -5.00976E+5
  -7.29142E+5  -5.14556E+5
  -7.08152E+5  -5.19161E+5
  -6.83633E+5  -5.23627E+5
  -6.61798E+5  -5.38225E+5
  -6.39812E+5  -5.46416E+5
  -6.12076E+5  -5.55592E+5
  -5.89357E+5  -5.66116E+5
  -5.66556E+5  -5.72458E+5
  -5.41346E+5  -5.80512E+5
  -5.18528E+5  -5.91637E+5
  -4.95064E+5  -5.97474E+5
  -4.70164E+5  -6.00158E+5
  -4.49828E+5  -6.03348E+5
  -4.29130E+5  -6.03995E+5
  -4.07438E+5  -6.04746E+5
  -3.89089E+5  -6.03954E+5
  -3.71295E+5  -6.02529E+5
  -3.51165E+5  -6.01293E+5
  -3.32963E+5  -6.00413E+5
  -3.14067E+5  -5.99204E+5
  -2.92681E+5  -5.98527E+5
  -2.71798E+5  -5.96589E+5
  -2.52581E+5  -5.94312E+5
  -2.33707E+5  -5.92151E+5
  -2.14787E+5  -5.89496E+5
  -1.96206E+5  -5.86738E+5
  -1.78636E+5  -5.83437E+5
  -1.61720E+5  -5.78627E+5
  -1.44819E+5  -5.72983E+5
  -1.28716E+5  -5.67622E+5
  -1.13024E+5  -5.60882E+5
  -9.92036E+4  -5.53364E+5
  -8.49523E+4  -5.47094E+5
  -7.12565E+4  -5.40867E+5
  -5.72239E+4  -5.33754E+5
  -4.35072E+4  -5.26266E+5
  -3.00113E+4  -5.18385E+5
  -1.61077E+4  -5.10096E+5
  -2.78064E+3  -5.01589E+5
   1.00497E+4  -4.93083E+5
   2.13156E+4  -4.84236E+5
   3.20925E+4  -4.76064E+5
   4.37383E+4  -4.67004E+5
   5.49705E+4  -4.56216E+5
   6.49050E+4  -4.45824E+5
   7.40233E+4  -4.37220E+5
   8.39152E+4  -4.28339E+5
   9.33371E+4  -4.17751E+5
   1.01932E+5  -4.07116E+5
   1.09761E+5  -3.97533E+5
   1.18866E+5  -3.87540E+5
   1.27549E+5  -3.76439E+5
   1.35289E+5  -3.65947E+5
   1.42956E+5  -3.55587E+5
   1.49874E+5  -3.44837E+5
   1.56606E+5  -3.34481E+5
   1.62905E+5  -3.23866E+5
   1.68946E+5  -3.13326E+5
   1.74420E+5  -3.02381E+5
   1.79246E+5  -2.91852E+5
   1.83951E+5  -2.81404E+5
   1.88005E+5  -2.71198E+5
   1.91930E+5  -2.61003E+5
   1.95320E+5  -2.51375E+5
   1.98830E+5  -2.41775E+5
   2.02089E+5  -2.31963E+5
   2.05302E+5  -2.21882E+5
   2.07582E+5  -2.12416E+5
   2.09756E+5  -2.03172E+5
   2.12073E+5  -1.94062E+5
   2.14177E+5  -1.84995E+5
   2.15692E+5  -1.76078E+5
   2.16780E+5  -1.67660E+5
   2.17419E+5  -1.59440E+5
   2.18586E+5  -1.50789E+5
   2.19001E+5  -1.42425E+5
   2.18799E+5  -1.33909E+5
   2.18494E+5  -1.26443E+5
   2.18218E+5  -1.19175E+5
   2.17810E+5  -1.11715E+5
   2.17308E+5  -1.04542E+5
   2.16004E+5  -9.69824E+4
   2.14291E+5  -9.04020E+4
   2.13010E+5  -8.40467E+4
   2.12264E+5  -7.76810E+4
   2.10644E+5  -7.06365E+4
   2.08692E+5  -6.42110E+4
   2.06575E+5  -5.79950E+4
   2.04430E+5  -5.17616E+4
   2.01727E+5  -4.57327E+4
   1.99183E+5  -4.00308E+4
   1.96512E+5  -3.41068E+4
   1.93191E+5  -2.93672E+4
   1.90160E+5  -2.39154E+4
   1.87212E+5  -1.90283E+4
   1.84223E+5  -1.39297E+4
   1.80762E+5  -9.00300E+3
   1.77151E+5  -4.16808E+3
   1.73205E+5   6.62216E+2
   1.69159E+5   5.09032E+3
   1.65474E+5   9.21272E+3
   1.61623E+5   1.36421E+4
   1.57571E+5   1.77253E+4
   1.53639E+5   2.21590E+4
   1.49161E+5   2.61575E+4
   1.44716E+5   2.98001E+4
   1.40696E+5   3.34355E+4
   1.36387E+5   3.70714E+4
   1.31511E+5   4.02934E+4
   1.26823E+5   4.34777E+4
   1.22475E+5   4.63316E+4
   1.18414E+5   4.95454E+4
   1.13761E+5   5.22006E+4
   1.09138E+5   5.48779E+4
   1.04796E+5   5.70182E+4
   1.00302E+5   5.93651E+4
   9.59416E+4   6.13341E+4
   9.16368E+4   6.36160E+4
   8.69593E+4   6.53660E+4
   8.24384E+4   6.69752E+4
   7.81001E+4   6.82481E+4
   7.36588E+4   6.97627E+4
   6.94107E+4   7.14507E+4
   6.50950E+4   7.22039E+4
   6.07676E+4   7.33176E+4
   5.72186E+4   7.43437E+4
   5.31434E+4   7.48058E+4
   4.91276E+4   7.55151E+4
   4.51995E+4   7.62419E+4
   4.17530E+4   7.65999E+4
   3.78358E+4   7.67378E+4
   3.43236E+4   7.72599E+4
   3.09320E+4   7.73577E+4
   2.74763E+4   7.74962E+4
   2.41188E+4   7.70684E+4
   2.08776E+4   7.68305E+4
   1.77203E+4   7.67707E+4
   1.44043E+4   7.64662E+4
   1.16356E+4   7.61002E+4
   8.87712E+3   7.54324E+4
   6.02294E+3   7.51310E+4
   3.16999E+3   7.46372E+4
   6.08884E+2   7.37548E+4
  -2.17612E+3   7.32023E+4
  -4.53550E+3   7.23168E+4
  -6.77668E+3   7.16148E+4
  -9.28119E+3   7.06857E+4
  -1.14586E+4   6.96870E+4
  -1.35330E+4   6.84887E+4
  -1.57461E+4   6.74520E+4
  -1.77131E+4   6.63256E+4
  -1.97446E+4   6.49906E+4
  -2.17569E+4   6.37164E+4
  -2.35661E+4   6.27230E+4
  -2.54977E+4   6.14951E+4
  -2.71357E+4   5.99206E+4
  -2.87356E+4   5.84157E+4
  -3.03219E+4   5.69436E+4
  -3.16911E+4   5.52384E+4
  -3.33866E+4   5.39302E+4
  -3.47380E+4   5.24379E+4
  -3.58072E+4   5.06938E+4
  -3.69383E+4   4.92124E+4
  -3.83161E+4   4.78457E+4
  -3.91944E+4   4.59814E+4
  -4.04866E+4   4.44795E+4
  -4.11229E+4   4.25758E+4
  -4.20304E+4   4.09631E+4
  -4.29618E+4   3.92845E+4
  -4.40581E+4   3.75633E+4
  -4.45824E+4   3.58524E+4
  -4.51642E+4   3.39428E+4
  -4.58977E+4   3.25176E+4
  -4.66962E+4   3.06851E+4
  -4.68417E+4   2.88557E+4
  -4.72379E+4   2.68912E+4
  -4.77677E+4   2.55101E+4
  -4.84448E+4   2.37233E+4
  -4.86572E+4   2.19701E+4
  -4.88318E+4   2.00501E+4
  -4.90635E+4   1.82909E+4
  -4.92624E+4   1.66644E+4
  -4.96845E+4   1.51369E+4
  -4.95827E+4   1.35733E+4
  -4.95518E+4   1.18231E+4
  -4.95866E+4   1.02742E+4
  -4.97036E+4   8.56226E+3
  -4.97971E+4   6.91081E+3
  -4.93897E+4   5.37473E+3
  -4.92301E+4   4.12103E+3
  -4.89703E+4   2.44045E+3
  -4.89083E+4   1.17914E+3
  -4.87595E+4   5.54145E+1
  -4.85242E+4  -1.51600E+3
  -4.83470E+4  -2.71765E+3
  -4.77268E+4  -3.88425E+3
  -4.73978E+4  -5.21121E+3
  -4.69811E+4  -6.51406E+3
  -4.64493E+4  -7.54903E+3
  -4.59827E+4  -8.67331E+3
  -4.52824E+4  -9.56776E+3
  -4.50935E+4  -1.06312E+4
  -4.45493E+4  -1.17667E+4
  -4.34239E+4  -1.29151E+4
  -4.28397E+4  -1.37372E+4
  -4.24694E+4  -1.44167E+4
  -4.16930E+4  -1.55852E+4
  -4.13350E+4  -1.61258E+4
  -4.02906E+4  -1.68589E+4
  -3.96058E+4  -1.76084E+4
  -3.89970E+4  -1.83482E+4
  -3.80939E+4  -1.89889E+4
  -3.71627E+4  -1.93856E+4
  -3.61374E+4  -2.00069E+4
  -3.54816E+4  -2.04344E+4
  -3.47104E+4  -2.12429E+4
  -3.35161E+4  -2.17572E+4
  -3.27599E+4  -2.22007E+4
  -3.16815E+4  -2.26488E+4
  -3.08077E+4  -2.30035E+4
  -2.94419E+4  -2.34163E+4
  -2.88053E+4  -2.36451E+4
  -2.77393E+4  -2.41721E+4
  -2.67021E+4  -2.41883E+4
  -2.58923E+4  -2.49860E+4
  -2.48528E+4  -2.50667E+4
  -2.38606E+4  -2.53833E+4
  -2.28921E+4  -2.55260E+4
  -2.21259E+4  -2.57818E+4
  -2.11113E+4  -2.60544E+4
  -2.00966E+4  -2.62700E+4
  -1.88828E+4  -2.63614E+4
  -1.78231E+4  -2.66352E+4
  -1.70965E+4  -2.66913E+4
  -1.58243E+4  -2.70058E+4
  -1.50448E+4  -2.69983E+4
  -1.39031E+4  -2.68912E+4
  -1.28605E+4  -2.69671E+4
  -1.24414E+4  -2.70896E+4
  -1.10712E+4  -2.71804E+4
  -1.00923E+4  -2.69733E+4
  -9.39658E+3  -2.69095E+4
  -8.46491E+3  -2.68477E+4
  -7.69288E+3  -2.68388E+4
  -6.63999E+3  -2.65597E+4
  -6.05461E+3  -2.64503E+4
  -4.81039E+3  -2.63524E+4
  -3.89778E+3  -2.63102E+4
  -3.09181E+3  -2.61300E+4
  -2.27469E+3  -2.58416E+4
  -1.41330E+3  -2.55357E+4
  -7.17031E+2  -2.51569E+4
  -1.65393E+2  -2.50324E+4
   5.76894E+2  -2.47822E+4
   1.26493E+3  -2.42232E+4
   2.16237E+3  -2.42265E+4
   2.85611E+3  -2.37435E+4
   3.42226E+3  -2.37081E+4
   4.14886E+3  -2.31423E+4
   4.55630E+3  -2.28143E+4
   5.44367E+3  -2.21506E+4
   5.80733E+3  -2.18620E+4
   6.58710E+3  -2.15784E+4
   7.05217E+3  -2.09818E+4
   7.66523E+3  -2.06337E+4
   8.07255E+3  -2.01101E+4
   8.79021E+3  -1.96596E+4
   9.14044E+3  -1.91578E+4
   9.63666E+3  -1.87063E+4
   1.01507E+4  -1.80799E+4
   1.08362E+4  -1.77285E+4
   1.12479E+4  -1.73102E+4
   1.15258E+4  -1.68471E+4
   1.19169E+4  -1.61963E+4
   1.22184E+4  -1.57157E+4
   1.24310E+4  -1.50675E+4
   1.30394E+4  -1.46541E+4
   1.34068E+4  -1.39968E+4
   1.37716E+4  -1.35412E+4
   1.42896E+4  -1.29324E+4
   1.47019E+4  -1.26120E+4
   1.47964E+4  -1.22214E+4
   1.49811E+4  -1.13991E+4
   1.53985E+4  -1.10963E+4
   1.55142E+4  -1.03058E+4
   1.60959E+4  -1.00420E+4
   1.64007E+4  -9.43355E+3
   1.66402E+4  -8.95899E+3
   1.69508E+4  -8.64430E+3
   1.71558E+4  -8.25350E+3
   1.72538E+4  -7.64981E+3
   1.74607E+4  -7.08612E+3
   1.76931E+4  -6.94878E+3
   1.78254E+4  -6.16995E+3
   1.80056E+4  -6.20412E+3
   1.82527E+4  -5.24738E+3
   1.83453E+4  -5.05830E+3
   1.84724E+4  -4.50370E+3
   1.87324E+4  -4.21383E+3
   1.87931E+4  -4.05471E+3
   1.88082E+4  -3.54291E+3
   1.93442E+4  -2.98190E+3
   1.91855E+4  -2.65891E+3
   1.90696E+4  -2.38553E+3
   1.92286E+4  -2.14437E+3
   1.92103E+4  -1.74879E+3
   1.94039E+4  -1.35009E+3
   1.93446E+4  -7.94011E+2
   1.94454E+4  -6.56739E+2
   1.95526E+4  -2.08021E+2
   1.97088E+4   2.61286E+2
   1.95262E+4   6.85802E+2
   1.95583E+4   8.01661E+2
   1.96292E+4   1.20388E+3
   1.94545E+4   1.65173E+3
   1.96150E+4   1.82411E+3
   1.95457E+4   2.09732E+3
   1.95669E+4   2.39378E+3
   1.95206E+4   2.76038E+3
   1.94213E+4   3.07583E+3
   1.94823E+4   3.20965E+3
   1.93021E+4   3.39334E+3
   1.90289E+4   3.98473E+3
   1.91417E+4   3.97541E+3
   1.90023E+4   4.46975E+3
   1.91379E+4   4.46699E+3
   1.88433E+4   4.72987E+3
   1.89254E+4   4.86126E+3
   1.86588E+4   5.10290E+3
   1.85463E+4   5.33833E+3
   1.86771E+4   5.40094E+3
   1.82156E+4   5.76796E+3
   1.81232E+4   5.89899E+3
   1.79460E+4   6.07875E+3
   1.78563E+4   6.46913E+3
   1.77194E+4   6.69578E+3
   1.75911E+4   6.62487E+3
   1.71509E+4   6.90545E+3
   1.71976E+4   6.91017E+3
   1.70507E+4   7.15203E+3
