 
 $NMID
 ID=''
 FMTDAT='(2E13.5)'
 TRAMP=   1.00000E+0
 VOLUME=   1.00000E+0
 $END
   5.01623E+5  -1.20736E+5
   1.39960E+6   1.65126E+5
   1.36303E+6   1.80463E+4
   1.26094E+6   1.18232E+5
   1.32904E+6   1.65119E+5
   1.30960E+6   1.00140E+5
   1.25431E+6   1.34022E+5
   1.28514E+6   1.79432E+5
   1.26953E+6   1.65549E+5
   1.22928E+6   2.05330E+5
   1.23912E+6   2.42968E+5
   1.21833E+6   2.44384E+5
   1.18559E+6   2.76927E+5
   1.18511E+6   3.09681E+5
   1.16040E+6   3.24233E+5
   1.13126E+6   3.54904E+5
   1.12930E+6   3.78100E+5
   1.10863E+6   3.86912E+5
   1.08374E+6   4.09155E+5
   1.07719E+6   4.21519E+5
   1.05545E+6   4.30352E+5
   1.03299E+6   4.50445E+5
   1.02251E+6   4.65459E+5
   1.00025E+6   4.76320E+5
   9.74918E+5   4.95886E+5
   9.61269E+5   5.05003E+5
   9.39937E+5   5.18668E+5
   9.14273E+5   5.41006E+5
   8.92294E+5   5.53213E+5
   8.71019E+5   5.59873E+5
   8.51759E+5   5.74683E+5
   8.32892E+5   5.82995E+5
   8.09373E+5   5.88673E+5
   7.89731E+5   5.96672E+5
   7.72925E+5   5.99231E+5
   7.55765E+5   6.00748E+5
   7.38807E+5   6.07301E+5
   7.19269E+5   6.11940E+5
   6.97489E+5   6.14720E+5
   6.78450E+5   6.20157E+5
   6.57138E+5   6.23759E+5
   6.35012E+5   6.26053E+5
   6.15189E+5   6.29021E+5
   5.94547E+5   6.32470E+5
   5.72252E+5   6.34573E+5
   5.52397E+5   6.37371E+5
   5.32109E+5   6.39903E+5
   5.09644E+5   6.41128E+5
   4.88814E+5   6.38850E+5
   4.71428E+5   6.37191E+5
   4.53080E+5   6.36687E+5
   4.34166E+5   6.35977E+5
   4.15468E+5   6.33766E+5
   3.97830E+5   6.32096E+5
   3.79600E+5   6.30284E+5
   3.60230E+5   6.27468E+5
   3.40403E+5   6.24642E+5
   3.22609E+5   6.20307E+5
   3.05643E+5   6.16434E+5
   2.88574E+5   6.13172E+5
   2.70849E+5   6.09391E+5
   2.53747E+5   6.04405E+5
   2.37317E+5   6.00080E+5
   2.20593E+5   5.94964E+5
   2.04675E+5   5.88257E+5
   1.89257E+5   5.81095E+5
   1.75369E+5   5.74600E+5
   1.60877E+5   5.68289E+5
   1.46758E+5   5.62629E+5
   1.31897E+5   5.56275E+5
   1.18228E+5   5.48384E+5
   1.04792E+5   5.40558E+5
   9.24520E+4   5.33490E+5
   7.92427E+4   5.26694E+5
   6.63918E+4   5.17865E+5
   5.49738E+4   5.09373E+5
   4.38371E+4   5.01583E+5
   3.21439E+4   4.93077E+5
   2.12115E+4   4.83616E+5
   1.10790E+4   4.74529E+5
   1.55330E+3   4.65288E+5
  -7.94688E+3   4.55713E+5
  -1.77329E+4   4.46208E+5
  -2.72573E+4   4.36736E+5
  -3.61117E+4   4.26697E+5
  -4.46321E+4   4.16897E+5
  -5.28345E+4   4.06947E+5
  -6.14775E+4   3.96659E+5
  -6.90460E+4   3.86189E+5
  -7.55138E+4   3.76397E+5
  -8.19876E+4   3.66228E+5
  -8.85593E+4   3.56167E+5
  -9.48603E+4   3.45923E+5
  -1.00430E+5   3.35675E+5
  -1.05202E+5   3.25190E+5
  -1.09867E+5   3.15496E+5
  -1.14540E+5   3.05948E+5
  -1.19376E+5   2.96104E+5
  -1.23546E+5   2.86155E+5
  -1.27318E+5   2.76544E+5
  -1.31487E+5   2.67400E+5
  -1.35615E+5   2.57519E+5
  -1.39226E+5   2.47288E+5
  -1.41687E+5   2.37393E+5
  -1.44800E+5   2.28618E+5
  -1.47145E+5   2.20179E+5
  -1.49787E+5   2.10693E+5
  -1.52263E+5   2.01347E+5
  -1.53893E+5   1.92295E+5
  -1.55182E+5   1.84543E+5
  -1.56651E+5   1.76600E+5
  -1.58757E+5   1.68153E+5
  -1.60076E+5   1.59742E+5
  -1.61137E+5   1.51954E+5
  -1.61837E+5   1.44163E+5
  -1.63010E+5   1.36187E+5
  -1.63772E+5   1.28742E+5
  -1.63685E+5   1.21483E+5
  -1.63433E+5   1.14532E+5
  -1.63495E+5   1.08292E+5
  -1.63517E+5   1.01733E+5
  -1.63294E+5   9.50395E+4
  -1.62671E+5   8.88875E+4
  -1.62059E+5   8.27230E+4
  -1.61171E+5   7.68818E+4
  -1.59844E+5   7.08453E+4
  -1.58685E+5   6.51840E+4
  -1.57305E+5   5.99519E+4
  -1.55855E+5   5.46689E+4
  -1.54652E+5   4.94001E+4
  -1.52704E+5   4.38918E+4
  -1.50749E+5   3.87230E+4
  -1.48495E+5   3.39845E+4
  -1.46761E+5   2.93966E+4
  -1.44364E+5   2.45171E+4
  -1.42177E+5   2.01483E+4
  -1.39483E+5   1.60507E+4
  -1.36918E+5   1.16884E+4
  -1.34221E+5   7.77411E+3
  -1.31544E+5   3.76135E+3
  -1.28792E+5   9.44240E+1
  -1.25898E+5  -3.16656E+3
  -1.22997E+5  -6.42433E+3
  -1.20224E+5  -9.89345E+3
  -1.17274E+5  -1.33787E+4
  -1.14266E+5  -1.63782E+4
  -1.11049E+5  -1.93570E+4
  -1.07953E+5  -2.19814E+4
  -1.04666E+5  -2.45978E+4
  -1.01639E+5  -2.69825E+4
  -9.82159E+4  -2.92488E+4
  -9.52081E+4  -3.15102E+4
  -9.19830E+4  -3.34929E+4
  -8.89399E+4  -3.55261E+4
  -8.58857E+4  -3.74740E+4
  -8.28877E+4  -3.91482E+4
  -7.99359E+4  -4.07881E+4
  -7.69965E+4  -4.19264E+4
  -7.36667E+4  -4.33039E+4
  -7.08671E+4  -4.46254E+4
  -6.80596E+4  -4.56961E+4
  -6.48934E+4  -4.69629E+4
  -6.23117E+4  -4.76849E+4
  -5.93504E+4  -4.86942E+4
  -5.62969E+4  -4.98049E+4
  -5.38263E+4  -5.02797E+4
  -5.10978E+4  -5.06935E+4
  -4.86251E+4  -5.13899E+4
  -4.57233E+4  -5.20758E+4
  -4.30017E+4  -5.20360E+4
  -4.06755E+4  -5.23430E+4
  -3.81968E+4  -5.26821E+4
  -3.57167E+4  -5.28931E+4
  -3.32295E+4  -5.26269E+4
  -3.09915E+4  -5.28339E+4
  -2.86712E+4  -5.29428E+4
  -2.61436E+4  -5.28509E+4
  -2.39911E+4  -5.26773E+4
  -2.18239E+4  -5.23207E+4
  -1.96603E+4  -5.20983E+4
  -1.75774E+4  -5.19977E+4
  -1.53613E+4  -5.17336E+4
  -1.33920E+4  -5.13145E+4
  -1.15358E+4  -5.10763E+4
  -9.41537E+3  -5.04899E+4
  -7.73421E+3  -4.99767E+4
  -5.96243E+3  -4.93420E+4
  -4.31783E+3  -4.89376E+4
  -2.85508E+3  -4.83837E+4
  -1.12889E+3  -4.78140E+4
   2.37891E+2  -4.72937E+4
   2.12180E+3  -4.62802E+4
   3.51764E+3  -4.55520E+4
   5.01584E+3  -4.47996E+4
   6.25711E+3  -4.40185E+4
   7.80722E+3  -4.31072E+4
   9.19526E+3  -4.23465E+4
   1.05058E+4  -4.15198E+4
   1.15933E+4  -4.07653E+4
   1.28623E+4  -3.93760E+4
   1.38197E+4  -3.87791E+4
   1.51701E+4  -3.76135E+4
   1.60369E+4  -3.64887E+4
   1.73187E+4  -3.56718E+4
   1.82904E+4  -3.45825E+4
   1.90519E+4  -3.36609E+4
   1.98973E+4  -3.23027E+4
   2.09621E+4  -3.12302E+4
   2.19852E+4  -3.01320E+4
   2.23891E+4  -2.92314E+4
   2.35726E+4  -2.79917E+4
   2.40754E+4  -2.66331E+4
   2.46089E+4  -2.57855E+4
   2.55529E+4  -2.48693E+4
   2.61620E+4  -2.35579E+4
   2.65871E+4  -2.24487E+4
   2.73116E+4  -2.14467E+4
   2.78347E+4  -2.05373E+4
   2.84377E+4  -1.93048E+4
   2.86938E+4  -1.82147E+4
   2.93567E+4  -1.72180E+4
   2.95650E+4  -1.62697E+4
   2.98996E+4  -1.56596E+4
   3.05044E+4  -1.43480E+4
   3.04387E+4  -1.32839E+4
   3.09008E+4  -1.23501E+4
   3.09454E+4  -1.16589E+4
   3.13299E+4  -1.05380E+4
   3.14579E+4  -1.00447E+4
   3.15575E+4  -8.95792E+3
   3.16468E+4  -8.20760E+3
   3.17455E+4  -7.47982E+3
   3.17527E+4  -6.84189E+3
   3.20060E+4  -5.91071E+3
   3.20269E+4  -5.40215E+3
   3.21411E+4  -4.77805E+3
   3.22089E+4  -4.08602E+3
   3.20099E+4  -2.94401E+3
   3.18916E+4  -2.65773E+3
   3.15815E+4  -2.14475E+3
   3.14191E+4  -1.58952E+3
   3.18185E+4  -7.50125E+2
   3.15648E+4  -3.58307E+2
   3.15002E+4   1.79102E+2
   3.12077E+4   6.94657E+2
   3.09660E+4   1.20462E+3
   3.08072E+4   1.72830E+3
   3.09068E+4   2.26583E+3
   3.02523E+4   2.71669E+3
   3.00976E+4   3.19324E+3
   3.00194E+4   3.52296E+3
   2.96538E+4   4.11480E+3
   2.94839E+4   4.75006E+3
   2.90039E+4   4.90798E+3
   2.89931E+4   5.45579E+3
   2.85932E+4   5.80275E+3
   2.84374E+4   6.00692E+3
   2.80829E+4   6.76289E+3
   2.77599E+4   6.96632E+3
   2.75656E+4   7.26199E+3
   2.69427E+4   7.83687E+3
   2.69842E+4   8.17722E+3
   2.66204E+4   8.67766E+3
   2.60136E+4   8.76412E+3
   2.59463E+4   9.23498E+3
   2.56642E+4   9.49163E+3
   2.51976E+4   9.75319E+3
   2.48532E+4   1.01742E+4
   2.46646E+4   1.07732E+4
   2.42563E+4   1.09266E+4
   2.42536E+4   1.13583E+4
   2.37471E+4   1.14582E+4
   2.36104E+4   1.18089E+4
   2.29055E+4   1.17908E+4
   2.27202E+4   1.21234E+4
   2.25840E+4   1.24984E+4
   2.21042E+4   1.29694E+4
   2.17309E+4   1.32199E+4
   2.17728E+4   1.33093E+4
   2.13370E+4   1.33960E+4
   2.13193E+4   1.36996E+4
   2.07550E+4   1.38838E+4
   2.08331E+4   1.40708E+4
   2.05121E+4   1.40939E+4
   2.02488E+4   1.43405E+4
   1.98781E+4   1.42948E+4
   1.96159E+4   1.45940E+4
   1.92795E+4   1.47379E+4
   1.93748E+4   1.48004E+4
   1.89379E+4   1.50591E+4
   1.88160E+4   1.48249E+4
   1.88029E+4   1.49749E+4
   1.85874E+4   1.52285E+4
   1.82288E+4   1.56221E+4
   1.78871E+4   1.54652E+4
   1.79122E+4   1.56180E+4
   1.78191E+4   1.57419E+4
   1.76052E+4   1.58991E+4
   1.73725E+4   1.55106E+4
   1.70443E+4   1.57063E+4
   1.70638E+4   1.59012E+4
   1.69372E+4   1.58319E+4
   1.66589E+4   1.57546E+4
   1.65101E+4   1.57850E+4
   1.62879E+4   1.57338E+4
   1.60504E+4   1.57960E+4
   1.59946E+4   1.58979E+4
   1.60169E+4   1.59004E+4
   1.58111E+4   1.58365E+4
   1.54528E+4   1.58256E+4
   1.54836E+4   1.59827E+4
   1.51435E+4   1.58630E+4
   1.48270E+4   1.61660E+4
   1.48082E+4   1.60028E+4
   1.47913E+4   1.59721E+4
   1.46402E+4   1.59203E+4
   1.45145E+4   1.59859E+4
   1.40219E+4   1.60917E+4
   1.40997E+4   1.59719E+4
   1.37216E+4   1.60822E+4
   1.35894E+4   1.59007E+4
   1.35300E+4   1.57695E+4
   1.31377E+4   1.59775E+4
   1.32925E+4   1.60056E+4
   1.28648E+4   1.58881E+4
   1.28621E+4   1.60680E+4
   1.26682E+4   1.61010E+4
   1.23928E+4   1.59630E+4
   1.26702E+4   1.58163E+4
   1.21642E+4   1.59696E+4
   1.21344E+4   1.59387E+4
   1.20290E+4   1.58192E+4
   1.18334E+4   1.55439E+4
   1.16429E+4   1.60334E+4
   1.19288E+4   1.61353E+4
   1.14302E+4   1.60100E+4
   1.11938E+4   1.58506E+4
   1.11337E+4   1.57349E+4
   1.09110E+4   1.58632E+4
   1.07618E+4   1.59543E+4
   1.06359E+4   1.58046E+4
   1.06174E+4   1.59242E+4
   1.03447E+4   1.56929E+4
   1.01404E+4   1.61049E+4
   1.00645E+4   1.57389E+4
   9.75382E+3   1.58259E+4
   9.91046E+3   1.59729E+4
   9.74787E+3   1.60146E+4
   9.55958E+3   1.58619E+4
   9.24164E+3   1.56588E+4
   9.20942E+3   1.59958E+4
   9.01882E+3   1.59166E+4
   8.83549E+3   1.57269E+4
   8.78017E+3   1.56988E+4
   8.40354E+3   1.57323E+4
   8.35188E+3   1.59819E+4
   8.14057E+3   1.57386E+4
   8.11598E+3   1.55977E+4
   8.11443E+3   1.57429E+4
   7.70322E+3   1.56242E+4
   7.62084E+3   1.58255E+4
   7.44030E+3   1.56111E+4
   7.47565E+3   1.56604E+4
   7.24770E+3   1.55577E+4
   7.00986E+3   1.56864E+4
   7.00498E+3   1.55902E+4
   6.75421E+3   1.55755E+4
