 
 $NMID
 ID=''
 FMTDAT='(2E13.5)'
 TRAMP=   1.00000E+0
 VOLUME=   1.00000E+0
 $END
   1.92792E+4  -1.85833E+4
   6.26337E+3  -4.09916E+4
  -3.31024E+4  -1.28318E+4
  -5.17549E+3   3.36449E+4
   2.83649E+4   6.58741E+3
  -1.66902E+3  -2.72983E+4
  -2.11110E+4   2.89575E+3
   7.84241E+3   2.03583E+4
   1.74446E+4  -5.14593E+3
  -3.44385E+3  -9.21570E+3
  -9.38165E+3   7.93157E+3
   7.30222E+2   5.86277E+3
   5.65708E+3  -2.98188E+3
  -4.43642E+2  -1.27337E+3
  -7.02153E+3   6.02867E+2
  -1.63717E+3  -1.24849E+3
   6.21923E+3  -8.85045E+2
   2.12961E+3   9.65615E+2
  -3.20112E+3   2.26422E+2
  -2.51880E+2  -1.27150E+3
   2.11355E+3  -4.01327E+2
   1.31333E+3   1.02395E+2
   7.80183E+2  -8.15360E+2
  -1.02762E+3   3.37507E+2
  -5.98575E+2   5.51558E+2
   2.75172E+3  -1.10324E+3
   2.09769E+3  -1.82481E+2
  -1.11219E+3   1.50109E+3
  -9.44363E+2  -4.30241E+2
   8.75426E+2  -7.14459E+2
   6.47997E+2   8.38903E+2
  -2.20214E+2   1.27921E+1
  -3.79603E+2  -2.89882E+2
  -9.24585E+2   1.42361E+2
  -1.01219E+3  -2.69238E+3
   1.50238E+3  -3.22699E+3
   2.64723E+3   1.10595E+3
   2.08183E+2   2.21145E+3
  -1.07560E+3  -8.31620E+2
   3.74053E+2  -9.73904E+2
  -1.43069E+2   9.42369E+2
  -1.49915E+3  -5.53223E+2
   1.60556E+2  -2.64535E+3
   1.79863E+3  -1.04276E+3
   1.37669E+3   4.38719E+2
   1.02642E+3   6.01700E+2
   5.85012E+2   8.43337E+2
  -1.19314E+3   1.16957E+3
  -1.87107E+3  -2.89303E+2
  -7.82259E+2  -1.62910E+3
   1.00923E+2  -1.15036E+3
   1.64893E+1  -6.58807E+2
   3.59405E+2  -7.00062E+2
   4.30836E+2  -2.56876E+2
   3.90935E+2   3.83315E+2
  -4.00943E+1   8.13996E+2
  -7.19510E+2   6.85590E+2
  -5.50493E+2  -1.56252E+3
   3.50787E+2  -1.59161E+3
   1.12173E+3  -4.68382E+2
   8.50426E+2   2.96759E+2
   7.82094E+2   1.09085E+2
   8.03944E+2   1.16398E+3
  -8.64533E+2   1.97252E+3
  -2.08313E+3   8.37230E+2
  -1.57507E+3  -1.08132E+3
  -6.97781E+2  -1.24603E+3
   4.84009E+2  -1.38614E+3
   1.20163E+3  -8.04702E+2
   6.69231E+2   2.15205E+0
  -6.92181E+2   3.37630E+2
  -4.50986E+2  -5.80758E+2
   1.51812E+3  -1.30806E+2
   1.12080E+3   9.24951E+2
  -4.30849E+2   8.36102E+2
  -2.77712E+2  -2.71654E+2
   1.64322E+2  -3.44551E+2
   1.69813E+2   6.44065E+2
  -9.77205E+1   6.06230E+2
  -3.79965E+2   2.15729E+2
  -6.39109E+2  -1.98347E+2
  -4.29797E+2  -4.56379E+2
  -7.82066E+1  -1.18951E+2
   1.13163E+1   3.22898E+1
  -4.92051E+2  -3.79029E+2
   3.70401E+1  -8.56945E+2
   5.66072E+2  -1.86524E+2
   5.24101E+2   2.72924E+2
   1.00149E+2   1.71697E+2
  -1.62567E+1  -8.13204E+1
   9.57765E+2   1.80239E+2
   6.48596E+2   7.49221E+2
  -2.69579E+2   1.32555E+3
  -1.21452E+3   9.34600E+2
  -9.35409E+2  -5.01875E+2
   3.13403E+1  -1.17212E+3
   6.83507E+2  -3.64417E+2
   2.79879E+1   1.51625E+2
   1.45289E+1  -5.06359E+1
   6.89821E+2  -6.43103E+2
   7.61611E+2   4.85102E+2
   3.00958E+2   1.19662E+3
  -6.68910E+2   5.27260E+2
  -7.64541E+2  -6.35281E+2
   3.28611E+1  -9.25695E+2
   9.95207E+2  -7.27172E+1
   1.74648E+2   9.64325E+2
  -9.32388E+2   3.35385E+2
  -1.04303E+3  -1.04166E+3
   6.36948E+2  -1.21161E+3
   1.24155E+3  -2.03453E+2
   9.08906E+2   4.99487E+2
   1.10213E+2   8.55944E+2
   1.84490E+2   4.34499E+2
   3.14008E+2   4.01823E+2
  -1.95634E+2   7.76577E+2
  -9.28214E+2   5.48383E+2
  -1.14900E+3  -3.06183E+2
  -5.40368E+2  -1.35192E+3
   2.99737E+2  -1.30243E+3
   1.10521E+3  -2.36257E+2
   7.80341E+2   4.19354E+2
   4.86868E+2   4.19887E+2
   1.87525E+2   7.10142E+2
  -3.17933E+2   5.59118E+2
  -4.71728E+2  -2.58027E+1
  -5.88408E+2  -2.32652E+2
  -5.64600E+1  -5.82744E+2
   5.18499E+2  -3.57895E+0
   4.03066E+2   3.84988E+2
  -1.62986E+2   6.19931E+2
  -8.36541E+2   1.27000E+2
  -3.28716E+2  -4.54860E+2
   4.09724E+2  -1.33695E+2
  -2.26215E+2   1.24193E+2
  -3.45164E+2  -2.74897E+2
   2.20498E+2  -3.27120E+2
   5.81370E+2   1.30995E+2
   1.53932E+2   4.61740E+2
  -6.30318E+2   6.66964E+2
  -8.48610E+2  -9.79488E+1
  -2.72507E+2  -8.04138E+2
   7.45001E+2  -2.69719E+2
   8.79792E+2   6.70077E+2
  -1.25722E+2   1.05730E+3
  -6.15328E+2   3.41010E+2
  -6.49591E+2  -1.05230E+2
  -4.30206E+2   8.48158E+1
  -4.82011E+2   1.14518E+2
  -4.57946E+2  -3.65239E+2
  -1.70977E+1  -6.90436E+2
   4.26327E+2  -6.18039E+2
   7.34592E+2   1.44242E+2
   4.28207E+2   6.96233E+2
  -2.77041E+2   2.33855E+2
  -3.22919E+2  -1.99692E+2
   5.03589E+2   1.27982E+2
   2.60110E+2   4.63786E+2
   2.46038E+1   1.49626E+2
  -5.45784E+1  -5.61620E+0
   8.29112E+1   1.74791E+2
  -1.15309E+2   4.20875E+2
  -4.62112E+2   1.35701E+2
  -6.09452E+2  -2.93674E+2
   8.23511E+1  -4.45732E+2
   4.71418E+2  -4.23296E+2
   3.73971E+2   2.26711E+2
   1.18616E+2   4.06839E+2
  -2.01134E+2   4.29202E+2
   1.03241E+2   4.52400E+1
   2.98812E+2  -2.52748E+2
   9.71113E+1   2.61985E+2
  -1.53009E+2   4.26821E+2
  -1.39182E+2   2.62371E+1
   6.71090E+1  -2.60648E+2
   3.78494E+2   7.59862E+1
  -1.56128E+1   5.73497E+2
  -6.70679E+2  -9.19549E-1
  -4.01247E+2  -5.69812E+2
   3.11707E+2  -4.89666E+2
   3.94112E+2   3.90447E+2
  -7.47309E+1   6.09285E+2
  -4.14552E+2   2.61189E+2
  -4.50753E+2  -6.60063E+1
  -2.90698E+2  -1.11532E+2
  -1.82497E+1  -5.05351E+1
  -1.34553E+2  -1.52210E+2
   4.98406E+1  -6.88719E+2
   6.24596E+2  -3.99596E+2
   1.09345E+3   1.53570E+2
   5.77357E+2   8.87273E+2
  -4.92203E+2   7.00832E+2
  -6.63337E+2   9.37999E+1
  -3.69408E+2  -4.00361E+2
  -2.98868E+1  -3.36364E+2
   9.82399E+1   1.86134E+0
   8.45250E+1  -1.21396E+0
  -9.13382E+1  -1.12170E+2
   8.94539E-1   6.13032E+1
  -3.12427E+2   4.43365E+2
  -4.72063E+2   1.89201E+2
  -3.60602E+2  -2.75491E+2
   1.31836E+2  -5.75563E+2
   4.34068E+2  -3.52109E+2
   4.05076E+2   3.29294E+2
  -1.11381E+1   2.89766E+2
  -2.73301E+2  -2.75227E+1
  -1.54740E+1  -2.04655E+2
   1.61752E+2   1.39082E+2
  -7.07074E+1   3.40166E+2
  -2.36486E+2  -3.37890E+2
   1.31492E+2  -4.01725E+2
   4.02099E+2   1.45477E+2
   9.61711E+1   7.87677E+2
  -3.24694E+2   8.16297E+2
  -7.57014E+2  -5.02126E+1
  -1.65723E+2  -6.06119E+2
   5.35850E+2  -1.89224E+2
   8.35326E+1  -2.53641E+2
   1.13889E+2   5.00169E+1
   1.71446E+2  -6.13709E-1
   3.46292E+2   3.29848E+1
   2.45574E+2   2.95434E+2
  -3.54343E+2   4.76154E+2
  -5.74280E+2   2.20436E+1
  -2.75200E+2  -4.22651E+2
   2.66082E+2  -4.30304E+2
   4.39255E+2   3.54004E+2
   5.72531E+0   1.95387E+2
  -4.11244E+2   2.99216E+2
  -2.45955E+2  -4.85884E+2
  -9.83450E+1  -2.16007E+2
   1.75670E+2   1.94680E+1
  -4.10205E+2   6.55855E+1
  -1.62626E+2  -8.29251E+1
   1.28242E+2  -2.17578E+2
   1.28975E+2   1.69153E+1
  -6.59773E+1   2.49876E+2
  -2.23214E+2   1.32536E+2
  -1.57806E+2  -1.94143E+2
   2.51446E+2  -3.28115E+2
   1.16609E+2   4.85206E+2
  -1.33122E+2   4.50428E+2
  -4.91059E+2  -3.94409E+1
  -2.77947E+2  -2.51774E+2
   4.17282E+2  -1.52337E+1
   1.34735E+2   3.13881E+2
  -2.80840E+2   1.03756E+2
  -2.57449E+2  -5.29505E+2
   2.61732E+2  -3.05713E+2
   5.21890E+2   2.19775E+2
  -4.67604E+1   5.24233E+2
  -2.94114E+2   3.99405E+2
  -4.03627E+2  -6.18973E+2
   3.83441E+2  -5.27487E+2
   5.51416E+2  -1.58577E+2
   2.32579E+2   3.45488E+2
  -2.16408E+2   3.57391E+2
  -1.33655E+1   1.41854E+2
  -1.08665E+2   4.71369E+1
  -1.61745E+2   2.31190E+2
  -4.94923E+2  -3.69181E+1
  -3.19602E+2  -4.86328E+2
   3.71441E+2  -6.57581E+2
   4.29301E+2   1.24100E+2
   3.21245E+2   5.42392E+2
  -2.85691E+2   3.02699E+2
  -2.68668E+2  -6.30249E+1
  -2.14540E+2  -4.82225E+2
   9.95199E+0  -8.85499E+1
   2.46343E+1   7.20003E+1
   6.47546E+1  -1.11506E+2
   7.91196E+1  -2.05503E+2
   7.57873E+1   7.61796E+1
   1.77361E+2   4.44491E+2
  -2.49877E+2   9.67812E+1
  -4.63086E+2  -1.85565E+2
   2.31133E+2  -4.18718E+2
   2.24567E+2  -2.69557E+1
  -3.63617E+1   8.48971E+1
  -1.61611E+2   1.97672E+2
  -1.20045E+2   1.14928E+1
   1.15806E+2  -1.05018E+2
  -6.82153E+1  -2.71153E+1
  -3.35915E+2   1.12642E+2
  -5.25605E+2  -3.47944E+2
  -1.05084E+2  -4.74696E+2
   6.03564E+2  -2.11886E+2
   3.43436E+2   2.70336E+2
  -8.20545E+1   2.64052E+2
  -2.88024E+2   2.71741E+1
  -1.37032E+2  -1.34540E+2
  -4.56055E+1  -7.18600E+1
  -8.92941E+1  -1.32398E+2
  -2.15416E+2  -4.06755E+1
   2.61157E+1  -3.09825E+2
   1.55968E+2  -1.81659E+2
   1.07556E+2   2.69184E+2
  -1.97334E+2   3.46040E+2
  -3.59123E+2  -7.53933E+0
  -5.51022E+0  -3.38948E+2
   3.04537E+1  -1.62326E+2
   1.00572E+2   2.48732E+2
  -4.08399E+2   1.30678E+2
  -4.74505E+2  -2.00081E+2
  -4.98568E+1  -4.58560E+2
   3.45869E+1  -2.76748E+2
  -2.25766E+2   6.85406E+1
  -2.70608E+2   7.27560E+1
  -1.19574E+2  -9.24267E+1
   1.66713E+2  -1.78831E+2
   3.15579E+2  -2.27655E+1
  -2.81730E+2   1.28636E+2
  -6.76773E+1   7.17397E+1
  -2.24192E+2  -3.08915E+2
  -6.52887E+1   9.15521E+1
  -3.26718E+1   7.24405E+1
  -2.16245E+2   1.66918E+2
  -1.37193E+2  -1.63323E+2
  -1.04939E+2  -3.57606E+2
   7.67560E+1   9.94799E+1
  -1.03873E+2   1.86328E+2
  -2.80752E+2  -4.15502E+2
   1.05591E+1  -5.19410E+2
   2.90444E+2  -1.29099E+2
   1.81097E+2   2.64534E+2
  -7.59319E+1   3.29849E+2
  -5.45668E+2  -1.41364E+2
  -1.27948E+2  -3.95408E+2
   3.97043E+1  -3.33725E+2
  -9.71413E+1   4.79001E+1
   4.98399E+1  -1.22404E+2
  -1.21008E+1  -1.26876E+2
   1.74522E+1  -9.46456E+1
   2.04455E+2   1.40647E+2
  -8.72374E+1   3.92822E+2
  -3.91160E+2   1.18148E+2
  -3.95346E+2  -5.04460E+2
   5.53215E+1  -4.20780E+2
   3.50235E+2  -1.09613E+2
   3.30000E+1   1.64236E+2
  -5.97037E+1   1.01101E+2
  -7.50402E+0   7.85026E+0
   5.45668E+1  -2.53218E+1
   1.92038E+1   1.75870E+1
  -2.93144E+2  -1.21108E+2
  -2.12282E+2   2.56935E+1
   3.06210E+2  -2.74856E+2
   3.87326E+2  -1.24092E+2
  -1.40041E+2   4.26069E+2
  -2.10787E+2   1.76501E+2
  -4.62242E+2   4.48920E+1
  -3.19734E+2  -1.47323E+2
   2.48212E+1   6.28253E+1
  -9.52868E+1   1.80860E+1
  -1.54670E+2  -6.38643E+1
   1.63340E+2  -4.49784E+2
   2.13853E+2  -1.07162E+2
  -4.11359E+0   2.43472E+2
  -1.85147E+2   2.71083E+2
  -4.71626E+2   2.23873E+1
  -1.03090E+2  -4.59184E+2
  -2.39623E+1  -2.61796E+2
   8.63578E+1   1.01589E+2
   8.21543E+1   2.61853E+2
  -1.31326E+2  -3.31571E+1
   2.32870E+1  -1.64146E+2
