 
 $NMID
 ID=''
 FMTDAT='(2E13.5)'
 TRAMP=   1.00000E+0
 VOLUME=   1.00000E+0
 $END
  -1.82268E+4  -1.77912E+4
  -2.62404E+4   5.46760E+3
   1.53132E+4   2.03905E+4
   2.63671E+4  -1.34843E+4
  -1.87824E+4  -1.37046E+4
  -1.16745E+4   1.46608E+4
   2.15890E+4  -1.41536E+3
  -5.69524E+2  -1.53988E+4
  -1.41804E+4   9.25817E+3
   1.06623E+4   9.82823E+3
   5.09095E+3  -8.84402E+3
  -1.22104E+4   4.50052E+2
   3.42719E+1   7.65766E+3
   4.35494E+3  -2.44197E+3
  -5.00799E+3  -2.78211E+3
  -6.02295E+2   5.74981E+2
   2.87204E+3  -1.83125E+3
  -1.84168E+3   7.50114E+2
   4.16835E+2   1.73502E+3
   1.61497E+3  -1.35477E+3
  -1.46081E+3  -1.87482E+2
  -8.95792E+2  -3.58854E+2
   1.94568E+3  -1.11564E+3
   1.23279E+2   1.75608E+3
  -1.82821E+3   6.74900E+2
   5.26288E+2  -2.30781E+3
   2.83802E+3   6.57284E+2
  -4.49891E+2   3.08950E+3
  -2.82946E+3  -8.86311E+1
   3.40564E+2  -1.23314E+3
   1.90673E+3   8.94250E+2
  -9.38973E+2   2.08346E+3
  -1.84530E+3   5.76483E+2
  -1.42073E+3  -1.24235E+3
  -7.68806E+2  -2.07283E+3
   1.93278E+3  -1.27711E+3
   2.50071E+3   7.32057E+2
   1.32943E+1   1.51510E+3
  -4.57097E+2   4.24168E+2
   7.96202E+2  -2.79399E+2
  -7.43559E+2   6.74911E+2
  -1.22785E+3   2.73625E+2
   3.12162E+2  -1.75928E+3
   1.64689E+3  -1.23470E+3
   1.41144E+3   1.07419E+2
   1.17904E+3   8.08572E+2
   2.96560E+2   1.27891E+3
  -1.09323E+3   1.00598E+3
  -1.84072E+3  -6.40121E+2
  -7.28008E+2  -1.23157E+3
   2.12175E+2  -1.21850E+3
   2.87065E+1  -1.02359E+3
   1.40213E+2  -4.49612E+2
   8.07264E+2   1.89466E+2
   7.81637E+2   6.65467E+1
  -2.62078E+2   7.90838E+1
  -1.04341E+3   6.50388E+2
  -1.15673E+3  -7.12728E+2
  -6.40871E+0  -2.13556E+3
   1.15336E+3  -7.29656E+2
   1.06338E+3   6.56883E+2
   5.97523E+2   1.04375E+1
   3.05820E+2   9.27145E+2
  -3.35743E+2   1.84457E+3
  -1.55370E+3   1.23401E+3
  -2.21414E+3  -9.27445E+2
  -8.30300E+2  -1.68518E+3
   7.89376E+2  -1.20554E+3
   9.13109E+2  -2.94581E+2
  -7.98113E+1   4.60309E+2
  -4.76775E+2   2.13103E+2
   2.13871E+2  -9.06200E+2
   7.27526E+2  -4.17215E+2
   5.66662E+2   9.57482E+2
  -5.55357E+1   6.11890E+2
  -2.00843E+2  -3.58073E+1
  -2.01282E+2   1.12330E+2
   3.54517E+2   6.36636E+2
   1.19337E+2   7.81878E+2
  -5.97363E+2   4.75297E+2
  -9.89492E+2   7.15564E+1
  -2.44253E+2  -3.06140E+2
   1.50318E+2  -3.23183E+2
  -3.64724E+2  -1.76036E+1
  -4.44981E+2   9.39577E+1
   2.23774E+2  -5.40664E+2
   6.46417E+2  -5.82910E+2
   3.80178E+2   4.20544E+2
   8.24006E+1   4.54767E+2
   4.96206E+2  -1.01456E+2
   7.74623E+2  -1.11831E+2
   7.08785E+2   7.94188E+2
  -1.58892E+2   1.04463E+3
  -1.12486E+3   6.68905E+2
  -8.09558E+2  -5.48876E+2
   2.56282E+2  -7.87208E+2
   5.41556E+2  -3.21157E+2
  -4.13628E+1  -8.30701E+1
  -1.29282E+2  -3.30866E+2
   5.05165E+2  -4.39542E+2
   8.86354E+2   1.39284E+2
   1.04608E+2   1.03715E+3
  -4.72713E+2   2.80688E+2
  -4.78573E+2  -5.14042E+2
   6.24192E+1  -7.02838E+2
   8.99659E+2   2.07898E+2
   5.44359E+2   7.10886E+2
  -5.82010E+2   3.64396E+2
  -1.10086E+3  -5.90517E+2
   1.06519E+2  -9.89349E+2
   1.22972E+3  -5.59386E+2
   8.86471E+2   6.68177E+2
   6.73814E+1   8.01462E+2
  -4.22565E+0   1.71583E+2
   2.64626E+2   1.49768E+2
   2.75299E+1   8.56777E+2
  -6.56420E+2   7.73581E+2
  -7.90867E+2  -2.01073E+2
  -2.42069E+2  -1.19929E+3
   5.46491E+2  -8.65157E+2
   9.79448E+2  -2.87756E+2
   5.42175E+2   3.52818E+2
   3.04500E+2   3.89724E+2
   3.46826E+2   4.94289E+2
  -1.75062E+2   5.10783E+2
  -3.79007E+2  -6.48058E+1
  -1.17883E+2  -3.89245E+2
   2.87487E+2  -2.71087E+2
   6.04716E+2   6.63082E+1
   4.33607E+2   2.67312E+2
  -2.55313E+2   3.28810E+2
  -6.03714E+2   3.51369E+1
  -3.16922E+2  -5.19734E+2
   1.31195E+2  -3.74492E+2
   5.11203E+1  -5.36288E+1
  -9.41489E+1  -2.93611E+2
  -2.16521E+1  -3.02259E+2
   4.89893E+2   1.26989E+2
   5.64679E+2   5.32765E+2
  -3.98202E+2   5.55666E+2
  -4.88235E+2  -9.04837E+1
  -4.82104E+1  -7.57024E+2
   4.13589E+2  -5.17630E+2
   7.20473E+2   1.70318E+2
  -2.21802E+2   7.17474E+2
  -2.47804E+2   4.99913E+2
  -2.38075E+2  -3.20063E+2
  -3.81688E+2   1.76954E+2
  -4.24508E+2  -1.93565E+1
  -4.39076E+2  -1.80065E+2
  -2.61762E+1  -5.92163E+2
   2.02871E+2  -5.16657E+2
   5.45200E+2  -1.11800E+2
   1.53017E+2   5.19382E+2
  -3.31567E+2   2.98297E+2
  -1.87743E+2  -1.65154E+2
   2.55280E+2  -4.45098E+1
   1.80908E+1   2.45446E+2
  -1.73144E+2   3.59141E+2
  -1.76127E+2   1.28042E+2
  -2.29876E+1   1.10942E+2
  -2.68574E+2   1.97264E+2
  -4.37876E+2   4.18131E+2
  -4.91747E+2  -1.92961E+2
  -2.57850E+1  -4.76469E+2
   1.06014E+2  -8.39311E+1
   9.34792E+1   8.03646E+1
  -3.60429E+1   1.44837E+2
   1.34472E+2   7.90858E+0
  -1.58304E+1  -8.12839E+1
   1.60396E+2  -4.98452E+1
   1.00222E+1   2.00896E+2
  -2.27294E+2   4.65391E+2
  -2.91714E+2   1.46725E+2
  -4.83946E+0  -1.85633E+2
   2.17932E+2   3.28949E+2
   2.57539E+1   6.93833E+2
  -5.48426E+2   3.10043E+1
  -4.05516E+2  -6.31838E+2
   5.42690E+2  -2.56437E+2
   4.21769E+2   4.53121E+2
  -1.17853E+2   3.54021E+2
  -4.75687E+2   1.47137E+2
  -6.81165E+1   7.69565E+1
  -8.45358E+1  -1.27779E+2
  -9.88561E+1  -1.59999E+2
  -2.34821E+2  -4.10307E+2
   1.53523E+2  -3.27933E+2
   4.77431E+2  -4.03350E+2
   6.98067E+2   2.67686E+2
   1.38758E+2   7.07688E+2
  -4.42371E+2   3.29489E+2
  -4.82024E+2  -1.18969E+2
  -1.32142E+2  -2.94625E+2
   5.97756E+1  -3.46741E+2
   3.21317E+2  -8.90398E+1
   1.45347E+1   4.78611E+1
  -5.00001E+1  -2.71141E+1
  -1.08668E+2   2.32561E+1
  -1.45478E+2   5.53724E+1
  -3.29060E+2   2.58767E+2
  -3.96104E+2  -1.39519E+2
   2.30208E+2  -3.96576E+2
   1.66243E+2  -6.73473E+1
  -4.59095E+1   1.76239E+2
  -2.79504E+1   3.38494E+2
   4.67829E+1  -2.09282E+1
  -1.35230E+1   3.86517E+1
   1.10430E+2   1.06821E+2
   3.85053E+1   1.69595E+1
  -7.27222E+1  -1.47846E+2
   3.13712E+1  -5.48494E+1
   5.56306E+2   4.17506E+1
   1.55830E+2   3.50028E+2
  -1.84960E+2   5.78900E+2
  -6.68283E+2  -2.75190E+2
  -3.49293E+2  -4.52238E+2
   1.95468E+2  -2.47157E+2
   1.17697E+2  -1.36685E+1
   1.36470E+2  -2.10553E+1
   1.81300E+2  -1.87597E+2
   2.28707E+2   7.57828E+1
  -6.66858E+0  -1.24727E+2
  -6.50389E+1   2.35952E+2
  -4.69974E+2  -7.27482E+1
  -5.72418E+1  -4.06766E+2
   2.20302E+2  -1.20933E+2
   2.57230E+2   1.66996E+2
  -1.81943E+2   4.54414E+2
  -1.42468E+2  -6.18594E+1
  -2.38961E+2  -2.86623E+2
   1.11236E+2  -1.00519E+2
   7.16380E+1   2.56269E+2
  -1.83687E+2   4.03680E+1
  -1.70438E+2  -2.21432E+2
  -1.90551E+2  -6.61422E+1
   1.44454E+2  -7.17052E+0
  -7.39745E+0   2.65303E+2
  -1.46120E+2   2.07085E+1
  -3.94442E+1  -4.15758E+1
   2.08757E+2   1.45407E+2
  -6.92645E+1   1.34353E+2
  -5.14903E+0   1.70724E+2
  -4.96884E+2   8.53297E+0
  -2.44846E+2  -1.94856E+2
   5.20075E+1  -8.74129E-1
  -1.04208E+2   5.32933E+1
  -3.76945E+2   1.53712E+0
  -2.36236E+2  -2.49492E+2
   5.23148E+1  -1.33326E+2
  -4.66048E+1   1.99489E+2
  -2.81126E+2   4.34385E+1
  -3.78966E+2  -5.68406E+1
  -1.10126E+2  -3.52577E+2
   2.03753E+1  -1.18275E+2
   3.23689E+2  -1.69495E+2
   8.51227E+1   1.47597E+2
  -8.79563E+1  -1.38685E+2
  -6.70129E+1   1.58540E+1
  -8.74923E+1   7.39925E+1
  -1.62923E+2   1.02282E+2
  -3.33628E+2  -7.66046E+1
  -4.03291E+1  -4.14407E+2
   4.41584E+2  -5.43775E+2
   1.81773E+2  -8.00801E+0
  -9.79629E+1   4.68367E+2
  -2.31644E+2   9.69943E+1
  -3.26362E+2  -2.02979E+2
  -1.09902E+2  -2.19122E+2
  -1.23496E+2  -2.40102E+2
   4.63303E+1   6.67004E+1
   1.24711E+2  -2.19597E+2
   1.67297E+2  -3.53051E+2
   7.30692E+1   7.30030E+0
   1.43678E+2   8.82824E+1
  -4.12618E+2   1.73141E+1
  -1.48592E+2  -1.74521E+2
  -1.61878E+2  -4.05331E+2
  -2.61512E+1  -1.95729E+2
   4.64138E+1  -1.92943E+2
  -2.94550E+2  -3.85185E+1
   3.94340E+1   8.18424E+1
   2.82082E+2  -1.67660E+2
  -2.93754E+1   4.78151E+1
  -2.78896E+2   8.81070E+1
  -4.76462E+2  -1.03866E+2
   1.83333E+2  -4.33597E+2
   2.90921E+2  -4.03132E+2
   2.03168E+2   1.93051E+2
   6.61479E+1   3.15143E+2
  -4.43032E+1  -2.82015E+2
  -1.83384E+2   1.03340E+2
  -2.09638E+2  -9.77959E+1
  -2.24994E+2   1.88736E+2
  -1.47054E+2  -4.38886E+1
  -6.93579E+1  -2.95938E+1
  -3.83910E+1  -6.04165E+1
  -5.05088E+1   1.92454E+2
  -2.98510E+2   1.65216E+2
  -2.48657E+2  -5.95607E+1
  -2.24240E+2  -2.85439E+2
   1.41908E+2  -6.44389E+1
  -9.44071E+1   1.27511E+2
  -2.00152E+2   1.05691E+2
  -1.90758E+2  -1.93627E+2
  -1.34385E+2  -3.87759E+2
  -1.47357E+2  -1.41973E+2
  -8.99563E+0  -1.53855E+2
  -5.81935E+1   1.29135E+2
  -1.29956E+2  -1.60010E+1
   6.24581E+1  -5.10027E+1
  -3.45954E+1  -1.20377E+2
  -1.01634E+2   9.54622E+1
  -2.27167E+2  -9.58854E+1
  -2.38918E+2  -6.30152E+1
  -1.81420E+2   3.35313E+1
  -4.73900E+1   2.20970E+1
  -9.56176E+0  -5.67974E+0
  -1.68483E+2   1.01970E+2
  -1.43670E+2  -3.00140E+2
  -1.71268E+2  -6.02202E+1
  -9.61968E+1   2.63075E+2
  -2.22609E+2  -2.04135E+2
  -6.07284E+1  -2.56966E+2
   4.18564E+1  -5.55110E+1
  -4.15416E+0   2.25877E+2
   1.08288E+2   2.22032E+2
  -3.31201E+2   1.11093E+2
  -2.91671E+2  -1.04212E+2
   7.73883E+0  -2.76964E+2
  -6.10233E+1   1.93758E+1
  -3.39630E+1   1.23373E+2
  -1.65947E+2  -2.68468E+2
   2.76609E+2  -8.29620E+1
   1.08595E+2   3.52925E+2
  -1.93367E+2   3.60912E+2
  -1.68731E+2   3.83888E+1
  -3.82905E+2  -2.25352E+2
  -4.66455E+1  -1.85102E+2
   2.17133E+2   5.09150E+1
  -4.00530E+0   4.98749E+1
   1.27074E+2  -5.68957E+1
  -2.99307E+2  -7.24827E+1
  -3.15902E+1   4.41872E+1
   2.12881E+2  -9.40420E+1
  -9.10644E+1   1.87726E+1
  -6.97608E+0  -1.81413E+2
   2.42079E+2  -1.58088E+2
   4.99142E+1  -1.31735E+2
  -8.13145E+1   1.74609E+2
  -7.25626E+1   7.18649E+1
  -2.58378E+2  -1.42379E+2
  -7.04154E+1  -2.44787E+2
  -7.82996E+1  -3.02784E+1
  -2.86756E+2   7.19583E+1
  -6.78071E+1  -1.67285E+2
  -2.50182E-1  -2.43342E+2
   3.59624E+1  -5.62131E+1
  -1.29773E+2   1.61035E+2
  -1.68648E+2   3.47693E+1
  -3.45466E+2  -1.77574E+1
  -1.46569E+2  -3.40209E+2
  -1.25238E+2  -9.17463E+1
   1.83356E+2  -6.53250E+0
   8.63106E+1   1.98226E+2
  -8.17958E+1  -5.40230E+1
   3.17489E+1   1.02968E+2
