 
 $NMID
 ID=''
 FMTDAT='(2E13.5)'
 TRAMP=   1.00000E+0
 VOLUME=   1.00000E+0
 $END
   2.10275E+5   5.90132E+5
   2.52787E+3   1.68474E+6
   2.17754E+5   1.64741E+6
   1.13378E+5   1.53335E+6
   1.40115E+4   1.57726E+6
  -1.74285E+4   1.54620E+6
  -1.00695E+5   1.52545E+6
  -1.21608E+5   1.57791E+6
  -9.28611E+4   1.53731E+6
  -1.50859E+5   1.48412E+6
  -2.05171E+5   1.49133E+6
  -2.24301E+5   1.47217E+6
  -2.58957E+5   1.45995E+6
  -2.63933E+5   1.46577E+6
  -2.68064E+5   1.42566E+6
  -3.08659E+5   1.39140E+6
  -3.41444E+5   1.39610E+6
  -3.67541E+5   1.37685E+6
  -4.09102E+5   1.35355E+6
  -4.32322E+5   1.33898E+6
  -4.58223E+5   1.30403E+6
  -4.99019E+5   1.27994E+6
  -5.23426E+5   1.26976E+6
  -5.44490E+5   1.24374E+6
  -5.71484E+5   1.21739E+6
  -5.80093E+5   1.20141E+6
  -5.95211E+5   1.17740E+6
  -6.16990E+5   1.15778E+6
  -6.26940E+5   1.14070E+6
  -6.36650E+5   1.11873E+6
  -6.60517E+5   1.09659E+6
  -6.77568E+5   1.07111E+6
  -6.95717E+5   1.04150E+6
  -7.17378E+5   1.01965E+6
  -7.34907E+5   9.95714E+5
  -7.53016E+5   9.66199E+5
  -7.73649E+5   9.41020E+5
  -7.91203E+5   9.14066E+5
  -8.05698E+5   8.84461E+5
  -8.18413E+5   8.62404E+5
  -8.26769E+5   8.39938E+5
  -8.35931E+5   8.14663E+5
  -8.43718E+5   7.92190E+5
  -8.50770E+5   7.70977E+5
  -8.58893E+5   7.48672E+5
  -8.68674E+5   7.28145E+5
  -8.77748E+5   7.03153E+5
  -8.87196E+5   6.74733E+5
  -8.95292E+5   6.46979E+5
  -9.04042E+5   6.21493E+5
  -9.13588E+5   5.95233E+5
  -9.22021E+5   5.68079E+5
  -9.29344E+5   5.41769E+5
  -9.37827E+5   5.16234E+5
  -9.43364E+5   4.90314E+5
  -9.47150E+5   4.65238E+5
  -9.50989E+5   4.40618E+5
  -9.53628E+5   4.17121E+5
  -9.55118E+5   3.94781E+5
  -9.57688E+5   3.73015E+5
  -9.60391E+5   3.50362E+5
  -9.62085E+5   3.27458E+5
  -9.63975E+5   3.03138E+5
  -9.64731E+5   2.77859E+5
  -9.64570E+5   2.53447E+5
  -9.63129E+5   2.29940E+5
  -9.61236E+5   2.06997E+5
  -9.59012E+5   1.83613E+5
  -9.58417E+5   1.61121E+5
  -9.57331E+5   1.38786E+5
  -9.54146E+5   1.16310E+5
  -9.49266E+5   9.59594E+4
  -9.45577E+5   7.66174E+4
  -9.42042E+5   5.52533E+4
  -9.37028E+5   3.34360E+4
  -9.31185E+5   1.35976E+4
  -9.25783E+5  -5.41847E+3
  -9.19894E+5  -2.63195E+4
  -9.12073E+5  -4.81478E+4
  -9.04978E+5  -6.90799E+4
  -8.97764E+5  -8.95233E+4
  -8.89325E+5  -1.08537E+5
  -8.80518E+5  -1.27493E+5
  -8.71171E+5  -1.46990E+5
  -8.61803E+5  -1.66203E+5
  -8.52141E+5  -1.83164E+5
  -8.42607E+5  -1.99249E+5
  -8.32258E+5  -2.14887E+5
  -8.21683E+5  -2.30718E+5
  -8.10747E+5  -2.45537E+5
  -8.00310E+5  -2.59977E+5
  -7.89907E+5  -2.74771E+5
  -7.78072E+5  -2.89821E+5
  -7.65412E+5  -3.04419E+5
  -7.52096E+5  -3.18373E+5
  -7.39672E+5  -3.32185E+5
  -7.28004E+5  -3.45771E+5
  -7.15756E+5  -3.59195E+5
  -7.02181E+5  -3.71820E+5
  -6.88600E+5  -3.83610E+5
  -6.76126E+5  -3.95325E+5
  -6.62984E+5  -4.07473E+5
  -6.48703E+5  -4.18041E+5
  -6.34820E+5  -4.26964E+5
  -6.21704E+5  -4.35400E+5
  -6.09142E+5  -4.44610E+5
  -5.95902E+5  -4.54161E+5
  -5.81520E+5  -4.62972E+5
  -5.66847E+5  -4.70589E+5
  -5.53695E+5  -4.77126E+5
  -5.40341E+5  -4.84518E+5
  -5.26250E+5  -4.92813E+5
  -5.11682E+5  -5.00671E+5
  -4.96899E+5  -5.07475E+5
  -4.82781E+5  -5.14147E+5
  -4.68383E+5  -5.20692E+5
  -4.53567E+5  -5.26841E+5
  -4.38663E+5  -5.32297E+5
  -4.24629E+5  -5.36164E+5
  -4.11341E+5  -5.40240E+5
  -3.98218E+5  -5.44684E+5
  -3.84604E+5  -5.49256E+5
  -3.70739E+5  -5.53328E+5
  -3.56802E+5  -5.57251E+5
  -3.42486E+5  -5.60318E+5
  -3.28622E+5  -5.62703E+5
  -3.14549E+5  -5.64833E+5
  -3.01248E+5  -5.67110E+5
  -2.87695E+5  -5.69253E+5
  -2.73849E+5  -5.71410E+5
  -2.59429E+5  -5.73463E+5
  -2.45050E+5  -5.74716E+5
  -2.31552E+5  -5.74975E+5
  -2.18422E+5  -5.75635E+5
  -2.04829E+5  -5.76143E+5
  -1.91077E+5  -5.75989E+5
  -1.78018E+5  -5.74970E+5
  -1.65704E+5  -5.74803E+5
  -1.52546E+5  -5.74409E+5
  -1.38820E+5  -5.73079E+5
  -1.25892E+5  -5.71221E+5
  -1.13933E+5  -5.69089E+5
  -1.02038E+5  -5.67144E+5
  -9.02311E+4  -5.65146E+5
  -7.81912E+4  -5.62935E+5
  -6.64122E+4  -5.59686E+5
  -5.44943E+4  -5.56066E+5
  -4.33813E+4  -5.52498E+5
  -3.25099E+4  -5.48370E+5
  -2.23236E+4  -5.44550E+5
  -1.19965E+4  -5.39894E+5
  -1.85851E+3  -5.35735E+5
   7.59748E+3  -5.31462E+5
   1.70832E+4  -5.26905E+5
   2.72607E+4  -5.22497E+5
   3.65915E+4  -5.16689E+5
   4.52529E+4  -5.11605E+5
   5.41630E+4  -5.06578E+5
   6.28775E+4  -5.00926E+5
   7.10306E+4  -4.95165E+5
   7.93205E+4  -4.89516E+5
   8.74558E+4  -4.83553E+5
   9.57603E+4  -4.77432E+5
   1.03174E+5  -4.70430E+5
   1.10040E+5  -4.64237E+5
   1.16599E+5  -4.58418E+5
   1.23558E+5  -4.52086E+5
   1.30854E+5  -4.45816E+5
   1.37419E+5  -4.38943E+5
   1.43462E+5  -4.32692E+5
   1.49235E+5  -4.26070E+5
   1.55127E+5  -4.19256E+5
   1.61046E+5  -4.12604E+5
   1.66612E+5  -4.05885E+5
   1.72033E+5  -3.98777E+5
   1.77168E+5  -3.92367E+5
   1.82884E+5  -3.85584E+5
   1.88262E+5  -3.78062E+5
   1.92784E+5  -3.70461E+5
   1.97467E+5  -3.63610E+5
   2.02310E+5  -3.57173E+5
   2.07228E+5  -3.50282E+5
   2.11411E+5  -3.42729E+5
   2.15674E+5  -3.35503E+5
   2.19667E+5  -3.28412E+5
   2.23476E+5  -3.21295E+5
   2.26989E+5  -3.14268E+5
   2.30108E+5  -3.07112E+5
   2.33233E+5  -3.00415E+5
   2.36351E+5  -2.94101E+5
   2.40095E+5  -2.87249E+5
   2.43395E+5  -2.79682E+5
   2.46114E+5  -2.72123E+5
   2.48751E+5  -2.64957E+5
   2.51037E+5  -2.58083E+5
   2.53840E+5  -2.51085E+5
   2.56366E+5  -2.43866E+5
   2.58430E+5  -2.36720E+5
   2.60688E+5  -2.29622E+5
   2.62749E+5  -2.22455E+5
   2.64617E+5  -2.14712E+5
   2.66159E+5  -2.07647E+5
   2.66758E+5  -2.00429E+5
   2.68108E+5  -1.93898E+5
   2.69477E+5  -1.86840E+5
   2.70921E+5  -1.79717E+5
   2.71397E+5  -1.72446E+5
   2.72065E+5  -1.65699E+5
   2.72368E+5  -1.58983E+5
   2.72923E+5  -1.51636E+5
   2.73268E+5  -1.44918E+5
   2.73107E+5  -1.38166E+5
   2.73153E+5  -1.31811E+5
   2.73293E+5  -1.24887E+5
   2.73250E+5  -1.18071E+5
   2.72626E+5  -1.11292E+5
   2.71578E+5  -1.04970E+5
   2.70639E+5  -9.86445E+4
   2.69736E+5  -9.29964E+4
   2.68639E+5  -8.68159E+4
   2.67933E+5  -8.07030E+4
   2.66168E+5  -7.49535E+4
   2.65048E+5  -6.90657E+4
   2.63811E+5  -6.31877E+4
   2.62263E+5  -5.75243E+4
   2.60055E+5  -5.17654E+4
   2.57948E+5  -4.68165E+4
   2.56579E+5  -4.15643E+4
   2.54882E+5  -3.61330E+4
   2.52710E+5  -3.07462E+4
   2.50506E+5  -2.56655E+4
   2.48338E+5  -2.09013E+4
   2.46047E+5  -1.63492E+4
   2.43975E+5  -1.13663E+4
   2.41253E+5  -6.95493E+3
   2.38814E+5  -2.81829E+3
   2.36706E+5   1.47241E+3
   2.34163E+5   5.95618E+3
   2.31467E+5   1.03001E+4
   2.28866E+5   1.42626E+4
   2.26571E+5   1.77358E+4
   2.24096E+5   2.18006E+4
   2.21353E+5   2.56267E+4
   2.18371E+5   2.96322E+4
   2.15682E+5   3.33190E+4
   2.12926E+5   3.67223E+4
   2.10273E+5   4.03772E+4
   2.07570E+5   4.38234E+4
   2.04509E+5   4.69338E+4
   2.01659E+5   4.99148E+4
   1.99186E+5   5.28302E+4
   1.96292E+5   5.61001E+4
   1.93541E+5   5.92467E+4
   1.90391E+5   6.19277E+4
   1.87321E+5   6.44998E+4
   1.84709E+5   6.72217E+4
   1.81632E+5   6.96959E+4
   1.79045E+5   7.27370E+4
   1.75912E+5   7.53052E+4
   1.73085E+5   7.81371E+4
   1.70201E+5   8.05943E+4
   1.66673E+5   8.32397E+4
   1.63261E+5   8.50670E+4
   1.60284E+5   8.69140E+4
   1.57683E+5   8.92555E+4
   1.54558E+5   9.14067E+4
   1.51613E+5   9.36899E+4
   1.48356E+5   9.56094E+4
   1.45207E+5   9.69802E+4
   1.41952E+5   9.88427E+4
   1.38907E+5   1.00359E+5
   1.35913E+5   1.01880E+5
   1.32892E+5   1.03369E+5
   1.29842E+5   1.04823E+5
   1.26671E+5   1.06602E+5
   1.23563E+5   1.07775E+5
   1.20154E+5   1.09008E+5
   1.17092E+5   1.09885E+5
   1.14139E+5   1.11038E+5
   1.11030E+5   1.11784E+5
   1.08097E+5   1.12921E+5
   1.04871E+5   1.13866E+5
   1.01836E+5   1.14231E+5
   9.87875E+4   1.15182E+5
   9.57404E+4   1.16046E+5
   9.26050E+4   1.16255E+5
   8.99338E+4   1.16539E+5
   8.68370E+4   1.16971E+5
   8.42956E+4   1.17472E+5
   8.12496E+4   1.18027E+5
   7.81726E+4   1.17975E+5
   7.51187E+4   1.18370E+5
   7.25164E+4   1.18417E+5
   6.96436E+4   1.18466E+5
   6.69142E+4   1.18540E+5
   6.40085E+4   1.18529E+5
   6.15584E+4   1.18558E+5
   5.86737E+4   1.18269E+5
   5.59913E+4   1.18170E+5
   5.33141E+4   1.18219E+5
   5.05086E+4   1.17795E+5
   4.84891E+4   1.17379E+5
   4.58118E+4   1.17167E+5
   4.33440E+4   1.16762E+5
   4.06337E+4   1.16332E+5
   3.81337E+4   1.15858E+5
   3.58850E+4   1.15259E+5
   3.34663E+4   1.14799E+5
   3.12488E+4   1.14358E+5
   2.89146E+4   1.13768E+5
   2.65484E+4   1.13095E+5
   2.44776E+4   1.12719E+5
   2.20894E+4   1.12093E+5
   2.00643E+4   1.11282E+5
   1.78594E+4   1.10499E+5
   1.61013E+4   1.09486E+5
   1.38442E+4   1.08843E+5
   1.18934E+4   1.07827E+5
   9.78277E+3   1.07109E+5
   8.18411E+3   1.06037E+5
   6.25225E+3   1.05303E+5
   4.48634E+3   1.04534E+5
   2.51513E+3   1.03209E+5
   8.76573E+2   1.02306E+5
  -9.17191E+2   1.01157E+5
  -2.32839E+3   1.00249E+5
  -4.14244E+3   9.93525E+4
  -5.65827E+3   9.84275E+4
  -7.14999E+3   9.72231E+4
  -8.74684E+3   9.59502E+4
  -1.03483E+4   9.47392E+4
  -1.15101E+4   9.35406E+4
  -1.31091E+4   9.24355E+4
  -1.43079E+4   9.12275E+4
  -1.56930E+4   9.01620E+4
  -1.69768E+4   8.89255E+4
  -1.83123E+4   8.78640E+4
  -1.95945E+4   8.66136E+4
  -2.09525E+4   8.50396E+4
  -2.19077E+4   8.37173E+4
  -2.28300E+4   8.27018E+4
  -2.39893E+4   8.13682E+4
  -2.51309E+4   8.01567E+4
  -2.60892E+4   7.91412E+4
  -2.69552E+4   7.74254E+4
  -2.79928E+4   7.60783E+4
  -2.89367E+4   7.49118E+4
  -2.97148E+4   7.34933E+4
  -3.02664E+4   7.23296E+4
  -3.09629E+4   7.09214E+4
  -3.20083E+4   6.95708E+4
  -3.29604E+4   6.80529E+4
  -3.34838E+4   6.67686E+4
  -3.41474E+4   6.53391E+4
  -3.46533E+4   6.42630E+4
  -3.56420E+4   6.28163E+4
  -3.58330E+4   6.13171E+4
  -3.64812E+4   6.00300E+4
  -3.69108E+4   5.87550E+4
  -3.75031E+4   5.73810E+4
  -3.80905E+4   5.61479E+4
  -3.84774E+4   5.47398E+4
  -3.86150E+4   5.35843E+4
  -3.93458E+4   5.20925E+4
  -3.93357E+4   5.09319E+4
  -3.97748E+4   4.95918E+4
  -4.01918E+4   4.81285E+4
