 
 $NMID
 ID=''
 FMTDAT='(2E13.5)'
 TRAMP=   1.00000E+0
 VOLUME=   1.00000E+0
 $END
   7.21042E+5   2.13956E+5
   1.54281E+6   1.25066E+6
   1.61918E+6   1.07159E+6
   1.48925E+6   1.07726E+6
   1.55755E+6   1.11213E+6
   1.59622E+6   9.96788E+5
   1.55481E+6   9.69425E+5
   1.58464E+6   9.93417E+5
   1.58059E+6   9.48100E+5
   1.53396E+6   9.55018E+5
   1.54300E+6   9.69851E+5
   1.52840E+6   9.37037E+5
   1.49480E+6   9.42609E+5
   1.49383E+6   9.58244E+5
   1.46534E+6   9.44783E+5
   1.43145E+6   9.50091E+5
   1.43625E+6   9.51705E+5
   1.42397E+6   9.30120E+5
   1.40370E+6   9.20516E+5
   1.41126E+6   9.00361E+5
   1.39819E+6   8.77046E+5
   1.37867E+6   8.73107E+5
   1.37529E+6   8.63275E+5
   1.35996E+6   8.44716E+5
   1.33758E+6   8.42807E+5
   1.32770E+6   8.32244E+5
   1.30639E+6   8.26578E+5
   1.28140E+6   8.34673E+5
   1.26200E+6   8.33496E+5
   1.24183E+6   8.20830E+5
   1.22563E+6   8.16982E+5
   1.21375E+6   8.05582E+5
   1.19564E+6   7.91316E+5
   1.18153E+6   7.81057E+5
   1.17098E+6   7.62945E+5
   1.15994E+6   7.41379E+5
   1.15129E+6   7.28039E+5
   1.14027E+6   7.15127E+5
   1.12057E+6   7.01981E+5
   1.10459E+6   6.93693E+5
   1.08822E+6   6.85831E+5
   1.06802E+6   6.77837E+5
   1.04909E+6   6.69966E+5
   1.03213E+6   6.62769E+5
   1.01192E+6   6.56879E+5
   9.93917E+5   6.51550E+5
   9.77442E+5   6.43855E+5
   9.59390E+5   6.36209E+5
   9.41789E+5   6.24144E+5
   9.26995E+5   6.11689E+5
   9.12221E+5   6.00479E+5
   8.97370E+5   5.90389E+5
   8.82268E+5   5.78614E+5
   8.67149E+5   5.68239E+5
   8.51498E+5   5.58890E+5
   8.34751E+5   5.50280E+5
   8.16423E+5   5.42682E+5
   7.98788E+5   5.34622E+5
   7.81784E+5   5.25454E+5
   7.65885E+5   5.17236E+5
   7.49951E+5   5.09049E+5
   7.34090E+5   5.01110E+5
   7.18669E+5   4.92366E+5
   7.02458E+5   4.84126E+5
   6.86875E+5   4.74148E+5
   6.71446E+5   4.63653E+5
   6.56480E+5   4.53298E+5
   6.41909E+5   4.43787E+5
   6.27232E+5   4.34546E+5
   6.12828E+5   4.26529E+5
   5.97559E+5   4.18916E+5
   5.81840E+5   4.10184E+5
   5.67319E+5   4.01311E+5
   5.53098E+5   3.93545E+5
   5.38214E+5   3.86319E+5
   5.23299E+5   3.77697E+5
   5.09356E+5   3.68963E+5
   4.96131E+5   3.60592E+5
   4.82300E+5   3.52402E+5
   4.68804E+5   3.43769E+5
   4.55226E+5   3.35537E+5
   4.41951E+5   3.27168E+5
   4.28760E+5   3.19542E+5
   4.16020E+5   3.12413E+5
   4.02224E+5   3.05575E+5
   3.89118E+5   2.99048E+5
   3.75853E+5   2.92301E+5
   3.63404E+5   2.86189E+5
   3.50883E+5   2.79656E+5
   3.38821E+5   2.73332E+5
   3.27117E+5   2.66431E+5
   3.16100E+5   2.59830E+5
   3.05508E+5   2.53052E+5
   2.95021E+5   2.46556E+5
   2.84580E+5   2.39462E+5
   2.74667E+5   2.32428E+5
   2.65370E+5   2.25814E+5
   2.56262E+5   2.19703E+5
   2.46669E+5   2.13922E+5
   2.37732E+5   2.07562E+5
   2.28748E+5   2.01830E+5
   2.19912E+5   1.96748E+5
   2.11150E+5   1.91518E+5
   2.02647E+5   1.85842E+5
   1.94617E+5   1.80499E+5
   1.86870E+5   1.75396E+5
   1.79297E+5   1.70342E+5
   1.72279E+5   1.65835E+5
   1.65089E+5   1.60990E+5
   1.57987E+5   1.55462E+5
   1.51594E+5   1.50463E+5
   1.45455E+5   1.45646E+5
   1.39128E+5   1.41444E+5
   1.32693E+5   1.37046E+5
   1.26789E+5   1.32446E+5
   1.21181E+5   1.28060E+5
   1.15574E+5   1.24267E+5
   1.10017E+5   1.19777E+5
   1.04862E+5   1.15609E+5
   1.00354E+5   1.11289E+5
   9.55438E+4   1.07527E+5
   9.10786E+4   1.03496E+5
   8.66778E+4   9.97964E+4
   8.21817E+4   9.61054E+4
   7.77666E+4   9.24096E+4
   7.36985E+4   8.88804E+4
   6.98029E+4   8.50582E+4
   6.59880E+4   8.18372E+4
   6.19309E+4   7.87565E+4
   5.79882E+4   7.55294E+4
   5.46638E+4   7.27154E+4
   5.08305E+4   6.93151E+4
   4.73478E+4   6.63703E+4
   4.39329E+4   6.33978E+4
   4.03094E+4   6.04303E+4
   3.73128E+4   5.77416E+4
   3.43251E+4   5.48786E+4
   3.13677E+4   5.21405E+4
   2.85981E+4   4.94997E+4
   2.55164E+4   4.69824E+4
   2.30564E+4   4.45140E+4
   2.05949E+4   4.21518E+4
   1.77856E+4   3.99449E+4
   1.53823E+4   3.77968E+4
   1.27333E+4   3.57236E+4
   1.06322E+4   3.36475E+4
   8.40716E+3   3.17074E+4
   6.19691E+3   2.98758E+4
   4.14702E+3   2.80788E+4
   2.05137E+3   2.64354E+4
   1.99686E+2   2.48283E+4
  -1.85245E+3   2.33540E+4
  -4.03188E+3   2.17265E+4
  -5.77713E+3   2.05319E+4
  -7.40836E+3   1.88556E+4
  -8.95108E+3   1.75066E+4
  -1.04924E+4   1.63897E+4
  -1.20883E+4   1.52894E+4
  -1.32138E+4   1.43255E+4
  -1.48341E+4   1.30497E+4
  -1.63531E+4   1.20678E+4
  -1.72556E+4   1.10358E+4
  -1.84354E+4   1.03924E+4
  -1.95112E+4   9.38840E+3
  -2.06372E+4   8.96021E+3
  -2.16567E+4   8.18879E+3
  -2.27624E+4   7.81642E+3
  -2.37191E+4   7.05537E+3
  -2.45687E+4   6.42702E+3
  -2.54828E+4   6.19547E+3
  -2.61328E+4   5.69906E+3
  -2.68852E+4   5.31753E+3
  -2.75956E+4   5.06640E+3
  -2.78783E+4   4.37929E+3
  -2.88399E+4   4.32452E+3
  -2.92907E+4   4.10081E+3
  -2.99688E+4   3.77143E+3
  -3.04711E+4   3.49537E+3
  -3.07608E+4   3.34272E+3
  -3.12032E+4   3.18118E+3
  -3.17892E+4   3.20889E+3
  -3.22813E+4   3.18924E+3
  -3.24003E+4   2.58028E+3
  -3.27285E+4   2.36921E+3
  -3.30152E+4   2.54440E+3
  -3.32791E+4   2.39265E+3
  -3.35100E+4   2.49719E+3
  -3.36767E+4   2.05575E+3
  -3.40969E+4   2.31776E+3
  -3.42765E+4   2.35881E+3
  -3.46078E+4   2.07150E+3
  -3.48004E+4   1.95808E+3
  -3.49114E+4   1.99597E+3
  -3.48857E+4   1.81701E+3
  -3.53836E+4   1.78929E+3
  -3.55172E+4   1.74396E+3
  -3.54764E+4   1.95826E+3
  -3.57434E+4   1.65474E+3
  -3.56007E+4   1.58623E+3
  -3.57775E+4   1.63654E+3
  -3.57646E+4   1.39247E+3
  -3.56891E+4   1.45776E+3
  -3.57077E+4   1.44329E+3
  -3.57845E+4   1.54560E+3
  -3.62430E+4   1.41569E+3
  -3.61207E+4   1.04453E+3
  -3.61509E+4   7.62080E+2
  -3.63096E+4   9.91650E+2
  -3.62929E+4   7.31086E+2
  -3.64269E+4   6.97141E+2
  -3.63104E+4   4.76818E+2
  -3.64321E+4   4.26077E+2
  -3.64957E+4   4.26732E+2
  -3.65544E+4   5.02754E+1
  -3.65978E+4   3.24702E+1
  -3.63484E+4  -1.21338E+2
  -3.66083E+4  -1.79493E+2
  -3.66439E+4  -4.58322E+2
  -3.67727E+4  -4.20416E+2
  -3.66639E+4  -6.33378E+2
  -3.68425E+4  -7.90650E+2
  -3.69716E+4  -7.69409E+2
  -3.70245E+4  -9.42258E+2
  -3.70719E+4  -1.08557E+3
  -3.72293E+4  -1.40993E+3
  -3.69026E+4  -1.44268E+3
  -3.69354E+4  -1.61602E+3
  -3.73292E+4  -1.45914E+3
  -3.71631E+4  -1.53080E+3
  -3.73476E+4  -1.80694E+3
  -3.72277E+4  -1.99933E+3
  -3.73144E+4  -2.11365E+3
  -3.71866E+4  -1.90589E+3
  -3.72360E+4  -2.36780E+3
  -3.71339E+4  -1.94009E+3
  -3.74699E+4  -2.15028E+3
  -3.74478E+4  -2.46805E+3
  -3.74624E+4  -2.42171E+3
  -3.74085E+4  -2.47362E+3
  -3.70861E+4  -2.56892E+3
  -3.72304E+4  -2.48788E+3
  -3.71216E+4  -2.38848E+3
  -3.70450E+4  -2.44984E+3
  -3.72646E+4  -2.67510E+3
  -3.71525E+4  -2.60621E+3
  -3.70919E+4  -2.65854E+3
  -3.72293E+4  -2.96763E+3
  -3.69762E+4  -2.67582E+3
  -3.69347E+4  -2.69742E+3
  -3.67628E+4  -2.66624E+3
  -3.67395E+4  -2.53219E+3
  -3.66533E+4  -2.75173E+3
  -3.64877E+4  -2.71243E+3
  -3.61194E+4  -2.72669E+3
  -3.58689E+4  -2.76302E+3
  -3.57570E+4  -2.58304E+3
  -3.58244E+4  -2.76187E+3
  -3.54466E+4  -2.85844E+3
  -3.51755E+4  -2.76607E+3
  -3.51746E+4  -3.05426E+3
  -3.46564E+4  -3.30504E+3
  -3.45798E+4  -3.30462E+3
  -3.41073E+4  -3.39282E+3
  -3.39262E+4  -3.57710E+3
  -3.37628E+4  -3.20597E+3
  -3.35663E+4  -3.36901E+3
  -3.32976E+4  -3.53343E+3
  -3.26473E+4  -3.71842E+3
  -3.24253E+4  -3.58388E+3
  -3.21496E+4  -3.96951E+3
  -3.18571E+4  -3.87862E+3
  -3.17658E+4  -3.97551E+3
  -3.11203E+4  -3.89631E+3
  -3.08884E+4  -4.26627E+3
  -3.06211E+4  -4.32498E+3
  -3.04686E+4  -4.42236E+3
  -2.98662E+4  -4.57751E+3
  -2.93397E+4  -4.66187E+3
  -2.90911E+4  -4.78288E+3
  -2.87954E+4  -4.87908E+3
  -2.83800E+4  -5.07521E+3
  -2.82936E+4  -5.19583E+3
  -2.76164E+4  -5.42576E+3
  -2.74331E+4  -5.51328E+3
  -2.68846E+4  -5.89271E+3
  -2.66736E+4  -6.19850E+3
  -2.60426E+4  -6.05780E+3
  -2.58687E+4  -5.77224E+3
  -2.58546E+4  -5.88856E+3
  -2.56157E+4  -6.14819E+3
  -2.48588E+4  -6.32678E+3
  -2.45054E+4  -6.62889E+3
  -2.41632E+4  -6.54400E+3
  -2.40076E+4  -6.77645E+3
  -2.35726E+4  -6.95159E+3
  -2.34848E+4  -6.58430E+3
  -2.29815E+4  -7.07302E+3
  -2.26097E+4  -7.00126E+3
  -2.23145E+4  -7.00130E+3
  -2.22973E+4  -7.42750E+3
  -2.15691E+4  -7.41795E+3
  -2.14646E+4  -7.40599E+3
  -2.10207E+4  -7.61785E+3
  -2.07327E+4  -7.66651E+3
  -2.05863E+4  -7.67807E+3
  -2.00908E+4  -7.58936E+3
  -1.99790E+4  -7.84500E+3
  -1.97648E+4  -7.88782E+3
  -1.95070E+4  -7.71663E+3
  -1.91884E+4  -7.82940E+3
  -1.91281E+4  -8.00738E+3
  -1.88675E+4  -7.90659E+3
  -1.87524E+4  -8.12483E+3
  -1.83572E+4  -8.12229E+3
  -1.79868E+4  -8.17424E+3
  -1.77293E+4  -8.19685E+3
  -1.77490E+4  -8.05230E+3
  -1.72491E+4  -8.16123E+3
  -1.70987E+4  -8.42679E+3
  -1.68244E+4  -8.24371E+3
  -1.69695E+4  -8.20178E+3
  -1.67757E+4  -8.11320E+3
  -1.65274E+4  -8.25890E+3
  -1.62084E+4  -8.22543E+3
  -1.60315E+4  -7.85293E+3
  -1.57411E+4  -8.23317E+3
  -1.53686E+4  -8.25014E+3
  -1.54965E+4  -8.05443E+3
  -1.51750E+4  -7.87581E+3
  -1.46267E+4  -8.18553E+3
  -1.48091E+4  -8.17021E+3
  -1.44356E+4  -7.97938E+3
  -1.42751E+4  -7.96156E+3
  -1.41384E+4  -8.09710E+3
  -1.41463E+4  -8.04538E+3
  -1.39527E+4  -8.10167E+3
  -1.36204E+4  -7.97561E+3
  -1.35778E+4  -8.01181E+3
  -1.33265E+4  -7.67853E+3
  -1.30748E+4  -7.72758E+3
  -1.30766E+4  -7.70119E+3
  -1.27872E+4  -7.99888E+3
  -1.23900E+4  -7.64438E+3
  -1.23242E+4  -7.46645E+3
  -1.20802E+4  -7.50000E+3
  -1.19356E+4  -7.52352E+3
  -1.16948E+4  -7.14398E+3
  -1.15767E+4  -7.13750E+3
  -1.13602E+4  -7.39985E+3
  -1.15118E+4  -7.08297E+3
  -1.08999E+4  -7.16901E+3
  -1.09507E+4  -6.82979E+3
  -1.06376E+4  -6.84459E+3
  -1.04280E+4  -6.98648E+3
  -1.03002E+4  -6.83929E+3
  -9.86640E+3  -6.69674E+3
  -9.78240E+3  -6.56859E+3
  -9.83559E+3  -6.54913E+3
  -9.83522E+3  -6.39117E+3
  -9.40213E+3  -6.12117E+3
  -9.15453E+3  -6.24241E+3
  -9.19392E+3  -6.08064E+3
  -9.07128E+3  -5.97334E+3
  -8.99096E+3  -6.13678E+3
  -8.74812E+3  -5.86492E+3
  -8.73703E+3  -5.90217E+3
  -8.42779E+3  -5.71898E+3
