 
 $NMID
 ID=''
 FMTDAT='(2E13.5)'
 TRAMP=   1.00000E+0
 VOLUME=   1.00000E+0
 $END
   8.02089E+4   7.50607E+5
  -4.94413E+5   1.89160E+6
  -3.07994E+5   1.85705E+6
  -4.60600E+5   1.74805E+6
  -5.40220E+5   1.84528E+6
  -4.83513E+5   1.77584E+6
  -5.75831E+5   1.66031E+6
  -6.66399E+5   1.70963E+6
  -6.36654E+5   1.70690E+6
  -6.64975E+5   1.64002E+6
  -7.10292E+5   1.61872E+6
  -7.29786E+5   1.57801E+6
  -7.76927E+5   1.54899E+6
  -7.87656E+5   1.55147E+6
  -7.82408E+5   1.50228E+6
  -8.22990E+5   1.45575E+6
  -8.57196E+5   1.45278E+6
  -8.72264E+5   1.41406E+6
  -9.09623E+5   1.36812E+6
  -9.33743E+5   1.34478E+6
  -9.53772E+5   1.29938E+6
  -9.88971E+5   1.26114E+6
  -1.00562E+6   1.24020E+6
  -1.01774E+6   1.19936E+6
  -1.04461E+6   1.15711E+6
  -1.05275E+6   1.13569E+6
  -1.06112E+6   1.10336E+6
  -1.07787E+6   1.07524E+6
  -1.08355E+6   1.04769E+6
  -1.08917E+6   1.01288E+6
  -1.10925E+6   9.80053E+5
  -1.11769E+6   9.49882E+5
  -1.12712E+6   9.10505E+5
  -1.14143E+6   8.76104E+5
  -1.14845E+6   8.42196E+5
  -1.15666E+6   8.04927E+5
  -1.17087E+6   7.71011E+5
  -1.17849E+6   7.35375E+5
  -1.18095E+6   6.97793E+5
  -1.18627E+6   6.68523E+5
  -1.18746E+6   6.38757E+5
  -1.18814E+6   6.04986E+5
  -1.18696E+6   5.77403E+5
  -1.18610E+6   5.51933E+5
  -1.18557E+6   5.21644E+5
  -1.18614E+6   4.92846E+5
  -1.18476E+6   4.62592E+5
  -1.18502E+6   4.28389E+5
  -1.18263E+6   3.94864E+5
  -1.17881E+6   3.62446E+5
  -1.17654E+6   3.30221E+5
  -1.17504E+6   2.98256E+5
  -1.17119E+6   2.66067E+5
  -1.16725E+6   2.34946E+5
  -1.16212E+6   2.04605E+5
  -1.15667E+6   1.74690E+5
  -1.14947E+6   1.45053E+5
  -1.14076E+6   1.17417E+5
  -1.13150E+6   9.20846E+4
  -1.12475E+6   6.55301E+4
  -1.11725E+6   3.82061E+4
  -1.10728E+6   1.16245E+4
  -1.09797E+6  -1.48095E+4
  -1.08900E+6  -4.25400E+4
  -1.07726E+6  -7.06778E+4
  -1.06374E+6  -9.61495E+4
  -1.05136E+6  -1.20638E+5
  -1.03976E+6  -1.46247E+5
  -1.02821E+6  -1.70906E+5
  -1.01533E+6  -1.94622E+5
  -1.00150E+6  -2.17609E+5
  -9.87469E+5  -2.39549E+5
  -9.73807E+5  -2.60175E+5
  -9.60386E+5  -2.80780E+5
  -9.45711E+5  -3.01415E+5
  -9.29990E+5  -3.21618E+5
  -9.14338E+5  -3.41256E+5
  -8.99115E+5  -3.60577E+5
  -8.82524E+5  -3.80054E+5
  -8.64645E+5  -3.99778E+5
  -8.46699E+5  -4.17785E+5
  -8.29401E+5  -4.34652E+5
  -8.11788E+5  -4.51012E+5
  -7.93397E+5  -4.67664E+5
  -7.74412E+5  -4.82951E+5
  -7.56395E+5  -4.96523E+5
  -7.38749E+5  -5.09250E+5
  -7.20645E+5  -5.21879E+5
  -7.02142E+5  -5.33533E+5
  -6.84111E+5  -5.43809E+5
  -6.66406E+5  -5.53833E+5
  -6.48114E+5  -5.64198E+5
  -6.29340E+5  -5.74563E+5
  -6.09796E+5  -5.83915E+5
  -5.89796E+5  -5.91866E+5
  -5.70059E+5  -5.99664E+5
  -5.51442E+5  -6.07195E+5
  -5.32702E+5  -6.14614E+5
  -5.12676E+5  -6.21291E+5
  -4.93349E+5  -6.26597E+5
  -4.75249E+5  -6.31699E+5
  -4.56075E+5  -6.37065E+5
  -4.36516E+5  -6.41140E+5
  -4.17364E+5  -6.43808E+5
  -3.99593E+5  -6.45774E+5
  -3.82228E+5  -6.48099E+5
  -3.64095E+5  -6.50199E+5
  -3.45119E+5  -6.51639E+5
  -3.26360E+5  -6.52270E+5
  -3.08800E+5  -6.51755E+5
  -2.91543E+5  -6.52025E+5
  -2.73441E+5  -6.52371E+5
  -2.55001E+5  -6.52301E+5
  -2.36367E+5  -6.51356E+5
  -2.18649E+5  -6.49789E+5
  -2.00826E+5  -6.48448E+5
  -1.82966E+5  -6.46675E+5
  -1.65390E+5  -6.43438E+5
  -1.48479E+5  -6.39267E+5
  -1.32688E+5  -6.35523E+5
  -1.17086E+5  -6.32305E+5
  -1.01013E+5  -6.28855E+5
  -8.50425E+4  -6.24445E+5
  -6.91786E+4  -6.19778E+5
  -5.33414E+4  -6.14778E+5
  -3.76693E+4  -6.09244E+5
  -2.31085E+4  -6.02956E+5
  -8.39312E+3  -5.96790E+5
   6.35247E+3  -5.90534E+5
   2.12387E+4  -5.84196E+5
   3.61152E+4  -5.77526E+5
   5.09027E+4  -5.70224E+5
   6.45149E+4  -5.61713E+5
   7.78056E+4  -5.53955E+5
   9.10644E+4  -5.46440E+5
   1.03935E+5  -5.37708E+5
   1.16249E+5  -5.28941E+5
   1.28164E+5  -5.20381E+5
   1.40708E+5  -5.12029E+5
   1.52605E+5  -5.02312E+5
   1.63853E+5  -4.92245E+5
   1.74464E+5  -4.82292E+5
   1.84294E+5  -4.72340E+5
   1.94054E+5  -4.62810E+5
   2.04050E+5  -4.52829E+5
   2.13563E+5  -4.42458E+5
   2.22563E+5  -4.31693E+5
   2.30804E+5  -4.20619E+5
   2.38966E+5  -4.10172E+5
   2.46332E+5  -3.99409E+5
   2.53521E+5  -3.88405E+5
   2.59717E+5  -3.77538E+5
   2.66104E+5  -3.67047E+5
   2.72660E+5  -3.56530E+5
   2.78645E+5  -3.45258E+5
   2.84030E+5  -3.34164E+5
   2.88680E+5  -3.23012E+5
   2.93465E+5  -3.12453E+5
   2.97908E+5  -3.01433E+5
   3.01929E+5  -2.89850E+5
   3.05684E+5  -2.79357E+5
   3.09488E+5  -2.68244E+5
   3.12607E+5  -2.57344E+5
   3.15608E+5  -2.46171E+5
   3.17900E+5  -2.35342E+5
   3.19880E+5  -2.24829E+5
   3.21953E+5  -2.14419E+5
   3.23766E+5  -2.04011E+5
   3.25305E+5  -1.92966E+5
   3.26369E+5  -1.83153E+5
   3.27141E+5  -1.73113E+5
   3.27688E+5  -1.63072E+5
   3.28500E+5  -1.53062E+5
   3.28354E+5  -1.43007E+5
   3.28373E+5  -1.33132E+5
   3.28195E+5  -1.23530E+5
   3.27990E+5  -1.13808E+5
   3.27372E+5  -1.03581E+5
   3.26175E+5  -9.38683E+4
   3.24994E+5  -8.45411E+4
   3.23872E+5  -7.54129E+4
   3.22670E+5  -6.62282E+4
   3.21089E+5  -5.68315E+4
   3.19199E+5  -4.78966E+4
   3.16873E+5  -3.88696E+4
   3.15020E+5  -3.04566E+4
   3.12198E+5  -2.19522E+4
   3.09605E+5  -1.36667E+4
   3.06772E+5  -5.64949E+3
   3.04029E+5   1.94534E+3
   3.01622E+5   9.99290E+3
   2.98437E+5   1.79950E+4
   2.94998E+5   2.61817E+4
   2.91161E+5   3.36642E+4
   2.87421E+5   4.11949E+4
   2.83748E+5   4.86612E+4
   2.80028E+5   5.57550E+4
   2.75819E+5   6.27900E+4
   2.71325E+5   6.98103E+4
   2.67347E+5   7.69476E+4
   2.62653E+5   8.35939E+4
   2.57831E+5   9.03306E+4
   2.52884E+5   9.65098E+4
   2.48150E+5   1.02394E+5
   2.43414E+5   1.08004E+5
   2.38266E+5   1.14051E+5
   2.33103E+5   1.19657E+5
   2.27715E+5   1.24997E+5
   2.22496E+5   1.30213E+5
   2.17023E+5   1.35522E+5
   2.11426E+5   1.40308E+5
   2.05654E+5   1.44797E+5
   2.00495E+5   1.49322E+5
   1.94656E+5   1.53651E+5
   1.88808E+5   1.57869E+5
   1.83152E+5   1.61867E+5
   1.77187E+5   1.65177E+5
   1.71195E+5   1.68461E+5
   1.65621E+5   1.71559E+5
   1.59667E+5   1.74855E+5
   1.53932E+5   1.77602E+5
   1.48116E+5   1.80168E+5
   1.42438E+5   1.82899E+5
   1.36561E+5   1.85243E+5
   1.30826E+5   1.87335E+5
   1.24860E+5   1.89247E+5
   1.19243E+5   1.90793E+5
   1.13627E+5   1.92351E+5
   1.08019E+5   1.94106E+5
   1.02365E+5   1.95647E+5
   9.65585E+4   1.96305E+5
   9.11387E+4   1.97323E+5
   8.57608E+4   1.97836E+5
   8.01997E+4   1.98546E+5
   7.51209E+4   1.99104E+5
   7.01360E+4   1.99440E+5
   6.50889E+4   1.99808E+5
   5.99680E+4   1.99868E+5
   5.48998E+4   1.99483E+5
   5.00023E+4   1.99533E+5
   4.53315E+4   1.99173E+5
   4.05578E+4   1.98640E+5
   3.57762E+4   1.98405E+5
   3.10487E+4   1.97411E+5
   2.63646E+4   1.96952E+5
   2.19891E+4   1.96064E+5
   1.76405E+4   1.95146E+5
   1.33770E+4   1.94310E+5
   9.08494E+3   1.93108E+5
   5.26313E+3   1.91896E+5
   9.95884E+2   1.90768E+5
  -3.02175E+3   1.89578E+5
  -7.09768E+3   1.87922E+5
  -1.08217E+4   1.86132E+5
  -1.48151E+4   1.84243E+5
  -1.83128E+4   1.82769E+5
  -2.21306E+4   1.81064E+5
  -2.56274E+4   1.79398E+5
  -2.92451E+4   1.77560E+5
  -3.27382E+4   1.75401E+5
  -3.64952E+4   1.73548E+5
  -3.99805E+4   1.71161E+5
  -4.30772E+4   1.68950E+5
  -4.60912E+4   1.66476E+5
  -4.92029E+4   1.64810E+5
  -5.23464E+4   1.62284E+5
  -5.54358E+4   1.59829E+5
  -5.86067E+4   1.57192E+5
  -6.09083E+4   1.54584E+5
  -6.33614E+4   1.51662E+5
  -6.59487E+4   1.49282E+5
  -6.83246E+4   1.46669E+5
  -7.07895E+4   1.44094E+5
  -7.31703E+4   1.41325E+5
  -7.58702E+4   1.38568E+5
  -7.79593E+4   1.35916E+5
  -8.00990E+4   1.32962E+5
  -8.20895E+4   1.30094E+5
  -8.38675E+4   1.27069E+5
  -8.61611E+4   1.24143E+5
  -8.74881E+4   1.21180E+5
  -8.92516E+4   1.18202E+5
  -9.11014E+4   1.15569E+5
  -9.22657E+4   1.12456E+5
  -9.39577E+4   1.09452E+5
  -9.52343E+4   1.06541E+5
  -9.62750E+4   1.03486E+5
  -9.76203E+4   1.00588E+5
  -9.88437E+4   9.79125E+4
  -9.99875E+4   9.47159E+4
  -1.00883E+5   9.16490E+4
  -1.01552E+5   8.88763E+4
  -1.02344E+5   8.58237E+4
  -1.03171E+5   8.29416E+4
  -1.03789E+5   7.98713E+4
  -1.04612E+5   7.70969E+4
  -1.04721E+5   7.43731E+4
  -1.05419E+5   7.17102E+4
  -1.05904E+5   6.87626E+4
  -1.06501E+5   6.57254E+4
  -1.06497E+5   6.31140E+4
  -1.06802E+5   6.02674E+4
  -1.06759E+5   5.76134E+4
  -1.07038E+5   5.49805E+4
  -1.07240E+5   5.21620E+4
  -1.07086E+5   4.92828E+4
  -1.06958E+5   4.69544E+4
  -1.06638E+5   4.43279E+4
  -1.06821E+5   4.15616E+4
  -1.06163E+5   3.89499E+4
  -1.05992E+5   3.68490E+4
  -1.06084E+5   3.40548E+4
  -1.05381E+5   3.14258E+4
  -1.05030E+5   2.89135E+4
  -1.04381E+5   2.65572E+4
  -1.03794E+5   2.42020E+4
  -1.03259E+5   2.16752E+4
  -1.02926E+5   1.95814E+4
  -1.01794E+5   1.73908E+4
  -1.00998E+5   1.53218E+4
  -1.00705E+5   1.29486E+4
  -9.97255E+4   1.05781E+4
  -9.88300E+4   8.60288E+3
  -9.76541E+4   6.50704E+3
  -9.70075E+4   4.33706E+3
  -9.59422E+4   2.52951E+3
  -9.50628E+4   4.39391E+2
  -9.42351E+4  -1.76268E+3
  -9.30227E+4  -3.34418E+3
  -9.17985E+4  -5.18231E+3
  -9.07055E+4  -7.13368E+3
  -8.96310E+4  -8.90647E+3
  -8.83939E+4  -1.04668E+4
  -8.73277E+4  -1.23112E+4
  -8.62624E+4  -1.36732E+4
  -8.52657E+4  -1.54063E+4
  -8.37988E+4  -1.71738E+4
  -8.23352E+4  -1.87256E+4
  -8.08156E+4  -2.01675E+4
  -7.95806E+4  -2.16581E+4
  -7.84550E+4  -2.28833E+4
  -7.73710E+4  -2.41786E+4
  -7.59179E+4  -2.56443E+4
  -7.43832E+4  -2.68766E+4
  -7.31897E+4  -2.82664E+4
  -7.15639E+4  -2.93505E+4
  -7.02801E+4  -3.03894E+4
  -6.87142E+4  -3.15476E+4
  -6.76382E+4  -3.25063E+4
  -6.61433E+4  -3.33727E+4
  -6.45623E+4  -3.43098E+4
  -6.32866E+4  -3.52186E+4
  -6.18730E+4  -3.61431E+4
  -6.02378E+4  -3.68795E+4
  -5.91969E+4  -3.76668E+4
  -5.75674E+4  -3.84974E+4
  -5.60451E+4  -3.91397E+4
  -5.48082E+4  -3.96836E+4
  -5.36014E+4  -4.03483E+4
  -5.20520E+4  -4.09084E+4
  -5.05788E+4  -4.15365E+4
  -4.90576E+4  -4.19984E+4
  -4.75131E+4  -4.23825E+4
  -4.66065E+4  -4.25942E+4
  -4.51452E+4  -4.32939E+4
  -4.39023E+4  -4.35760E+4
  -4.23722E+4  -4.39849E+4
