 
 $NMID
 ID=''
 FMTDAT='(2E13.5)'
 TRAMP=   1.00000E+0
 VOLUME=   1.00000E+0
 $END
   5.72603E+3  -9.46505E+3
   7.31598E+2  -2.66993E+3
  -1.46016E+3   8.60135E+2
   6.04474E+3  -3.91843E+3
   2.01061E+3   7.48123E+2
  -2.00137E+3   4.78094E+3
  -4.58421E+2  -2.60840E+3
   5.36429E+2  -3.49262E+3
   3.00724E+3   2.85417E+3
   2.37955E+3   2.59826E+3
  -2.30803E+3   8.65027E+2
  -1.50314E+3   8.36106E+2
   2.09004E+3  -6.34439E+2
   5.72831E+1   1.38930E+3
  -2.43313E+3   1.67678E+3
  -1.10462E+3  -2.55725E+3
   5.63135E+2  -1.75723E+3
   3.23151E+2   1.39809E+3
  -1.08013E+2  -1.47203E+3
   1.35784E+3  -1.95307E+3
   1.13248E+3   1.80561E+3
  -1.38676E+3   4.40803E+2
  -2.74896E+2  -2.03921E+3
   2.18778E+3   1.53679E+3
  -8.17102E+2   2.97240E+3
  -3.03146E+3  -1.11243E+3
   1.37908E+3  -2.32777E+3
   2.57822E+3   2.08890E+3
  -1.86782E+3   2.68320E+3
  -1.63062E+3  -1.35093E+3
   1.71219E+3  -1.27154E+3
   1.01648E+3   1.46381E+3
  -1.03491E+3   3.37142E+2
  -5.12586E+2  -1.11806E+3
   9.85193E+1   4.12867E+2
  -1.00978E+3   1.27509E+2
  -1.11980E+2  -2.31350E+3
   1.58664E+3  -1.26895E+3
   1.05077E+3   1.17056E+3
  -8.03451E+2   7.07987E+2
  -3.09407E+2  -2.02278E+2
   4.90757E+2   4.10320E+2
  -8.61380E+2   6.98303E+2
  -2.01313E+3  -4.93442E+2
  -5.96457E+2  -1.34410E+3
   1.12408E+3  -6.08863E+2
   1.19219E+3   6.00226E+2
   4.90444E+1   6.17917E+2
  -2.12980E+2   3.54983E+2
  -1.91513E+2   8.08827E+2
  -1.05488E+3   8.25622E+2
  -1.05330E+3  -3.77555E+2
   2.04789E+2  -8.26283E+2
   4.94901E+2  -1.81848E+2
  -1.56135E+2  -3.22126E+1
   3.29897E+2  -7.86491E+2
   1.17016E+3  -2.14305E-1
   3.99830E+2   1.38230E+3
  -1.39395E+3   6.82083E+2
  -8.71022E+2  -9.08367E+2
   2.87419E+2  -4.66187E+2
   2.16011E+2   9.54078E+1
  -2.50408E+2  -5.66539E+2
   6.46160E+2  -5.97155E+2
   1.12420E+3   6.71619E+2
   4.72627E+2   1.54190E+3
  -3.90420E+2   7.91661E+2
  -5.79111E+2   3.49320E+2
  -6.59369E+2  -3.91507E+1
  -4.14984E+2  -3.90241E+2
   2.51826E+2  -3.96034E+2
   3.58824E+2  -5.96093E+1
  -3.63005E+2  -2.53107E+2
  -1.50375E+2  -4.63072E+2
   4.15974E+2  -5.69069E+2
   2.07624E+2   2.79821E+2
  -3.53442E+2   1.93623E+2
  -4.53129E+2  -1.92353E+2
   1.75932E+1  -6.21079E+2
   1.49089E+2  -1.49643E+1
   5.11682E+1   2.53507E+2
   1.27130E+2   3.99846E+1
   1.76099E+2  -1.61070E+2
   1.65218E+2   3.51156E+2
  -6.24262E+1   3.83971E+1
  -3.80307E+1  -2.01891E+2
  -1.88346E+2   2.62194E+2
  -4.47463E+2   2.62542E+2
  -1.26358E+2  -4.48359E+2
   1.59037E+2  -4.65644E+2
   2.56989E+2   3.17488E+1
  -2.92875E+2   1.47677E+1
  -2.41655E+1  -4.87018E+2
   3.53119E+2  -1.85832E+1
   3.05051E+2   2.23561E+2
  -1.68383E+2   2.56998E+2
   2.48772E+1   3.08074E+1
  -1.42315E+1  -1.86815E+2
  -2.21619E+2   1.87069E+2
  -3.38438E+2   3.19526E+2
  -3.37203E+2  -8.59159E+1
  -2.40511E+1  -1.87216E+2
  -3.68328E+2  -2.42376E+2
   1.12431E+2  -1.97011E+0
   4.33638E+1  -6.63230E+1
  -1.31830E+2   4.43387E+1
  -3.17092E+2  -4.83153E+2
   1.00751E+2  -4.93239E+2
   5.07172E+2   9.88625E+1
   1.19649E+2   5.35332E+2
  -3.47202E+2   2.26133E+2
  -2.64086E+2  -1.11436E+2
  -1.57655E+2  -4.46609E+1
  -2.31439E+2   4.71951E+1
  -1.58300E+2  -1.11133E+2
  -1.97713E+2  -3.90038E+2
  -1.21748E+2  -9.92401E+1
  -2.34855E+1   1.58787E+0
   2.96997E+2   6.79433E+1
   1.19061E+0   1.12621E+2
  -1.49083E+2   3.93807E+2
  -4.52143E+2  -1.34618E+2
  -5.11146E+0  -5.26552E+1
  -8.14675E+1   3.02833E+1
   1.51217E+2   1.91027E-2
   1.02018E+2   4.26220E+1
   6.84251E+1   2.72807E+1
   1.56685E+2   2.59897E+2
  -1.99683E+1   3.24019E+2
  -8.44843E+1   1.64658E+2
  -1.31813E+2  -7.43612E+1
   3.78622E+1   5.43428E+1
   2.89373E+2  -5.57098E+1
  -3.96784E+1   3.29648E+1
   2.59643E+1  -5.35980E+1
   7.06765E+0   3.77652E+1
   3.82536E+1  -1.46217E+2
  -1.17474E+2   6.43339E+1
  -9.80656E+1   4.06811E+1
  -3.87159E+1  -4.11532E+1
  -2.31062E+2  -2.15436E+2
   1.65164E+2  -7.91230E+1
   3.25730E+2   4.16258E+1
   3.66092E+2   2.63977E+2
   1.04819E+2   1.50922E+2
   3.98544E+2  -4.60188E+1
   4.14221E+2   1.89116E+2
   6.89309E+1  -1.97502E+2
   1.95870E+2  -1.77710E+2
   4.02634E+1   9.80356E+1
  -2.48926E+2   2.64277E+2
   1.84439E+2  -4.21642E+1
   2.51521E+2  -2.73757E+2
   9.72124E+1  -1.49770E+2
  -2.58797E+1   3.21373E+2
   1.13762E+2   1.30866E+2
   3.10594E+2  -2.22664E+2
  -4.92603E+1  -6.47315E+1
   9.40438E+1  -9.03093E+1
  -4.20515E+1  -1.36474E+2
  -7.55667E+0   1.19044E+2
   3.14630E+1  -4.59714E+1
   1.80496E+2   4.46921E+1
  -1.60749E+2   1.00000E+2
  -9.62069E+1   1.37263E+2
   2.44388E+2   1.11171E+0
  -9.89758E+1  -1.41554E+2
  -3.98231E+1  -1.55126E+1
   1.94032E+2   3.27773E+1
   1.12647E+2   4.87553E+1
   1.19758E+2   3.50049E+1
  -2.54000E+1  -1.06802E+1
   6.71756E+1  -1.84557E+2
   1.16081E+1   6.55183E+1
   2.55907E+1  -8.64301E+1
   1.51026E+2  -4.62059E+1
   4.21818E+1  -1.28761E+2
   2.29353E+2   3.45164E+1
   2.81867E+2  -2.84162E+2
  -2.05338E+1   3.90504E+1
   1.94359E+2   1.65597E+2
   1.08205E+1   1.76334E+2
   1.46060E+2   2.09641E+2
  -3.55493E+1   1.19717E+1
  -2.07079E+1  -1.13968E+2
   9.89138E+1  -9.41108E+1
   1.61584E-1  -5.07946E+1
   7.62292E+1  -1.59220E+2
  -2.76499E+1  -3.66580E+2
   2.32307E+2  -7.50156E+1
   2.35792E+1   3.76251E+1
  -1.92141E+2  -6.12021E+1
  -1.42515E+2  -1.63948E+2
   6.00264E+1  -1.06168E+2
   1.05097E+2  -5.41503E+1
  -2.75472E+2  -9.15713E+1
  -1.48063E+2   2.55614E+0
   2.20539E+2  -2.93928E+1
   5.43648E+1   6.77756E+1
   1.48716E+1  -3.02549E+1
  -1.98541E+2   9.60588E+1
   2.23276E+1  -3.28570E+2
   7.55582E+1  -2.30340E+2
   1.40342E+2  -9.73992E+1
  -1.08219E+2   1.42037E+2
   1.17725E+2  -3.84130E+1
   1.47607E+2   1.82427E+2
  -5.50877E+1  -5.50719E+1
  -4.50060E+1   2.24046E+2
   9.75479E+1   1.18426E+2
   1.42113E+1  -4.26222E+1
   7.99360E+1  -2.70343E+1
   1.14405E+2   7.24554E+1
  -5.34430E+1  -6.93938E+1
   5.11745E+1  -5.96227E+1
  -6.27631E+1   1.33274E+1
  -4.38537E+1  -6.83135E+1
   2.15934E+1   2.90716E+1
  -1.24650E+2  -6.97869E+1
   1.42941E+2   1.67433E-1
   9.44092E+1  -1.73328E+2
   1.94448E+2  -3.88541E+1
   1.65179E+2   2.58370E+1
  -1.95234E+2   1.21801E+2
  -9.26527E+1   1.69404E+2
   3.28248E+0  -8.51229E-1
   3.16542E+1  -1.90535E+2
   1.81316E+1   4.15173E+1
   7.83116E+1   1.10730E+2
  -4.14895E+1   2.04000E+2
  -4.95146E+1  -6.44004E+1
  -6.73651E+1  -6.70890E+1
   8.72660E+1   1.66458E+1
  -3.61554E+1  -1.58186E+2
  -3.04703E+2  -1.14330E+2
  -7.29421E+1  -6.45793E+0
  -1.04666E+2  -1.48642E+2
   7.30275E+1   1.75559E+2
  -2.68781E+1   3.37149E+1
  -2.88976E+2  -1.02594E+2
   5.11983E+1  -7.51051E+1
   1.93136E+2  -4.68859E+0
   8.04679E+1   1.72260E+2
   5.32170E+0  -1.21138E+2
  -1.85057E+1  -2.86303E+2
  -5.69433E+1  -2.11936E+2
  -9.54722E-1   2.62832E+1
   1.12762E+2   2.57669E+1
  -7.65213E+1  -1.86835E+2
  -8.64574E+1  -1.05858E+2
   2.04522E+2  -3.35292E+1
  -1.47266E+2   9.07639E+1
  -1.72314E+2   8.99159E+1
   9.83011E+1  -4.47112E+1
   4.07258E+1  -1.74848E+2
  -7.16740E+1  -2.07739E+2
   1.36624E+0  -1.77432E+2
  -1.01661E+2   6.67737E+1
   7.46063E+1  -2.40774E+2
  -2.95564E+2  -1.02473E+2
  -1.72344E+1   8.17696E+1
  -2.63809E+2   1.43510E+2
  -9.26225E+1  -5.39174E+1
  -3.48274E+1  -2.54139E+2
   1.46606E+2   5.18080E+1
   4.21465E+1   3.23930E+1
  -1.33927E+2   1.92071E+2
   6.81645E+1   1.42497E+2
  -2.09275E+2   3.87400E+1
  -1.50752E+2  -4.07714E+1
  -4.53323E+1  -2.19749E+2
  -3.95013E+1   2.52095E+2
   3.23478E+1   8.92892E+0
   1.56627E+1  -6.23574E+1
  -1.11860E+2   1.80040E+2
  -8.61161E+1   1.26589E+2
  -1.60950E+1  -3.78411E+1
  -1.72015E+2  -2.61516E+1
  -5.11260E+1   1.76595E+1
   1.42713E+2   1.25475E+2
  -5.78772E+1   3.48942E+2
  -2.23435E+1  -1.14530E+2
  -1.17607E+2   8.01239E+0
   7.29717E+0   9.19783E+1
  -2.86959E+2   9.39913E+1
  -1.43024E+2   9.02221E+1
  -4.26111E+1  -1.18312E+2
   2.03088E+2   8.23617E+0
   6.66873E+1   5.85000E+0
   8.98796E+1  -1.21738E+2
  -1.13688E+2   1.11953E+2
   1.00777E+2   7.83554E+1
   9.72374E+1   8.93924E+1
   1.12669E+1   2.97091E+1
  -6.11118E+1   3.86945E+1
   3.88568E+2   7.98789E+1
   2.48921E+2   1.56796E+2
   1.94833E+2   2.07908E+2
  -6.83154E+0   8.94853E+1
   2.48728E+1   5.12060E+1
  -1.17217E+2   2.79641E+1
   3.49462E+1   1.00063E+2
   1.45956E+2   1.80334E+2
   1.78286E+2   2.11204E+2
  -1.85058E+2  -4.89987E+1
  -1.83538E+2   1.12667E+2
   1.36915E+2   9.66200E+1
  -2.03193E+2   7.46598E+1
   4.01660E+1   1.09821E+1
   2.11531E+2  -3.63154E+0
   1.80207E+2   1.21041E+2
  -6.73330E+1  -1.92333E+1
   2.34294E+2  -1.04194E+2
   1.20133E+1   1.45620E+2
  -3.24809E+1  -2.53582E+2
  -5.45431E+1   1.39450E+2
   3.03934E+1  -4.03590E+1
  -7.23017E+1   4.73186E+1
   1.43796E+2   4.32451E+1
   8.20973E+1  -6.55614E+0
   1.32386E+2  -7.40340E+1
   5.66739E+1  -7.46076E+1
  -2.88506E+1   1.71981E+2
   2.85183E+2   4.22407E+1
  -1.11826E+2  -1.66654E+2
   9.54084E+1  -6.00620E+1
   5.67026E+1   1.43919E+2
   1.78483E+2   1.87663E+1
  -2.91406E+2   1.38573E+2
   4.27065E+1  -1.37396E+2
   9.27330E+1   1.37673E+2
   2.26247E+2  -2.63705E+1
   6.63194E+1  -8.57011E+1
   3.13593E+1   1.17572E+1
   7.81511E+1  -1.04770E+1
   1.55439E+2   1.40161E+2
   2.62024E+2   1.68447E+2
   1.05124E+2  -1.08428E+2
   1.28854E+2  -7.08806E+1
  -2.00583E+2  -1.75026E+2
   7.05657E+1   1.12787E+2
   1.10853E+2  -3.90235E+1
   4.21736E+1  -7.31848E+1
  -3.84414E+1  -3.24895E+1
  -2.29391E+2   5.01278E+1
   1.81006E+2   3.87106E+1
  -2.43125E+2   8.94713E+1
  -1.35993E+2  -8.19124E+0
  -3.16332E+1   1.03657E+2
   1.09904E+2   4.01572E-1
   2.97484E+2  -1.67791E+2
   1.77887E+1   1.45825E+2
  -1.24714E+2  -3.87527E+1
  -2.66223E+2   6.51285E+1
   1.31466E+2  -1.51325E+2
  -1.95622E+2   1.61191E+2
   6.01298E+1  -6.33021E+1
   8.55311E+1   1.03530E+1
  -6.91409E+1   1.81652E+2
   9.77098E+1  -9.35966E+1
  -1.03160E+2  -1.21498E+1
  -1.21886E+2  -1.10158E+2
   5.06854E+1  -1.61820E+2
   4.93522E+1  -7.46878E+1
   1.27120E+2  -1.81152E+2
   1.19486E+2   2.02645E+2
  -4.35700E+1   1.41640E+2
