 LCModel (Version 6.3-1N) Copyright: S.W. Provencher.          Ref.: Magn. Reson. Med. 30:672-679 (1993).                
 Slice_N1@15_17  28-Feb-2025 11:39:32
 27 lines in following concentration table = NCONC+1
    Conc.  %SD /Cr+PCr  Metabolite                                         
 3.30E-04   4% 2.9E-04 Mac                                                 
    2.997  56%   2.625 Cr                                                  
    6.137  27%   5.375 PCr                                                 
    8.508  11%   7.452 Ins                                                 
   11.521   7%  10.091 NAA                                                 
    6.405  14%   5.610 Tau                                                 
    1.007 114%   0.882 PCho                                                
    1.371  81%   1.201 GPC                                                 
    7.772  13%   6.807 Glu                                                 
    4.994  17%   4.374 Gln                                                 
   10.486   8%   9.184 Ala                                                 
    1.340  96%   1.173 Asc                                                 
    2.919  39%   2.557 Asp                                                 
    0.931  63%   0.816 GABA                                                
    1.151  70%   1.008 Glc                                                 
    0.879  59%   0.770 GSH                                                 
    0.391 189%   0.342 Lac                                                 
    3.047  22%   2.668 NAAG                                                
    0.000 999%   0.000 PE                                                  
    2.378  10%   2.083 GPC+PCho                                            
   14.568   6%  12.759 NAA+NAAG                                            
   12.765  10%  11.180 Glu+Gln                                             
    9.134   8%   8.000 Cr+PCr                                              
   14.568   6%  12.759 NAA+NAAG                                            
    9.134   8%   8.000 Cr+PCr                                              
   12.765  10%  11.180 Glu+Gln                                             
   6 lines in following misc. output table
  FWHM = 0.024 ppm    S/N =   4                                            
  Data shift = 0.033 ppm                                                   
  Ph:-123 deg       0.0 deg/ppm                                            
  alphaB,S = 9.5E-02,   2.2E+01                                            
   19 spline knots.   Ns = 5(1)                                            
  ( 5) 3 infls.   ( 3) 1 extrs.                                            
  480 points on ppm-axis = NY
      4.100000     4.091866     4.083733     4.075600     4.067466     4.059333     4.051199     4.043066     4.034933     4.026799
      4.018666     4.010532     4.002399     3.994265     3.986132     3.977998     3.969864     3.961731     3.953597     3.945463
      3.937330     3.929196     3.921062     3.912929     3.904795     3.896662     3.888528     3.880394     3.872261     3.864127
      3.855993     3.847860     3.839726     3.831592     3.823459     3.815325     3.807191     3.799058     3.790924     3.782790
      3.774657     3.766523     3.758389     3.750256     3.742122     3.733989     3.725855     3.717721     3.709588     3.701454
      3.693320     3.685187     3.677053     3.668919     3.660786     3.652652     3.644518     3.636385     3.628251     3.620117
      3.611984     3.603850     3.595716     3.587583     3.579449     3.571316     3.563182     3.555048     3.546915     3.538781
      3.530647     3.522514     3.514380     3.506246     3.498113     3.489979     3.481845     3.473712     3.465578     3.457444
      3.449311     3.441177     3.433043     3.424910     3.416776     3.408643     3.400509     3.392375     3.384242     3.376108
      3.367974     3.359841     3.351707     3.343573     3.335440     3.327306     3.319172     3.311039     3.302905     3.294771
      3.286638     3.278504     3.270370     3.262237     3.254103     3.245970     3.237836     3.229702     3.221569     3.213435
      3.205301     3.197168     3.189034     3.180900     3.172767     3.164633     3.156499     3.148366     3.140232     3.132098
      3.123965     3.115831     3.107697     3.099564     3.091430     3.083297     3.075163     3.067029     3.058896     3.050762
      3.042628     3.034495     3.026361     3.018227     3.010094     3.001960     2.993826     2.985693     2.977559     2.969425
      2.961292     2.953158     2.945024     2.936891     2.928757     2.920624     2.912490     2.904356     2.896223     2.888089
      2.879955     2.871822     2.863688     2.855554     2.847421     2.839287     2.831153     2.823020     2.814886     2.806752
      2.798619     2.790485     2.782351     2.774218     2.766084     2.757951     2.749817     2.741683     2.733550     2.725416
      2.717282     2.709149     2.701015     2.692881     2.684748     2.676614     2.668480     2.660347     2.652213     2.644079
      2.635946     2.627812     2.619678     2.611545     2.603411     2.595278     2.587144     2.579010     2.570877     2.562743
      2.554609     2.546476     2.538342     2.530208     2.522075     2.513941     2.505807     2.497674     2.489540     2.481406
      2.473273     2.465139     2.457006     2.448872     2.440738     2.432605     2.424471     2.416337     2.408204     2.400070
      2.391936     2.383803     2.375669     2.367535     2.359402     2.351268     2.343134     2.335001     2.326867     2.318733
      2.310600     2.302466     2.294333     2.286199     2.278065     2.269932     2.261798     2.253664     2.245531     2.237397
      2.229263     2.221130     2.212996     2.204862     2.196729     2.188595     2.180461     2.172328     2.164194     2.156060
      2.147927     2.139793     2.131660     2.123526     2.115392     2.107259     2.099125     2.090991     2.082858     2.074724
      2.066590     2.058457     2.050323     2.042189     2.034056     2.025922     2.017788     2.009655     2.001521     1.993387
      1.985254     1.977120     1.968987     1.960853     1.952719     1.944586     1.936452     1.928318     1.920185     1.912051
      1.903917     1.895784     1.887650     1.879516     1.871383     1.863249     1.855115     1.846982     1.838848     1.830714
      1.822581     1.814447     1.806314     1.798180     1.790046     1.781913     1.773779     1.765645     1.757512     1.749378
      1.741244     1.733111     1.724977     1.716843     1.708710     1.700576     1.692442     1.684309     1.676175     1.668041
      1.659908     1.651774     1.643641     1.635507     1.627373     1.619240     1.611106     1.602972     1.594839     1.586705
      1.578571     1.570438     1.562304     1.554170     1.546037     1.537903     1.529769     1.521636     1.513502     1.505368
      1.497235     1.489101     1.480968     1.472834     1.464700     1.456567     1.448433     1.440299     1.432166     1.424032
      1.415898     1.407765     1.399631     1.391497     1.383364     1.375230     1.367096     1.358963     1.350829     1.342695
      1.334562     1.326428     1.318295     1.310161     1.302027     1.293894     1.285760     1.277626     1.269493     1.261359
      1.253225     1.245092     1.236958     1.228824     1.220691     1.212557     1.204423     1.196290     1.188156     1.180022
      1.171889     1.163755     1.155622     1.147488     1.139354     1.131221     1.123087     1.114953     1.106820     1.098686
      1.090552     1.082419     1.074285     1.066151     1.058018     1.049884     1.041750     1.033617     1.025483     1.017349
      1.009216     1.001082     0.992949     0.984815     0.976681     0.968548     0.960414     0.952280     0.944147     0.936013
      0.927879     0.919746     0.911612     0.903478     0.895345     0.887211     0.879077     0.870944     0.862810     0.854676
      0.846543     0.838409     0.830276     0.822142     0.814008     0.805875     0.797741     0.789607     0.781474     0.773340
      0.765206     0.757073     0.748939     0.740805     0.732672     0.724538     0.716404     0.708271     0.700137     0.692003
      0.683870     0.675736     0.667603     0.659469     0.651335     0.643202     0.635068     0.626934     0.618801     0.610667
      0.602533     0.594400     0.586266     0.578132     0.569999     0.561865     0.553731     0.545598     0.537464     0.529330
      0.521197     0.513063     0.504930     0.496796     0.488662     0.480529     0.472395     0.464261     0.456128     0.447994
      0.439861     0.431727     0.423593     0.415460     0.407326     0.399192     0.391059     0.382925     0.374792     0.366658
      0.358524     0.350391     0.342257     0.334124     0.325990     0.317856     0.309723     0.301589     0.293455     0.285322
      0.277188     0.269055     0.260921     0.252787     0.244654     0.236520     0.228386     0.220253     0.212119     0.203986
 NY phased data points follow
  -9.93773E+01 -1.05096E+02 -1.03387E+02 -1.21004E+02 -1.24055E+02 -1.11164E+02 -1.02891E+02 -1.08571E+02 -1.10715E+02 -1.03857E+02
  -1.08434E+02 -1.19683E+02 -1.24395E+02 -1.24894E+02 -1.35223E+02 -1.21866E+02 -1.30540E+02 -1.51688E+02 -1.47113E+02 -1.86669E+02
  -1.84742E+02 -1.39606E+02 -1.40788E+02 -1.11593E+02 -9.03516E+01 -8.42365E+01 -7.10726E+01 -7.95183E+01 -5.67209E+01 -5.57273E+01
  -6.93421E+01 -6.72836E+01 -6.90628E+01 -7.58681E+01 -7.74794E+01 -5.70268E+01 -6.31343E+01 -7.90969E+01 -9.81314E+01 -1.05302E+02
  -1.06132E+02 -1.16215E+02 -1.10577E+02 -1.13375E+02 -9.38268E+01 -5.84443E+01 -5.08131E+01 -4.68225E+01 -2.90464E+01 -2.49801E+01
  -2.36611E+01 -2.83881E+01 -3.17666E+01 -3.00152E+01 -6.14900E+01 -6.84792E+01 -6.16794E+01 -7.95128E+01 -9.38430E+01 -8.19380E+01
  -6.75615E+01 -8.29106E+01 -7.39921E+01 -5.11422E+01 -5.01500E+01 -3.24605E+01 -1.70664E+01 -4.22361E+01 -7.57376E+01 -1.00818E+02
  -9.62724E+01 -7.91923E+01 -7.21602E+01 -5.86291E+01 -4.61630E+01 -2.79653E+01 -2.12298E+01 -1.23457E+01 -2.25445E+01 -2.77299E+01
  -1.19651E+01 -2.91883E+01 -4.37854E+01 -7.41660E+01 -7.70663E+01 -5.99395E+01 -6.81398E+01 -4.02302E+01 -1.22724E+01 -1.70248E+01
  -2.12255E+01 -5.38341E+00 -3.59234E+00  3.83568E+00  1.26346E+01  3.01643E+00  2.09759E+01  2.04692E+01  7.96652E+00  1.42530E+01
   1.78959E+01  2.76574E+00 -1.92540E+01 -1.34547E+01 -2.28202E+01 -4.42432E+01 -4.88858E+01 -5.08627E+01 -6.14270E+01 -1.12390E+02
  -1.63285E+02 -1.62901E+02 -1.53089E+02 -1.42453E+02 -1.20926E+02 -9.85595E+01 -8.02326E+01 -8.36947E+01 -7.55044E+01 -6.69090E+01
  -6.14304E+01 -4.79424E+01 -4.55661E+01 -3.00819E+01 -3.41479E+01 -2.56808E+01  3.88102E-01  2.06447E+01  3.51805E+01  5.04519E+01
   9.60931E+01  5.98983E+01 -2.99363E+01 -8.79109E+01 -1.15705E+02 -1.22946E+02 -1.21958E+02 -1.08007E+02 -1.06609E+02 -1.05152E+02
  -1.15112E+02 -1.02994E+02 -1.11982E+02 -1.10052E+02 -8.60921E+01 -1.17435E+02 -9.66995E+01 -9.37877E+01 -1.05627E+02 -8.95749E+01
  -9.74535E+01 -8.87806E+01 -7.80782E+01 -8.06388E+01 -8.44287E+01 -7.30516E+01 -7.03210E+01 -6.66024E+01 -7.60954E+01 -7.14101E+01
  -6.42127E+01 -6.61369E+01 -4.95156E+01 -6.97536E+01 -5.99966E+01 -6.31736E+01 -7.27925E+01 -6.53165E+01 -7.36724E+01 -5.79060E+01
  -5.33607E+01 -3.66032E+01 -3.83129E+01 -3.94770E+01 -4.34120E+01 -5.08882E+01 -3.08873E+01 -2.79312E+01 -2.99960E+01 -5.27921E+01
  -5.62638E+01 -6.91481E+01 -8.94917E+01 -7.76405E+01 -8.10050E+01 -8.83098E+01 -8.62406E+01 -8.65735E+01 -9.07976E+01 -6.95106E+01
  -6.53347E+01 -6.97347E+01 -7.22436E+01 -6.01404E+01 -4.13569E+01 -6.64733E+01 -5.55427E+01 -4.62364E+01 -4.86187E+01 -5.17941E+01
  -6.32037E+01 -5.05383E+01 -4.07148E+01 -3.04253E+01 -3.72616E+01 -3.81038E+01 -4.56022E+01 -5.86374E+01 -6.69904E+01 -6.19106E+01
  -5.33569E+01 -6.83596E+01 -6.08790E+01 -6.75915E+01 -3.93551E+01 -6.11980E+00 -1.74619E+01  3.31246E+00  3.79520E+00 -2.24045E+01
  -4.21180E+01 -5.37876E+01 -4.35512E+01 -4.30448E+01 -4.74274E+01 -3.32390E+01 -4.59892E+01 -4.22005E+01 -4.50189E+01 -5.66227E+01
  -4.91573E+01 -7.07146E+01 -5.84787E+01 -8.27091E+01 -8.85989E+01 -8.59557E+01 -1.20214E+02 -1.00947E+02 -1.10508E+02 -1.04351E+02
  -1.07926E+02 -9.83925E+01 -7.52399E+01 -7.99282E+01 -6.11210E+01 -6.59923E+01 -5.80511E+01 -6.26387E+01 -7.48793E+01 -8.57590E+01
  -8.64225E+01 -8.22578E+01 -9.58493E+01 -9.33190E+01 -1.05135E+02 -1.38548E+02 -1.39224E+02  3.85391E+00  1.06349E+02  9.87641E+01
   1.14764E+02  9.99241E+01  9.43385E+01  7.62773E+01  6.48937E+01  7.05281E+01  5.48284E+01  5.07060E+01  4.15372E+01  3.95171E+01
   3.30836E+01  3.12426E+01  4.83046E+01  5.40020E+01  4.47061E+01  4.05941E+01  3.98397E+01  4.02845E+01  3.82323E+01  4.18839E+01
   3.93866E+01  2.63554E+01  5.18791E+01  4.50629E+01  3.11491E+01  4.47200E+01  3.11439E+01  3.99820E+01  3.77406E+01  3.68118E+01
   4.54595E+01  4.12533E+01  3.85790E+01  2.01132E+01  2.53672E+01  2.24803E+01  1.77106E+01  1.83489E+01 -2.20256E+00 -3.91208E+00
  -5.15054E+00  2.72692E+00  4.67251E+00  1.96735E+00  1.21491E+01  2.60755E+00  1.14668E+01  2.51259E+01  2.34689E+01  3.05095E+01
   3.21628E+01  3.40805E+01  2.57279E+01  1.42036E+01  1.30642E+01  1.33846E+01  2.19553E+01  1.50406E+01  6.83334E-01 -1.09728E+01
  -1.74715E+01 -3.37264E+01 -5.90393E+01 -6.42440E+01 -8.98673E+01 -1.07096E+02 -1.26805E+02 -1.50822E+02 -1.55073E+02 -1.59582E+02
  -1.46143E+02 -1.60391E+02 -1.54354E+02 -1.39959E+02 -1.57001E+02 -1.43907E+02 -1.26400E+02 -1.22709E+02 -1.05237E+02 -8.83884E+01
  -9.11484E+01 -8.42001E+01 -1.12363E+02 -1.12977E+02 -8.57268E+01 -1.03259E+02 -8.73921E+01 -8.84135E+01 -9.68343E+01 -8.85314E+01
  -8.08621E+01 -6.05408E+01 -6.80660E+01 -7.02371E+01 -6.28291E+01 -7.21323E+01 -6.99429E+01 -7.18697E+01 -7.64818E+01 -6.76292E+01
  -7.08845E+01 -6.15433E+01 -6.26800E+01 -6.14772E+01 -4.98315E+01 -5.38769E+01 -5.16785E+01 -4.69695E+01 -2.67979E+01 -3.01014E+01
  -2.82285E+01 -2.75766E+01 -3.04169E+01 -2.08243E+01 -1.48324E+01  6.53202E+00 -5.03691E+00  8.04755E+00  1.34015E+01  1.19083E+01
   4.00152E+01  3.19175E+01  3.48463E+01  6.35538E+01  6.75717E+01  5.72408E+01  8.23347E+01  8.62642E+01  8.95470E+01  8.94667E+01
   7.77197E+01  7.37391E+01  4.04991E+01  3.38550E+01  2.64117E+01  2.85080E+01  2.27129E+01  1.15086E+01  1.09146E+01 -5.89595E+00
  -6.03318E+00 -2.29176E+01 -3.08311E+01 -3.64246E+01 -3.88630E+01 -3.93721E+01 -4.68340E+01 -4.79340E+01 -5.58787E+01 -5.64109E+01
  -6.51861E+01 -5.49010E+01 -4.22363E+01 -5.01377E+01 -5.76661E+01 -5.05542E+01 -3.92814E+01 -4.37290E+01 -4.84350E+01 -5.42099E+01
  -5.34933E+01 -4.50674E+01 -3.65386E+01 -4.25154E+01 -5.24740E+01 -5.62130E+01 -5.06323E+01 -4.81660E+01 -5.15996E+01 -5.05586E+01
  -4.99201E+01 -4.36622E+01 -5.42218E+01 -4.00548E+01 -3.78782E+01 -4.97400E+01 -3.11757E+01 -4.23198E+01 -4.53632E+01 -5.00032E+01
  -5.12211E+01 -4.22503E+01 -4.64618E+01 -3.52411E+01 -3.53429E+01 -3.72823E+01 -4.45560E+01 -4.25019E+01 -3.27254E+01 -5.26529E+01
  -4.80756E+01 -3.68504E+01 -4.79247E+01 -4.54047E+01 -4.13039E+01 -3.50772E+01 -3.88918E+01 -4.29762E+01 -2.32184E+01 -3.01817E+01
  -5.09002E+01 -3.54191E+01 -2.96218E+01 -4.74893E+01 -3.25817E+01 -2.81682E+01 -4.31616E+01 -3.86132E+01 -4.41462E+01 -3.84439E+01
  -3.44763E+01 -3.21499E+01 -2.72469E+01 -3.35208E+01 -2.61414E+01 -4.15976E+01 -4.29732E+01 -2.51241E+01 -3.95402E+01 -3.39585E+01
 NY points of the fit to the data follow
  -1.15607E+02 -1.19957E+02 -1.26280E+02 -1.31282E+02 -1.28698E+02 -1.17527E+02 -1.05466E+02 -1.00083E+02 -1.01206E+02 -1.04716E+02
  -1.08242E+02 -1.11681E+02 -1.15098E+02 -1.18759E+02 -1.23948E+02 -1.31190E+02 -1.37206E+02 -1.43981E+02 -1.55860E+02 -1.68921E+02
  -1.69971E+02 -1.53398E+02 -1.28903E+02 -1.06236E+02 -8.84799E+01 -7.63937E+01 -6.77627E+01 -6.13743E+01 -5.61316E+01 -5.29808E+01
  -5.23095E+01 -5.28850E+01 -5.43922E+01 -5.75710E+01 -6.32234E+01 -7.02878E+01 -7.88012E+01 -8.89694E+01 -1.02765E+02 -1.18428E+02
  -1.29395E+02 -1.29294E+02 -1.17340E+02 -9.88721E+01 -7.91311E+01 -6.09105E+01 -4.73525E+01 -3.86342E+01 -3.44798E+01 -3.31858E+01
  -3.39218E+01 -3.68751E+01 -4.20987E+01 -5.08292E+01 -6.18837E+01 -6.94630E+01 -7.32733E+01 -7.86196E+01 -8.53605E+01 -8.65158E+01
  -8.07808E+01 -7.43653E+01 -6.65060E+01 -5.47878E+01 -4.32981E+01 -3.48196E+01 -3.24653E+01 -4.07832E+01 -5.84311E+01 -7.41045E+01
  -7.83211E+01 -7.56305E+01 -7.14117E+01 -6.27404E+01 -4.91596E+01 -3.57280E+01 -2.67502E+01 -2.09022E+01 -1.73226E+01 -1.64549E+01
  -2.06147E+01 -2.94048E+01 -4.13856E+01 -5.28858E+01 -5.94923E+01 -5.93512E+01 -5.29285E+01 -4.29182E+01 -3.32395E+01 -2.43488E+01
  -1.69483E+01 -1.01171E+01 -4.03221E+00  1.35551E+00  5.75651E+00  1.01425E+01  1.44195E+01  1.62503E+01  1.56318E+01  1.58264E+01
   1.50645E+01  9.89576E+00 -1.06334E+00 -1.42121E+01 -3.07772E+01 -4.83284E+01 -5.44827E+01 -5.43930E+01 -7.01916E+01 -1.11184E+02
  -1.51780E+02 -1.63220E+02 -1.52528E+02 -1.37024E+02 -1.23528E+02 -1.10519E+02 -9.65385E+01 -8.49385E+01 -7.50376E+01 -6.60969E+01
  -5.74310E+01 -4.85834E+01 -3.91315E+01 -2.88526E+01 -1.72657E+01 -3.49192E+00  1.23895E+01  2.27857E+01  3.50919E+01  5.68405E+01
   7.08250E+01  4.37090E+01 -2.10737E+01 -7.89038E+01 -1.06379E+02 -1.15707E+02 -1.20159E+02 -1.23711E+02 -1.22423E+02 -1.19973E+02
  -1.17836E+02 -1.16036E+02 -1.14620E+02 -1.13344E+02 -1.11780E+02 -1.09712E+02 -1.06998E+02 -1.03758E+02 -1.00284E+02 -9.68997E+01
  -9.38103E+01 -9.10659E+01 -8.85014E+01 -8.56436E+01 -8.23190E+01 -7.90157E+01 -7.65708E+01 -7.53503E+01 -7.45781E+01 -7.28761E+01
  -7.00053E+01 -6.75990E+01 -6.74403E+01 -6.87472E+01 -6.90704E+01 -6.75383E+01 -6.55384E+01 -6.50377E+01 -6.52674E+01 -6.19768E+01
  -5.20254E+01 -3.96190E+01 -3.38916E+01 -3.68238E+01 -4.01478E+01 -3.66956E+01 -3.06583E+01 -3.10294E+01 -3.95160E+01 -5.03158E+01
  -5.87431E+01 -6.51561E+01 -7.07891E+01 -7.51294E+01 -7.76949E+01 -7.87019E+01 -7.89069E+01 -7.89649E+01 -7.83807E+01 -7.61486E+01
  -7.41425E+01 -7.29407E+01 -6.93641E+01 -6.20623E+01 -5.51144E+01 -5.26521E+01 -5.04283E+01 -4.55404E+01 -4.15025E+01 -4.08818E+01
  -4.16360E+01 -3.90119E+01 -3.45509E+01 -3.31573E+01 -3.47146E+01 -3.76550E+01 -4.13482E+01 -4.69554E+01 -5.37864E+01 -6.01681E+01
  -6.42146E+01 -6.58335E+01 -6.40814E+01 -5.70883E+01 -4.49577E+01 -3.10362E+01 -2.03207E+01 -1.43156E+01 -1.27667E+01 -1.57526E+01
  -1.97748E+01 -2.22713E+01 -2.22557E+01 -2.09027E+01 -2.02631E+01 -2.11264E+01 -2.43922E+01 -3.05237E+01 -3.88758E+01 -4.92263E+01
  -6.07288E+01 -7.20923E+01 -8.28061E+01 -9.21744E+01 -9.94339E+01 -1.03868E+02 -1.06074E+02 -1.06153E+02 -1.04596E+02 -1.02221E+02
  -9.94231E+01 -9.47908E+01 -8.79414E+01 -8.02585E+01 -7.31606E+01 -6.84855E+01 -6.74103E+01 -6.99098E+01 -7.44551E+01 -7.98628E+01
  -9.10714E+01 -1.06547E+02 -1.07419E+02 -1.02376E+02 -1.13007E+02 -1.27989E+02 -9.84613E+01 -1.96629E+01  5.18803E+01  8.42748E+01
   9.17479E+01  9.22076E+01  9.16291E+01  8.47096E+01  7.71930E+01  7.04245E+01  6.41293E+01  5.83805E+01  5.33746E+01  4.93687E+01
   4.66087E+01  4.49739E+01  4.43463E+01  4.43166E+01  4.43620E+01  4.43285E+01  4.40039E+01  4.34730E+01  4.25627E+01  4.10232E+01
   3.89282E+01  3.65228E+01  3.40341E+01  3.13792E+01  2.84538E+01  2.53607E+01  2.22068E+01  1.88590E+01  1.51142E+01  1.08875E+01
   6.36559E+00  1.72974E+00 -2.92807E+00 -7.25642E+00 -1.06834E+01 -1.26947E+01 -1.31374E+01 -1.24058E+01 -1.09834E+01 -9.12874E+00
  -6.85180E+00 -4.30338E+00 -1.71557E+00  7.87559E-01  3.16010E+00  5.42051E+00  7.75450E+00  1.03807E+01  1.32656E+01  1.60760E+01
   1.86246E+01  2.10462E+01  2.35484E+01  2.60701E+01  2.84724E+01  3.08530E+01  3.32511E+01  3.51901E+01  3.48375E+01  3.60335E+01
   3.48252E+01  2.13630E+01 -1.07571E+01 -5.45979E+01 -9.71693E+01 -1.30396E+02 -1.46814E+02 -1.46576E+02 -1.40507E+02 -1.34832E+02
  -1.32203E+02 -1.29760E+02 -1.27096E+02 -1.24141E+02 -1.19826E+02 -1.14265E+02 -1.08185E+02 -1.02391E+02 -9.72470E+01 -9.28397E+01
  -8.90117E+01 -8.55029E+01 -8.20682E+01 -7.85265E+01 -7.49200E+01 -7.15022E+01 -6.85564E+01 -6.62859E+01 -6.47646E+01 -6.42269E+01
  -6.47594E+01 -6.64634E+01 -6.93591E+01 -7.30722E+01 -7.67275E+01 -7.95175E+01 -8.10174E+01 -8.11457E+01 -7.99065E+01 -7.74926E+01
  -7.40944E+01 -6.99435E+01 -6.52966E+01 -6.04719E+01 -5.57366E+01 -5.11600E+01 -4.67182E+01 -4.23075E+01 -3.78277E+01 -3.33876E+01
  -2.89490E+01 -2.44741E+01 -1.97718E+01 -1.46860E+01 -9.12757E+00 -3.15287E+00  3.30748E+00  1.05112E+01  1.84585E+01  2.68041E+01
   3.54793E+01  4.46230E+01  5.41691E+01  6.33730E+01  7.14138E+01  7.73415E+01  8.01292E+01  7.87350E+01  7.30234E+01  6.42802E+01
   5.43306E+01  4.44917E+01  3.53918E+01  2.73084E+01  1.99574E+01  1.24356E+01  4.16115E+00 -4.78195E+00 -1.40424E+01 -2.30842E+01
  -3.12140E+01 -3.78773E+01 -4.31860E+01 -4.73169E+01 -5.03171E+01 -5.22631E+01 -5.35060E+01 -5.44190E+01 -5.51784E+01 -5.57383E+01
  -5.59712E+01 -5.58380E+01 -5.55723E+01 -5.53204E+01 -5.49268E+01 -5.42757E+01 -5.37014E+01 -5.33872E+01 -5.30277E+01 -5.23435E+01
  -5.16039E+01 -5.11187E+01 -5.07092E+01 -5.01740E+01 -4.96053E+01 -4.91938E+01 -4.88507E+01 -4.83243E+01 -4.75934E+01 -4.68934E+01
  -4.63865E+01 -4.60717E+01 -4.58526E+01 -4.56082E+01 -4.52373E+01 -4.47269E+01 -4.41754E+01 -4.36337E+01 -4.31356E+01 -4.26902E+01
  -4.22503E+01 -4.18140E+01 -4.14505E+01 -4.12755E+01 -4.12009E+01 -4.10283E+01 -4.07000E+01 -4.02886E+01 -3.98856E+01 -3.95082E+01
  -3.92805E+01 -3.90991E+01 -3.88092E+01 -3.83670E+01 -3.79066E+01 -3.74781E+01 -3.71318E+01 -3.68017E+01 -3.64426E+01 -3.60680E+01
  -3.58059E+01 -3.56875E+01 -3.56181E+01 -3.54944E+01 -3.53535E+01 -3.50864E+01 -3.46119E+01 -3.39153E+01 -3.32843E+01 -3.29606E+01
  -3.29717E+01 -3.30730E+01 -3.30160E+01 -3.28059E+01 -3.25745E+01 -3.23024E+01 -3.20162E+01 -3.18036E+01 -3.16955E+01 -3.14776E+01
 NY background values follow
    -8.492E+01   -8.464E+01   -8.435E+01   -8.406E+01   -8.377E+01   -8.348E+01   -8.319E+01   -8.289E+01   -8.259E+01   -8.229E+01
    -8.199E+01   -8.169E+01   -8.138E+01   -8.107E+01   -8.076E+01   -8.045E+01   -8.013E+01   -7.981E+01   -7.949E+01   -7.916E+01
    -7.884E+01   -7.851E+01   -7.817E+01   -7.784E+01   -7.750E+01   -7.715E+01   -7.681E+01   -7.646E+01   -7.610E+01   -7.574E+01
    -7.538E+01   -7.502E+01   -7.465E+01   -7.428E+01   -7.390E+01   -7.352E+01   -7.314E+01   -7.275E+01   -7.237E+01   -7.198E+01
    -7.158E+01   -7.119E+01   -7.079E+01   -7.039E+01   -6.998E+01   -6.958E+01   -6.917E+01   -6.877E+01   -6.836E+01   -6.795E+01
    -6.753E+01   -6.712E+01   -6.670E+01   -6.629E+01   -6.587E+01   -6.545E+01   -6.504E+01   -6.462E+01   -6.420E+01   -6.378E+01
    -6.336E+01   -6.295E+01   -6.253E+01   -6.211E+01   -6.169E+01   -6.127E+01   -6.085E+01   -6.044E+01   -6.002E+01   -5.960E+01
    -5.918E+01   -5.877E+01   -5.835E+01   -5.793E+01   -5.751E+01   -5.710E+01   -5.668E+01   -5.626E+01   -5.585E+01   -5.543E+01
    -5.501E+01   -5.460E+01   -5.418E+01   -5.376E+01   -5.335E+01   -5.293E+01   -5.252E+01   -5.210E+01   -5.169E+01   -5.127E+01
    -5.085E+01   -5.044E+01   -5.002E+01   -4.961E+01   -4.920E+01   -4.878E+01   -4.837E+01   -4.796E+01   -4.755E+01   -4.714E+01
    -4.674E+01   -4.633E+01   -4.593E+01   -4.553E+01   -4.513E+01   -4.474E+01   -4.434E+01   -4.395E+01   -4.357E+01   -4.318E+01
    -4.280E+01   -4.243E+01   -4.205E+01   -4.168E+01   -4.132E+01   -4.096E+01   -4.060E+01   -4.025E+01   -3.991E+01   -3.956E+01
    -3.923E+01   -3.890E+01   -3.857E+01   -3.825E+01   -3.794E+01   -3.763E+01   -3.733E+01   -3.703E+01   -3.674E+01   -3.646E+01
    -3.618E+01   -3.591E+01   -3.565E+01   -3.540E+01   -3.515E+01   -3.491E+01   -3.468E+01   -3.445E+01   -3.424E+01   -3.403E+01
    -3.383E+01   -3.364E+01   -3.346E+01   -3.328E+01   -3.312E+01   -3.296E+01   -3.282E+01   -3.268E+01   -3.255E+01   -3.244E+01
    -3.233E+01   -3.223E+01   -3.215E+01   -3.207E+01   -3.200E+01   -3.194E+01   -3.189E+01   -3.184E+01   -3.180E+01   -3.177E+01
    -3.175E+01   -3.173E+01   -3.172E+01   -3.171E+01   -3.171E+01   -3.171E+01   -3.172E+01   -3.173E+01   -3.174E+01   -3.176E+01
    -3.178E+01   -3.180E+01   -3.182E+01   -3.185E+01   -3.187E+01   -3.190E+01   -3.193E+01   -3.195E+01   -3.198E+01   -3.201E+01
    -3.203E+01   -3.206E+01   -3.208E+01   -3.210E+01   -3.212E+01   -3.213E+01   -3.215E+01   -3.216E+01   -3.217E+01   -3.217E+01
    -3.218E+01   -3.218E+01   -3.218E+01   -3.217E+01   -3.216E+01   -3.215E+01   -3.214E+01   -3.212E+01   -3.210E+01   -3.207E+01
    -3.204E+01   -3.201E+01   -3.197E+01   -3.193E+01   -3.188E+01   -3.183E+01   -3.177E+01   -3.171E+01   -3.164E+01   -3.157E+01
    -3.149E+01   -3.141E+01   -3.132E+01   -3.123E+01   -3.113E+01   -3.104E+01   -3.094E+01   -3.083E+01   -3.073E+01   -3.062E+01
    -3.051E+01   -3.040E+01   -3.030E+01   -3.019E+01   -3.008E+01   -2.998E+01   -2.987E+01   -2.977E+01   -2.968E+01   -2.958E+01
    -2.949E+01   -2.941E+01   -2.933E+01   -2.925E+01   -2.918E+01   -2.912E+01   -2.907E+01   -2.902E+01   -2.898E+01   -2.894E+01
    -2.892E+01   -2.891E+01   -2.890E+01   -2.890E+01   -2.892E+01   -2.895E+01   -2.898E+01   -2.903E+01   -2.909E+01   -2.916E+01
    -2.925E+01   -2.934E+01   -2.945E+01   -2.958E+01   -2.971E+01   -2.987E+01   -3.003E+01   -3.021E+01   -3.041E+01   -3.062E+01
    -3.085E+01   -3.109E+01   -3.135E+01   -3.163E+01   -3.193E+01   -3.224E+01   -3.257E+01   -3.292E+01   -3.329E+01   -3.368E+01
    -3.409E+01   -3.451E+01   -3.496E+01   -3.543E+01   -3.591E+01   -3.641E+01   -3.693E+01   -3.747E+01   -3.802E+01   -3.860E+01
    -3.919E+01   -3.979E+01   -4.041E+01   -4.105E+01   -4.171E+01   -4.237E+01   -4.306E+01   -4.376E+01   -4.447E+01   -4.520E+01
    -4.594E+01   -4.669E+01   -4.746E+01   -4.824E+01   -4.903E+01   -4.984E+01   -5.065E+01   -5.148E+01   -5.232E+01   -5.317E+01
    -5.403E+01   -5.490E+01   -5.578E+01   -5.666E+01   -5.755E+01   -5.844E+01   -5.934E+01   -6.023E+01   -6.111E+01   -6.200E+01
    -6.287E+01   -6.374E+01   -6.460E+01   -6.545E+01   -6.628E+01   -6.710E+01   -6.790E+01   -6.868E+01   -6.944E+01   -7.018E+01
    -7.090E+01   -7.159E+01   -7.225E+01   -7.288E+01   -7.348E+01   -7.405E+01   -7.459E+01   -7.508E+01   -7.554E+01   -7.596E+01
    -7.634E+01   -7.668E+01   -7.697E+01   -7.723E+01   -7.744E+01   -7.762E+01   -7.775E+01   -7.785E+01   -7.791E+01   -7.794E+01
    -7.793E+01   -7.788E+01   -7.780E+01   -7.768E+01   -7.753E+01   -7.735E+01   -7.714E+01   -7.689E+01   -7.661E+01   -7.631E+01
    -7.597E+01   -7.560E+01   -7.521E+01   -7.479E+01   -7.434E+01   -7.387E+01   -7.336E+01   -7.284E+01   -7.229E+01   -7.171E+01
    -7.112E+01   -7.050E+01   -6.986E+01   -6.920E+01   -6.852E+01   -6.782E+01   -6.711E+01   -6.638E+01   -6.563E+01   -6.488E+01
    -6.411E+01   -6.333E+01   -6.254E+01   -6.175E+01   -6.094E+01   -6.013E+01   -5.931E+01   -5.850E+01   -5.767E+01   -5.685E+01
    -5.602E+01   -5.520E+01   -5.438E+01   -5.356E+01   -5.274E+01   -5.193E+01   -5.112E+01   -5.033E+01   -4.954E+01   -4.876E+01
    -4.799E+01   -4.723E+01   -4.649E+01   -4.575E+01   -4.503E+01   -4.432E+01   -4.362E+01   -4.293E+01   -4.226E+01   -4.160E+01
    -4.095E+01   -4.031E+01   -3.969E+01   -3.908E+01   -3.848E+01   -3.790E+01   -3.733E+01   -3.678E+01   -3.624E+01   -3.571E+01
    -3.520E+01   -3.470E+01   -3.422E+01   -3.375E+01   -3.330E+01   -3.287E+01   -3.245E+01   -3.204E+01   -3.165E+01   -3.128E+01
    -3.092E+01   -3.058E+01   -3.026E+01   -2.995E+01   -2.965E+01   -2.937E+01   -2.910E+01   -2.885E+01   -2.861E+01   -2.838E+01
    -2.816E+01   -2.796E+01   -2.777E+01   -2.758E+01   -2.741E+01   -2.725E+01   -2.710E+01   -2.695E+01   -2.682E+01   -2.669E+01
    -2.657E+01   -2.646E+01   -2.635E+01   -2.625E+01   -2.616E+01   -2.608E+01   -2.599E+01   -2.592E+01   -2.585E+01   -2.578E+01
    -2.571E+01   -2.565E+01   -2.559E+01   -2.554E+01   -2.548E+01   -2.543E+01   -2.539E+01   -2.534E+01   -2.530E+01   -2.526E+01
    -2.522E+01   -2.519E+01   -2.515E+01   -2.512E+01   -2.509E+01   -2.506E+01   -2.504E+01   -2.501E+01   -2.498E+01   -2.496E+01
    -2.494E+01   -2.491E+01   -2.489E+01   -2.487E+01   -2.485E+01   -2.483E+01   -2.481E+01   -2.479E+01   -2.477E+01   -2.474E+01
 Mac      Conc. = 3.30E-04
  -1.08211E+02 -1.08438E+02 -1.08593E+02 -1.08818E+02 -1.09291E+02 -1.10189E+02 -1.11547E+02 -1.13120E+02 -1.14544E+02 -1.15561E+02
  -1.16155E+02 -1.16436E+02 -1.16536E+02 -1.16772E+02 -1.17713E+02 -1.18967E+02 -1.18927E+02 -1.16510E+02 -1.12492E+02 -1.08239E+02
  -1.03982E+02 -9.97544E+01 -9.61521E+01 -9.34967E+01 -9.14690E+01 -8.94960E+01 -8.73335E+01 -8.49386E+01 -8.24652E+01 -8.02295E+01
  -7.83196E+01 -7.66263E+01 -7.52101E+01 -7.43235E+01 -7.39522E+01 -7.35104E+01 -7.21842E+01 -6.98290E+01 -6.72779E+01 -6.54782E+01
  -6.45810E+01 -6.38972E+01 -6.28148E+01 -6.12714E+01 -5.96688E+01 -5.84772E+01 -5.78440E+01 -5.77763E+01 -5.82094E+01 -5.89835E+01
  -5.98884E+01 -6.06700E+01 -6.12033E+01 -6.14724E+01 -6.15513E+01 -6.12557E+01 -6.03009E+01 -5.88570E+01 -5.72687E+01 -5.56003E+01
  -5.37826E+01 -5.21384E+01 -5.11712E+01 -5.09592E+01 -5.12389E+01 -5.15176E+01 -5.15729E+01 -5.16188E+01 -5.16529E+01 -5.10604E+01
  -4.92803E+01 -4.66042E+01 -4.39734E+01 -4.18828E+01 -4.03957E+01 -3.94971E+01 -3.92028E+01 -3.93836E+01 -3.96529E+01 -3.97928E+01
  -3.99036E+01 -3.98884E+01 -3.95268E+01 -3.87029E+01 -3.76342E+01 -3.64660E+01 -3.52116E+01 -3.39545E+01 -3.28152E+01 -3.17921E+01
  -3.09157E+01 -3.01791E+01 -2.96504E+01 -2.94988E+01 -3.00127E+01 -3.12674E+01 -3.31420E+01 -3.53695E+01 -3.76009E+01 -3.95998E+01
  -4.15697E+01 -4.39081E+01 -4.67692E+01 -5.02148E+01 -5.46503E+01 -6.03827E+01 -6.68058E+01 -7.23698E+01 -7.58444E+01 -7.70712E+01
