 
 $NMID
 ID=''
 FMTDAT='(2E13.5)'
 TRAMP=   1.00000E+0
 VOLUME=   1.00000E+0
 $END
   5.15907E+3  -1.51028E+4
  -2.41371E+3  -4.53665E+3
   1.37630E+2   3.50349E+3
   7.72154E+3   2.97074E+3
  -2.43350E+2   1.32598E+3
  -3.93190E+3   7.91075E+2
   1.90812E+3  -2.06089E+3
   2.09974E+3  -7.09845E+2
   8.45419E+2   2.65069E+3
   7.67574E+2   1.00026E+3
  -1.49412E+3   5.96439E+2
  -8.54994E+2   1.43903E+3
   6.59450E+2  -1.10905E+3
  -1.69466E+3  -8.41877E+2
  -2.30305E+3   8.03352E+2
   6.18139E+2  -1.57875E+3
   1.79624E+3  -1.61789E+3
   1.34993E+3   8.46711E+2
   5.53189E+2  -3.27185E+2
  -3.72994E+2  -4.66626E+2
  -3.78390E+2   1.74783E+3
   2.36501E+2   4.39662E+2
   6.43011E+2  -6.54546E+2
   8.01432E+2   9.77880E+2
  -1.46714E+3   6.02328E+2
  -2.04208E+3  -1.44692E+3
   1.12411E+3  -8.90418E+2
   1.20048E+3   1.55318E+3
  -1.90034E+3   7.07990E+2
  -1.21189E+3  -1.81445E+3
   1.34925E+3  -1.28914E+3
   8.09999E+2   1.25046E+3
  -1.03137E+3   1.52804E+3
  -8.13725E+2  -9.57025E+1
  -5.13398E+1  -4.16050E+2
   1.18363E+2  -5.75763E+2
   2.79744E+2  -5.01332E+2
   4.90973E+2   5.18365E+1
   3.91668E+2   7.68435E+2
   2.47046E+2   4.81420E+2
  -3.94273E+1   4.58228E+2
  -7.21476E+1   2.57025E+2
  -4.03593E+2  -2.85723E+2
  -7.43765E+2  -2.64359E+2
  -7.48329E+2  -4.19236E+2
   2.99491E+2  -9.18352E+2
   1.41301E+3  -5.53432E+2
   1.02450E+3   6.83681E+2
  -5.45036E+2   1.07029E+3
  -6.89889E+2   1.29641E+2
   4.59510E+1  -1.58252E+2
   2.58915E+2   4.55270E+2
  -2.72573E+2  -1.08577E+2
  -6.98557E+1  -4.28560E+2
   8.90114E+1  -6.70756E+1
   5.34534E+1   2.25062E+2
  -7.98766E+1   1.40032E+2
   2.27248E+1   1.55546E+2
  -1.61291E+2   1.11232E+1
  -2.80379E+2   1.89260E+2
  -4.47616E+2  -2.99246E+2
   8.33721E+1  -4.17963E+2
   4.92653E+2  -1.88193E+2
   5.25547E+2   2.95787E+2
   5.24212E+1   2.72875E+2
  -1.59614E+1   7.77525E+1
   1.73762E+2   8.94607E+1
   1.53551E+0   9.94850E+1
  -2.37789E+2  -1.98176E+2
  -1.40768E+2  -5.88437E+2
   1.39402E+2  -1.17862E+2
  -1.35330E+2   4.03544E+2
  -3.25304E+2   2.16439E+2
  -1.33850E+2  -2.76062E+2
   1.16117E+2  -1.57727E+2
   1.17868E+2   1.35820E+2
  -3.37531E+2  -3.55560E+1
  -1.51828E+2  -1.23599E+2
   1.27387E+2   8.07101E+1
  -4.03861E+1   1.74666E+2
   2.26356E+2  -1.04834E+2
   5.61079E+1  -1.46927E+1
  -1.23518E+2   9.36626E+1
  -1.55914E+2   2.87689E+2
  -1.52206E+2   4.89056E+1
   1.46028E+2  -8.60464E+0
   1.48431E+2   9.77112E+0
  -7.00937E+1  -8.13653E+1
  -3.08943E+2  -1.79843E+2
   1.61329E+2  -1.27630E+2
   2.62788E+2   1.42362E+1
   1.14535E+2  -1.36084E+2
   1.25040E+2  -2.54258E+2
   1.02620E+2  -2.47516E+2
   1.15264E+2   3.29851E+1
   1.88778E+2  -3.45407E+1
   1.35704E+2   1.17631E+1
   3.29950E+2  -9.30561E+1
   8.82184E+1  -8.77894E+1
  -3.03628E+2   2.57485E+2
   1.14278E+2   4.82441E+1
   2.32380E+1  -1.73674E+2
   2.97327E+2   1.47989E+2
   5.77567E+1  -8.98037E+1
  -2.12639E+2  -5.20310E+1
  -2.85030E+2   6.33821E+1
   1.63129E+2   2.11957E+1
   1.89483E+2  -1.56674E+2
   2.37825E+2  -1.74724E+2
   1.03180E+2  -1.02260E+2
  -2.90783E+0   1.41061E+2
  -9.73023E+1   2.08263E+2
  -1.46554E+2   1.92649E+2
   1.55511E+2   1.36813E+2
   1.64833E+2  -1.43686E+2
  -2.98805E+2  -1.67798E+2
  -1.44717E+2   1.02430E+2
   3.04331E+2  -2.09449E+0
   2.83519E+2   3.40001E+1
   6.24338E+1   2.32677E+1
  -4.43518E+1  -2.59227E+2
  -1.66880E+2  -3.61123E+1
  -1.48052E+2  -6.07828E+0
   2.02470E+2   1.31951E+2
  -1.85332E+2  -2.28690E+2
  -1.06123E+2  -3.83366E+2
  -4.13739E+1  -1.63940E+2
   5.76297E+0   8.99133E+1
   2.27262E+2   1.99470E+2
  -8.03665E+1   1.46759E+2
  -3.21241E+1   1.62749E+1
   3.72661E+1  -1.60497E+2
  -4.01056E+1  -8.99579E+1
  -1.45987E+2   1.98184E+2
  -7.66337E+1  -6.26803E+1
   1.77976E+2   2.40747E+2
  -8.31656E+0  -7.77262E+0
  -2.09017E+1  -9.48916E+1
   1.50919E-1  -1.90567E+2
   2.44345E+2   6.31189E+0
   9.11065E+1   3.71089E+1
   3.41706E+1  -9.87984E+1
  -8.33916E+1   8.98513E+1
   1.00350E+2  -3.81736E+1
  -3.59497E+1   1.03849E+2
  -5.64430E+1   1.25393E+2
  -5.41072E+1   1.05055E+2
  -8.66231E+1  -2.64521E+2
  -7.02297E+1  -6.87985E+1
  -7.40964E+1  -2.94129E+1
  -1.70328E+2  -1.05939E+2
   6.99498E+1  -1.30008E+1
  -3.79589E+1   1.42583E+2
   3.56692E+1  -5.55590E+1
   9.40726E+1  -6.85921E+0
   2.89872E+1   1.41203E+2
  -1.49903E+2   6.74007E+1
   4.36846E+0   1.15601E+2
  -2.38251E+2   3.02803E+2
  -1.52624E+2  -1.58328E+0
  -1.73166E+2   7.30800E+1
  -1.48040E+2   1.23665E+2
  -1.19410E+2  -2.78974E+1
   2.96608E+2  -9.21016E+0
   8.28156E+1   2.48674E+2
  -1.08190E+2  -2.47799E+1
   7.27688E+1  -7.98361E+1
   4.30624E+1  -6.28272E+1
  -2.31247E+2   5.35569E+1
  -1.08840E+0  -3.78173E+1
   4.97593E+1   5.05126E+1
   5.37850E+1  -2.32499E+2
  -1.10090E+2  -9.03898E+1
  -2.21316E+1   3.65430E+1
  -2.36658E+0   1.64919E+2
   8.29321E+1  -1.21121E+2
  -1.69992E+2  -3.37294E+1
  -2.10517E+1   2.70532E+1
   6.17318E+0   3.47822E+1
   9.11098E+1   6.26454E+1
   1.08139E+2  -2.08708E+2
   1.34966E+2  -4.72257E+1
   7.11190E+0   3.53407E+1
   1.33955E+2  -1.02286E+1
   2.13925E+1  -7.06017E+1
  -2.49479E+2   2.37958E+1
   6.99262E+1   2.56091E+1
   1.28760E+2  -1.43720E+2
   1.42994E+2   1.86895E+1
   2.97502E+2  -1.38547E+2
  -1.37103E+2   2.01613E+2
  -1.71619E+2  -2.07096E+2
  -8.57946E+1   4.47213E+1
   1.09826E+2   6.45842E+1
   5.53251E+1   7.42414E+1
   5.55023E+1   7.28415E+0
   5.53066E+1  -6.52212E+1
  -2.51117E+1   1.55005E+2
  -8.97055E+1  -4.36759E+1
  -1.06451E+2   3.82352E+1
  -6.17436E+1  -2.45315E+2
   2.16928E+2   8.36961E+1
   1.51183E+2   1.13076E+2
  -3.77272E+1   1.88402E+2
  -2.91633E+2   3.33795E+1
   1.71709E+2  -6.87709E+1
  -2.62705E+0  -8.48823E+0
  -5.51138E+0   1.07262E+2
  -6.38570E+1   1.93618E+2
   1.08202E+2   3.81816E+1
  -1.28729E+2   2.43361E+1
   4.22670E+1   8.64428E+1
  -3.07901E+0   8.40420E+1
   6.87683E+1   1.24393E+2
   1.26344E+1  -7.76343E+1
   1.00667E+2  -1.82900E+2
   2.51328E+1  -1.06083E+2
   7.38422E+1   3.31077E+2
  -1.95588E+2   2.79839E+2
   3.01140E+1   6.10016E+1
   5.48898E+1  -8.81252E+1
   1.31181E+2   4.43117E+1
   1.95592E+2  -5.59133E+1
   5.12144E+1   1.36714E+2
   1.44262E+2   4.01454E+1
   4.27527E+0   5.46263E+1
  -6.24212E+1   9.10368E+1
  -8.34901E+1  -1.73282E+2
  -1.18221E+2   1.58520E+2
  -1.30767E+2   7.44464E+1
   4.93755E+1  -1.69771E+1
   2.17962E+0   4.94177E+1
   2.37018E+1  -2.24510E+2
   1.40463E+2   1.68274E+1
   2.51057E+2   1.60331E+2
  -7.04162E+1   1.56214E+1
   1.13045E+2   1.19149E+2
  -6.04941E+1   5.13773E+1
   2.92788E+1   1.53686E+2
   7.57189E+1  -1.12822E+2
   1.02788E+2   8.28500E+1
  -8.80744E+0   1.14596E+2
  -8.24111E+1  -2.42758E+1
  -1.22116E+1  -5.95530E+1
   9.74352E+1   5.90658E+1
   1.52626E+2   4.18716E+1
   1.25246E+2   1.89258E+2
  -9.74793E+1  -5.00621E+1
   1.36739E+2   9.74974E+1
  -6.28417E+1   1.32401E+2
  -1.13968E+2  -1.66182E+2
   3.01854E+2  -3.43332E+1
   8.52506E+1   1.53893E+2
   1.31408E+0  -1.47070E+2
   2.74904E+2  -6.11609E+1
  -7.41028E+1   1.99609E+2
  -1.45997E+2   1.29738E+2
  -1.69652E+2  -8.47819E+0
  -6.43024E+1  -1.33948E+2
   1.36396E+2   2.39935E+2
   1.89678E+2   1.09073E+2
   5.31791E+1  -1.04213E+2
   2.25056E+2  -6.71120E+0
   6.68760E+1  -5.23859E+1
   7.82270E+1   1.26307E+1
   1.12012E+2   7.22436E+1
   1.11975E+2   4.32966E+1
  -5.87120E+0  -1.00825E+2
   3.67570E+2  -5.81632E+1
  -6.81745E+1  -6.50288E+1
  -2.47618E+1  -3.63124E+2
  -7.51801E+0  -3.07843E+1
   3.42888E+1  -1.23060E+1
   2.12219E+2  -1.40137E+1
   2.12326E+2   7.69028E+0
   1.29714E+1  -1.08597E+2
   1.04025E+2  -5.41541E+1
   3.94646E+1   1.71741E+1
   1.46338E+2   2.39110E+1
  -1.26870E+1   8.88729E+0
  -7.06003E+0   2.27467E+1
   2.01685E+2  -2.16332E+2
   1.47917E+2  -2.78444E+1
   1.41693E+2   1.15827E+2
  -5.15864E+1  -1.52891E+2
  -1.25098E+2   1.62538E+2
   1.52654E+2  -6.62405E+1
   3.11546E+2  -1.08718E+1
   9.72038E+1   1.34362E+2
  -2.76370E+1  -8.38056E+1
   2.28419E+1  -4.57258E+1
  -5.80757E+1  -1.34722E+2
   4.91876E+1   2.34331E+2
  -1.14860E+2  -1.30106E+2
   1.22144E+1  -3.96822E+1
  -2.50900E+1  -9.08707E+1
   4.83324E+1   2.22990E+1
  -1.39586E+2   6.21810E+1
  -1.17927E+2  -2.89111E+1
  -1.38050E+2  -2.40810E+1
   1.73548E+2   1.02924E+1
  -1.70430E+2  -1.51571E+2
   1.40763E+2   1.93361E+1
  -1.17468E+1   5.43550E+1
   1.95758E+2  -3.84723E+1
   1.36125E+2   1.36723E+2
   1.59177E+2   3.81054E+1
  -2.54289E+2   1.04953E+2
  -4.88880E+1   1.79787E+2
   1.42171E+1  -2.82842E+2
   2.13024E+1  -2.85163E+1
  -2.13449E+2   1.45915E+2
   1.80664E+2   1.28139E+1
   1.22112E+2  -1.06349E+2
   2.30289E+2   5.00651E+1
  -1.07287E+2  -4.71981E+1
  -5.45862E+1  -1.29282E+2
  -1.40098E+2   4.45595E+0
   8.40481E+1  -1.39686E+2
   2.38090E+1   3.06025E+2
  -1.04856E+2   1.42829E+2
  -1.17227E+2   6.60116E+1
  -4.98880E+1  -4.04479E+1
   6.01529E+1   1.82576E+2
  -2.51784E+2  -1.76950E+1
  -4.94691E+1  -2.65097E+1
  -8.72641E+1   1.10273E+2
   5.17354E+1   8.27727E+1
  -1.23359E-2   1.30150E+2
  -2.76560E+1  -5.16237E+1
  -1.27321E+2   9.50176E+1
   3.34096E+1   5.82585E+1
  -1.29822E+2   8.62472E+0
   7.69881E+1  -2.58368E+2
  -3.43557E+0   1.51088E+2
  -4.65340E+1   1.02809E+2
   1.62397E+2  -8.87527E+1
  -1.10273E+1   9.57159E+1
  -3.90818E+1  -1.87319E+2
   1.34795E+0   1.64167E+2
   1.32906E+2   2.05069E+2
  -2.15423E+2   1.41818E+2
   9.84538E+1  -1.14141E+1
  -2.76051E+1  -1.20302E+2
  -5.41585E+1   6.80405E+1
  -6.97597E+1   4.69609E+0
  -1.15423E+1  -6.06464E+1
  -2.36480E+1  -1.25076E+2
   7.84542E+1   2.25308E+2
   1.95818E+2   8.98003E+1
   2.69670E+1   2.93261E+2
  -1.55084E+2  -3.83602E+0
   5.90385E-1   4.76723E+2
   2.43947E+2   4.86306E+1
   1.06652E+2   4.48810E+1
  -1.34147E+2  -2.91807E+1
   7.30873E+0   1.19441E+2
   9.25245E+1   1.33580E+2
   1.04734E+1  -7.73558E+1
  -9.12936E+1   1.40638E+1
  -2.30973E+2  -1.45919E+2
  -1.98413E+1  -5.20280E+1
  -5.13769E+0  -5.45047E+1
  -4.69582E+1   6.55244E+1
   2.31590E+2   9.68400E+1
   7.45864E+1   5.65945E+1
   1.43264E+2   1.48448E+2
