 LCModel (Version 6.3-1N) Copyright: S.W. Provencher.          Ref.: Magn. Reson. Med. 30:672-679 (1993).                
 Slice_N1@8_13  28-Feb-2025 11:43:41
 27 lines in following concentration table = NCONC+1
    Conc.  %SD /Cr+PCr  Metabolite                                         
 2.66E-04   4% 2.6E-04 Mac                                                 
    8.292  10%   8.000 Cr                                                  
    0.000 999%   0.000 PCr                                                 
    4.096  28%   3.952 Ins                                                 
   10.660  11%  10.285 NAA                                                 
    4.848  26%   4.677 Tau                                                 
    0.000 999%   0.000 PCho                                                
    1.399  29%   1.350 GPC                                                 
    7.971  16%   7.691 Glu                                                 
    5.348  20%   5.160 Gln                                                 
    0.000 999%   0.000 Ala                                                 
    4.484  39%   4.327 Asc                                                 
    3.627  30%   3.499 Asp                                                 
    0.275 232%   0.265 GABA                                                
    0.721 106%   0.695 Glc                                                 
    1.862  37%   1.797 GSH                                                 
    1.279  69%   1.234 Lac                                                 
    0.555 172%   0.535 NAAG                                                
    3.344  43%   3.226 PE                                                  
    1.399  29%   1.350 GPC+PCho                                            
   11.215   9%  10.820 NAA+NAAG                                            
   13.319  12%  12.850 Glu+Gln                                             
    8.292  10%   8.000 Cr+PCr                                              
   11.215   9%  10.820 NAA+NAAG                                            
    8.292  10%   8.000 Cr+PCr                                              
   13.319  12%  12.850 Glu+Gln                                             
   6 lines in following misc. output table
  FWHM = 0.057 ppm    S/N =   3                                            
  Data shift = 0.041 ppm                                                   
  Ph: 151 deg       0.0 deg/ppm                                            
  alphaB,S = 9.7E-01,   4.6E+01                                            
   19 spline knots.   Ns = 8(1)                                            
  ( 8) 4 infls.   ( 7) 1 extrs.                                            
  480 points on ppm-axis = NY
      4.100000     4.091866     4.083733     4.075600     4.067466     4.059333     4.051199     4.043066     4.034933     4.026799
      4.018666     4.010532     4.002399     3.994265     3.986132     3.977998     3.969864     3.961731     3.953597     3.945463
      3.937330     3.929196     3.921062     3.912929     3.904795     3.896662     3.888528     3.880394     3.872261     3.864127
      3.855993     3.847860     3.839726     3.831592     3.823459     3.815325     3.807191     3.799058     3.790924     3.782790
      3.774657     3.766523     3.758389     3.750256     3.742122     3.733989     3.725855     3.717721     3.709588     3.701454
      3.693320     3.685187     3.677053     3.668919     3.660786     3.652652     3.644518     3.636385     3.628251     3.620117
      3.611984     3.603850     3.595716     3.587583     3.579449     3.571316     3.563182     3.555048     3.546915     3.538781
      3.530647     3.522514     3.514380     3.506246     3.498113     3.489979     3.481845     3.473712     3.465578     3.457444
      3.449311     3.441177     3.433043     3.424910     3.416776     3.408643     3.400509     3.392375     3.384242     3.376108
      3.367974     3.359841     3.351707     3.343573     3.335440     3.327306     3.319172     3.311039     3.302905     3.294771
      3.286638     3.278504     3.270370     3.262237     3.254103     3.245970     3.237836     3.229702     3.221569     3.213435
      3.205301     3.197168     3.189034     3.180900     3.172767     3.164633     3.156499     3.148366     3.140232     3.132098
      3.123965     3.115831     3.107697     3.099564     3.091430     3.083297     3.075163     3.067029     3.058896     3.050762
      3.042628     3.034495     3.026361     3.018227     3.010094     3.001960     2.993826     2.985693     2.977559     2.969425
      2.961292     2.953158     2.945024     2.936891     2.928757     2.920624     2.912490     2.904356     2.896223     2.888089
      2.879955     2.871822     2.863688     2.855554     2.847421     2.839287     2.831153     2.823020     2.814886     2.806752
      2.798619     2.790485     2.782351     2.774218     2.766084     2.757951     2.749817     2.741683     2.733550     2.725416
      2.717282     2.709149     2.701015     2.692881     2.684748     2.676614     2.668480     2.660347     2.652213     2.644079
      2.635946     2.627812     2.619678     2.611545     2.603411     2.595278     2.587144     2.579010     2.570877     2.562743
      2.554609     2.546476     2.538342     2.530208     2.522075     2.513941     2.505807     2.497674     2.489540     2.481406
      2.473273     2.465139     2.457006     2.448872     2.440738     2.432605     2.424471     2.416337     2.408204     2.400070
      2.391936     2.383803     2.375669     2.367535     2.359402     2.351268     2.343134     2.335001     2.326867     2.318733
      2.310600     2.302466     2.294333     2.286199     2.278065     2.269932     2.261798     2.253664     2.245531     2.237397
      2.229263     2.221130     2.212996     2.204862     2.196729     2.188595     2.180461     2.172328     2.164194     2.156060
      2.147927     2.139793     2.131660     2.123526     2.115392     2.107259     2.099125     2.090991     2.082858     2.074724
      2.066590     2.058457     2.050323     2.042189     2.034056     2.025922     2.017788     2.009655     2.001521     1.993387
      1.985254     1.977120     1.968987     1.960853     1.952719     1.944586     1.936452     1.928318     1.920185     1.912051
      1.903917     1.895784     1.887650     1.879516     1.871383     1.863249     1.855115     1.846982     1.838848     1.830714
      1.822581     1.814447     1.806314     1.798180     1.790046     1.781913     1.773779     1.765645     1.757512     1.749378
      1.741244     1.733111     1.724977     1.716843     1.708710     1.700576     1.692442     1.684309     1.676175     1.668041
      1.659908     1.651774     1.643641     1.635507     1.627373     1.619240     1.611106     1.602972     1.594839     1.586705
      1.578571     1.570438     1.562304     1.554170     1.546037     1.537903     1.529769     1.521636     1.513502     1.505368
      1.497235     1.489101     1.480968     1.472834     1.464700     1.456567     1.448433     1.440299     1.432166     1.424032
      1.415898     1.407765     1.399631     1.391497     1.383364     1.375230     1.367096     1.358963     1.350829     1.342695
      1.334562     1.326428     1.318295     1.310161     1.302027     1.293894     1.285760     1.277626     1.269493     1.261359
      1.253225     1.245092     1.236958     1.228824     1.220691     1.212557     1.204423     1.196290     1.188156     1.180022
      1.171889     1.163755     1.155622     1.147488     1.139354     1.131221     1.123087     1.114953     1.106820     1.098686
      1.090552     1.082419     1.074285     1.066151     1.058018     1.049884     1.041750     1.033617     1.025483     1.017349
      1.009216     1.001082     0.992949     0.984815     0.976681     0.968548     0.960414     0.952280     0.944147     0.936013
      0.927879     0.919746     0.911612     0.903478     0.895345     0.887211     0.879077     0.870944     0.862810     0.854676
      0.846543     0.838409     0.830276     0.822142     0.814008     0.805875     0.797741     0.789607     0.781474     0.773340
      0.765206     0.757073     0.748939     0.740805     0.732672     0.724538     0.716404     0.708271     0.700137     0.692003
      0.683870     0.675736     0.667603     0.659469     0.651335     0.643202     0.635068     0.626934     0.618801     0.610667
      0.602533     0.594400     0.586266     0.578132     0.569999     0.561865     0.553731     0.545598     0.537464     0.529330
      0.521197     0.513063     0.504930     0.496796     0.488662     0.480529     0.472395     0.464261     0.456128     0.447994
      0.439861     0.431727     0.423593     0.415460     0.407326     0.399192     0.391059     0.382925     0.374792     0.366658
      0.358524     0.350391     0.342257     0.334124     0.325990     0.317856     0.309723     0.301589     0.293455     0.285322
      0.277188     0.269055     0.260921     0.252787     0.244654     0.236520     0.228386     0.220253     0.212119     0.203986
 NY phased data points follow
  -6.09046E+01 -6.12550E+01 -5.39460E+01 -7.75781E+01 -5.84089E+01 -7.22407E+01 -5.98279E+01 -6.81071E+01 -7.11340E+01 -6.03537E+01
  -8.43982E+01 -6.02217E+01 -8.08686E+01 -7.51375E+01 -6.67629E+01 -7.47425E+01 -7.13391E+01 -9.98088E+01 -1.02401E+02 -9.52682E+01
  -6.98307E+01 -5.93524E+01 -6.04844E+01 -5.93389E+01 -5.56258E+01 -4.26356E+01 -3.01287E+01 -6.01725E+00  4.78383E+00 -5.39334E+00
  -6.13875E+00  1.15250E+01 -3.92597E+00 -2.34493E+01 -4.49198E+00 -4.04820E+00 -4.68751E+01 -5.97103E+01 -5.39685E+01 -3.87472E+01
  -3.50018E+01 -6.81874E+01 -4.80238E+01 -3.23560E+01 -2.72831E+01 -2.03875E+01 -3.03141E+00  1.15865E+01  1.52378E+00  3.08580E+01
   3.11766E+01  2.38988E+01  1.70583E+01  3.31285E+00  4.13773E+00 -8.40934E+00 -1.40074E+01  1.09136E+00 -3.24630E+00  1.54839E+00
   2.63583E+01  2.88038E+00  1.59358E+01  1.22084E+01  2.83454E+01  4.06867E+01 -1.10533E+01  1.78898E+01  1.19155E+01  2.06777E+01
   9.97410E+00 -2.63138E+01  1.78359E+01  5.85596E+00  9.67077E+00  3.04032E+01  2.96838E+01  3.77716E+01  4.23917E+01  4.80054E+01
   1.15551E+01 -8.47265E-01  2.54886E+01  1.76163E+01  1.85787E+01  2.90240E+01  3.03283E+01  2.77758E+01  4.96406E+00  2.68265E+01
   5.24755E+01  4.57303E+01  4.89673E+01  3.34158E+01  5.38768E+01  6.24931E+01  4.06589E+01  6.97002E+01  5.24269E+01  2.85801E+01
   2.65445E+01  1.40156E+01  2.68683E+01 -4.81271E+00 -2.28986E+00  1.21241E+00 -4.17440E+01 -4.84686E+01 -7.38219E+01 -7.76717E+01
  -6.09665E+01 -5.93413E+01 -6.92551E+01 -5.98123E+01 -2.78539E+01 -3.85489E+01 -3.60962E+01 -2.59163E+01 -3.03185E+01 -8.41195E+00
  -9.06260E+00  1.06159E+00  3.62358E+01  1.68395E+01  1.57517E+01  2.27947E+01  3.67299E+01  6.22557E+01  6.23882E+01  8.45542E+01
   2.27404E+01 -2.31903E+01 -1.02246E+01 -2.06087E+01 -2.44534E+01 -6.25902E+01 -5.34117E+01 -4.43357E+01 -7.00511E+01 -7.35077E+01
  -7.26815E+01 -5.70276E+01 -3.87193E+01 -4.48993E+01 -5.30552E+01 -4.60487E+01 -5.60677E+01 -4.11332E+01 -3.61607E+01 -4.42055E+01
  -3.73397E+01 -3.14052E+01 -2.49707E+01 -4.59082E+01 -3.35299E+01 -2.08153E+01 -2.29183E+01 -1.14795E+01 -2.71543E+01 -3.51445E+01
  -2.09761E+01 -9.98900E+00 -1.17158E+01 -1.97642E+01 -9.43456E+00 -1.17977E+01 -2.29283E+01  4.60199E+00 -3.26890E+00 -4.15880E+00
   1.32342E+01 -2.43817E-02  7.59672E+00  1.37220E+01  2.05204E+01  2.11258E+01  2.22497E+01  2.81578E+00  6.14588E+00  1.76341E+00
  -3.62104E+01 -1.21997E+01 -2.16093E+01 -2.97370E+01 -4.24305E+01 -4.29719E+01 -1.97389E+01 -4.47283E+01 -3.55179E+01 -2.99654E+01
  -5.32281E+00  7.47992E-01 -1.07300E+01 -1.33736E+01 -3.05478E+01  8.46347E+00  1.31827E+01  3.29911E+00  7.03235E+00  8.66563E+00
   1.69069E+01  3.38300E+00  1.51617E+01  1.75405E+01  1.08208E+01  9.41288E+00 -8.51662E-01  7.64876E+00  4.70305E+00  5.76717E+00
   8.12160E+00 -9.42913E+00  7.14007E+00  2.70404E+01  4.16349E+01  4.03325E+01  2.50345E+01  5.32899E+01  4.29530E+01  2.66667E+01
   3.45456E+01  6.44149E+00  4.84851E+00  2.60086E+00 -9.17871E+00  1.52448E+01  2.01964E+01  1.26392E+01  7.23727E+00  1.15430E+00
   2.15685E+01  7.92721E+00 -6.46489E+00  4.34940E+00 -1.15364E+01 -2.09708E+01 -2.87143E+01 -4.53610E+01 -5.43763E+01 -3.11921E+01
  -2.82603E+01 -4.49252E+01 -2.75602E+01 -1.34288E+01 -4.19560E+00 -1.10215E+01 -1.05275E+01 -1.29140E+01 -1.82178E+01 -1.84578E+00
  -5.60152E+00 -1.81048E+01 -3.65325E+01 -3.47452E+01 -1.61487E+01  8.16000E+00  6.43727E+01  7.70786E+01  6.01114E+01  1.12183E+02
   1.33317E+02  1.01354E+02  1.21903E+02  1.28486E+02  1.23730E+02  1.15370E+02  8.75608E+01  8.58482E+01  8.48483E+01  1.01158E+02
   8.64662E+01  7.29589E+01  9.42632E+01  7.16603E+01  7.85232E+01  8.01302E+01  6.81925E+01  8.21633E+01  7.72241E+01  8.78281E+01
   7.09954E+01  6.40522E+01  7.74344E+01  5.64165E+01  5.67743E+01  4.25203E+01  4.48824E+01  5.89291E+01  3.15402E+01  5.06252E+01
   4.39340E+01  4.88193E+00  2.40309E+01  2.90432E+01  3.43211E+01  4.58106E+01  5.00128E+01  5.39991E+01  5.22312E+01  6.53075E+01
   7.82282E+01  9.04806E+01  8.76929E+01  1.22121E+02  1.34065E+02  1.03676E+02  1.09977E+02  8.46354E+01  7.28060E+01  8.20619E+01
   6.86145E+01  6.27177E+01  7.96749E+01  7.39249E+01  6.45098E+01  6.53207E+01  4.70949E+01  5.62765E+01  5.59833E+01  7.51873E+01
   7.67955E+01  6.39610E+01  6.14715E+01  5.72012E+01  8.06240E+01  6.01920E+01  7.02922E+01  7.19327E+01  5.75962E+01  5.44670E+01
   3.82941E+01  4.19933E+01  1.41065E+01  1.78988E+01  3.28041E+01  2.97620E+01  3.56853E+01  3.47349E+01  3.06819E+01  2.75973E+01
   2.49178E+01  4.00425E+01  5.54839E+01  6.31886E+01  7.15047E+01  3.16232E+01  4.63877E+01  5.20088E+01  3.04774E+01  5.59425E+01
   4.54486E+01  4.93301E+01  4.28126E+01  4.66051E+01  5.46021E+01  2.83648E+01  2.60039E+01  1.74950E+01  1.31276E+01  1.79174E+01
   7.07015E+00  1.54277E+01  7.54675E+00  9.75857E+00  3.95405E+01  1.74608E+01  2.81769E+01  3.43580E+01  3.22231E+01  5.35065E+01
   5.69133E+01  6.67621E+01  5.60499E+01  6.73358E+01  7.49977E+01  7.51511E+01  6.47453E+01  7.16859E+01  8.82470E+01  8.96270E+01
   8.70041E+01  7.87941E+01  1.04273E+02  8.90622E+01  1.07955E+02  1.10234E+02  1.22595E+02  1.41589E+02  1.08500E+02  1.14364E+02
   9.15309E+01  1.13277E+02  7.68649E+01  6.16968E+01  8.75596E+01  7.34647E+01  7.29896E+01  2.66205E+01  5.14055E+01  3.12650E+01
   2.35236E+01  4.92113E+01  2.30391E+01  8.73629E+00 -1.27708E+01 -7.67009E-01 -8.91050E-01  1.32681E+01  7.64364E+00 -1.17140E+00
   1.28309E+00 -2.49965E+01 -2.10331E+01 -6.50241E+00 -1.63109E+01 -1.53561E+01  8.67746E+00 -6.59437E+00 -7.53890E+00 -2.52797E+00
   4.47639E-01 -4.78349E+00 -1.48698E+01  2.62846E+00 -7.52702E+00 -1.35943E+01 -9.47330E+00  1.17413E+01  6.63841E+00 -1.92233E+00
   3.02801E-01 -1.99587E+01 -7.89183E+00  1.89991E+00  6.86945E+00 -1.41576E+00 -9.11334E+00  7.65239E+00  5.85769E+00 -1.91823E+01
  -1.13769E+01 -3.88983E+00 -1.24761E+01  9.01175E-01 -2.08523E+01 -1.68315E+01  4.80713E+00  2.72475E+00  1.23016E+01  2.35613E+01
   2.05123E+01 -1.04436E+01 -9.23649E+00 -5.08692E+00 -1.18440E+01  7.23358E+00  5.25081E+00 -8.17776E+00  8.76824E+00  1.66765E+01
   5.57419E-01  1.84406E+01  2.25341E+01  8.75336E+00  1.88633E+01  1.22567E+01 -3.15325E+00  4.83374E+00  3.61181E+01  2.27107E+01
   2.13006E+00  1.91415E+01  1.00180E+01  9.50524E+00  1.30083E+01  9.42420E+00  1.20028E+01  1.28904E+01  7.89918E+00  8.74344E+00
 NY points of the fit to the data follow
  -5.54227E+01 -5.71059E+01 -5.79013E+01 -5.80973E+01 -5.85176E+01 -5.98671E+01 -6.20501E+01 -6.44008E+01 -6.64412E+01 -6.80684E+01
  -6.90734E+01 -6.90221E+01 -6.77085E+01 -6.54977E+01 -6.33478E+01 -6.24862E+01 -6.40523E+01 -6.87911E+01 -7.48772E+01 -7.82412E+01
  -7.52507E+01 -6.57375E+01 -5.31790E+01 -4.14654E+01 -3.13232E+01 -2.10968E+01 -1.08001E+01 -2.37931E+00  3.35936E+00  6.99940E+00
   8.79814E+00  8.64923E+00  6.61995E+00  2.86247E+00 -3.07639E+00 -1.17638E+01 -2.23789E+01 -3.28806E+01 -4.11174E+01 -4.60635E+01
  -4.77252E+01 -4.64269E+01 -4.21938E+01 -3.53399E+01 -2.70513E+01 -1.86644E+01 -1.08893E+01 -4.20309E+00  7.47426E-01  3.63625E+00
   4.77580E+00  4.91507E+00  4.71010E+00  4.17831E+00  3.00708E+00  1.35227E+00 -1.37976E-01 -7.86168E-01 -3.30930E-01  1.03036E+00
   3.10363E+00  5.93685E+00  9.21632E+00  1.17976E+01  1.26792E+01  1.19878E+01  1.05355E+01  9.18334E+00  8.50879E+00  8.62543E+00
   9.41787E+00  1.09857E+01  1.35518E+01  1.67804E+01  1.99923E+01  2.27426E+01  2.47734E+01  2.53627E+01  2.39282E+01  2.06150E+01
   1.63125E+01  1.21889E+01  9.25537E+00  8.06836E+00  8.55473E+00  1.03275E+01  1.30571E+01  1.65120E+01  2.04888E+01  2.47202E+01
   2.88514E+01  3.26482E+01  3.60541E+01  3.91003E+01  4.17724E+01  4.40565E+01  4.59910E+01  4.71844E+01  4.71419E+01  4.51674E+01
   4.10441E+01  3.51655E+01  2.85126E+01  2.07574E+01  9.91735E+00 -5.42326E+00 -2.39143E+01 -4.13801E+01 -5.35985E+01 -5.96818E+01
  -6.19432E+01 -6.21583E+01 -5.99416E+01 -5.48707E+01 -4.79061E+01 -4.00776E+01 -3.17069E+01 -2.29660E+01 -1.42178E+01 -5.73398E+00
   2.57605E+00  1.07507E+01  1.85748E+01  2.60018E+01  3.34971E+01  4.23453E+01  5.30536E+01  6.19128E+01  6.26304E+01  5.15461E+01
   3.16373E+01  1.04225E+01 -6.53732E+00 -1.97818E+01 -3.23163E+01 -4.38227E+01 -5.20657E+01 -5.70139E+01 -5.99661E+01 -6.12931E+01
  -6.08955E+01 -5.92420E+01 -5.72400E+01 -5.52965E+01 -5.33156E+01 -5.12891E+01 -4.92703E+01 -4.72208E+01 -4.50238E+01 -4.25845E+01
  -3.98821E+01 -3.70259E+01 -3.42748E+01 -3.19090E+01 -2.99978E+01 -2.82179E+01 -2.61556E+01 -2.38841E+01 -2.20173E+01 -2.11141E+01
  -2.11435E+01 -2.16016E+01 -2.20520E+01 -2.24168E+01 -2.26617E+01 -2.23291E+01 -2.06226E+01 -1.71964E+01 -1.26732E+01 -8.23407E+00
  -4.64571E+00 -1.56311E+00  1.95113E+00  5.84634E+00  8.62136E+00  8.74116E+00  6.22951E+00  2.34549E+00 -1.84343E+00 -6.07393E+00
  -1.03159E+01 -1.42195E+01 -1.74208E+01 -1.99182E+01 -2.18188E+01 -2.30767E+01 -2.36699E+01 -2.37145E+01 -2.30842E+01 -2.14672E+01
  -1.88679E+01 -1.56947E+01 -1.24816E+01 -9.37415E+00 -6.19954E+00 -3.01236E+00 -2.59467E-01  1.95195E+00  4.28917E+00  7.15494E+00
   9.98987E+00  1.19967E+01  1.29203E+01  1.29181E+01  1.19123E+01  9.64333E+00  6.24297E+00  2.45306E+00 -8.31333E-01 -2.87000E+00
  -2.75577E+00 -6.41830E-02  5.00468E+00  1.16251E+01  1.86663E+01  2.50003E+01  3.00148E+01  3.37003E+01  3.61659E+01  3.75439E+01
   3.78200E+01  3.66992E+01  3.40599E+01  3.01200E+01  2.51026E+01  1.92109E+01  1.25671E+01  5.33553E+00 -2.28791E+00 -1.01600E+01
  -1.80474E+01 -2.56434E+01 -3.26558E+01 -3.87939E+01 -4.37491E+01 -4.73576E+01 -4.93301E+01 -4.94472E+01 -4.75608E+01 -4.37310E+01
  -3.83066E+01 -3.19295E+01 -2.53253E+01 -1.91325E+01 -1.37835E+01 -9.55668E+00 -6.47581E+00 -4.61162E+00 -4.30723E+00 -6.12542E+00
  -1.21444E+01 -2.20604E+01 -3.03658E+01 -2.89498E+01 -1.39122E+01  1.01351E+01  3.37197E+01  5.14180E+01  6.57068E+01  7.99563E+01
   9.24917E+01  1.00699E+02  1.05063E+02  1.06915E+02  1.06657E+02  1.04468E+02  1.01331E+02  9.83944E+01  9.59588E+01  9.39175E+01
   9.21531E+01  9.05894E+01  8.91687E+01  8.78414E+01  8.65322E+01  8.51602E+01  8.37023E+01  8.21782E+01  8.05945E+01  7.89310E+01
   7.71623E+01  7.52838E+01  7.32946E+01  7.11542E+01  6.88111E+01  6.62420E+01  6.34701E+01  6.05556E+01  5.76122E+01  5.48201E+01
   5.24011E+01  5.05470E+01  4.93418E+01  4.87824E+01  4.88408E+01  4.94815E+01  5.06467E+01  5.22426E+01  5.41392E+01  5.62026E+01
   5.83422E+01  6.05292E+01  6.27570E+01  6.50139E+01  6.72578E+01  6.94242E+01  7.14702E+01  7.33937E+01  7.51860E+01  7.68005E+01
   7.81612E+01  7.91905E+01  7.98224E+01  8.00194E+01  7.97467E+01  7.89850E+01  7.77419E+01  7.60140E+01  7.37853E+01  7.10277E+01
   6.76567E+01  6.35292E+01  5.85655E+01  5.28593E+01  4.66546E+01  4.02697E+01  3.40410E+01  2.83334E+01  2.35501E+01  2.00288E+01
   1.79197E+01  1.71597E+01  1.75517E+01  1.88616E+01  2.09071E+01  2.35366E+01  2.63851E+01  2.90092E+01  3.09438E+01  3.19855E+01
   3.23237E+01  3.23937E+01  3.25166E+01  3.27504E+01  3.29737E+01  3.29493E+01  3.25054E+01  3.16300E+01  3.03479E+01  2.86902E+01
   2.68213E+01  2.49862E+01  2.34052E+01  2.22180E+01  2.15390E+01  2.14903E+01  2.21248E+01  2.34082E+01  2.52543E+01  2.75473E+01
   3.01517E+01  3.29437E+01  3.58351E+01  3.87764E+01  4.17384E+01  4.46963E+01  4.76405E+01  5.05887E+01  5.36116E+01  5.67943E+01
   6.01979E+01  6.38773E+01  6.78886E+01  7.22784E+01  7.70792E+01  8.23022E+01  8.79229E+01  9.38979E+01  1.00115E+02  1.06291E+02
   1.11978E+02  1.16641E+02  1.19739E+02  1.20850E+02  1.19846E+02  1.16936E+02  1.12534E+02  1.07071E+02  1.00891E+02  9.42232E+01
   8.72004E+01  7.98899E+01  7.23241E+01  6.45987E+01  5.68896E+01  4.94001E+01  4.22962E+01  3.57189E+01  2.97764E+01  2.45332E+01
   2.00299E+01  1.62756E+01  1.32099E+01  1.07252E+01  8.72772E+00  7.16364E+00  5.98140E+00  5.10702E+00  4.46236E+00  3.99205E+00
   3.66080E+00  3.43159E+00  3.27184E+00  3.16927E+00  3.13554E+00  3.17769E+00  3.26265E+00  3.34084E+00  3.40618E+00  3.49067E+00
   3.59307E+00  3.68667E+00  3.78021E+00  3.91630E+00  4.10033E+00  4.28190E+00  4.41725E+00  4.51012E+00  4.59779E+00  4.69879E+00
   4.82169E+00  4.97289E+00  5.15290E+00  5.34933E+00  5.55031E+00  5.75279E+00  5.94877E+00  6.12314E+00  6.25836E+00  6.35207E+00
   6.42780E+00  6.51724E+00  6.63172E+00  6.75645E+00  6.87177E+00  6.97681E+00  7.08410E+00  7.20797E+00  7.36178E+00  7.54803E+00
   7.74935E+00  7.94675E+00  8.13962E+00  8.33451E+00  8.52729E+00  8.70488E+00  8.85216E+00  8.96371E+00  9.04854E+00  9.13228E+00
   9.24120E+00  9.39628E+00  9.59735E+00  9.82709E+00  1.00432E+01  1.02039E+01  1.03083E+01  1.03909E+01  1.04753E+01  1.05624E+01
   1.06446E+01  1.07176E+01  1.07794E+01  1.08368E+01  1.08968E+01  1.09953E+01  1.11849E+01  1.14973E+01  1.19248E+01  1.24480E+01
 NY background values follow
    -1.993E+01   -1.973E+01   -1.954E+01   -1.934E+01   -1.914E+01   -1.895E+01   -1.875E+01   -1.856E+01   -1.836E+01   -1.816E+01
    -1.797E+01   -1.777E+01   -1.758E+01   -1.738E+01   -1.719E+01   -1.699E+01   -1.679E+01   -1.660E+01   -1.640E+01   -1.621E+01
    -1.601E+01   -1.581E+01   -1.562E+01   -1.542E+01   -1.523E+01   -1.503E+01   -1.484E+01   -1.464E+01   -1.445E+01   -1.425E+01
    -1.406E+01   -1.386E+01   -1.367E+01   -1.347E+01   -1.328E+01   -1.308E+01   -1.289E+01   -1.269E+01   -1.250E+01   -1.230E+01
    -1.211E+01   -1.191E+01   -1.172E+01   -1.153E+01   -1.133E+01   -1.114E+01   -1.094E+01   -1.075E+01   -1.056E+01   -1.037E+01
    -1.017E+01   -9.980E+00   -9.788E+00   -9.595E+00   -9.404E+00   -9.212E+00   -9.021E+00   -8.829E+00   -8.638E+00   -8.448E+00
    -8.257E+00   -8.067E+00   -7.878E+00   -7.688E+00   -7.499E+00   -7.310E+00   -7.121E+00   -6.933E+00   -6.745E+00   -6.557E+00
    -6.369E+00   -6.182E+00   -5.996E+00   -5.809E+00   -5.623E+00   -5.437E+00   -5.252E+00   -5.066E+00   -4.882E+00   -4.697E+00
    -4.513E+00   -4.329E+00   -4.146E+00   -3.963E+00   -3.780E+00   -3.598E+00   -3.416E+00   -3.235E+00   -3.054E+00   -2.873E+00
    -2.693E+00   -2.513E+00   -2.333E+00   -2.154E+00   -1.975E+00   -1.797E+00   -1.619E+00   -1.442E+00   -1.265E+00   -1.088E+00
    -9.119E-01   -7.362E-01   -5.608E-01   -3.859E-01   -2.114E-01   -3.737E-02    1.362E-01    3.094E-01    4.821E-01    6.544E-01
     8.263E-01    9.977E-01    1.169E+00    1.339E+00    1.509E+00    1.679E+00    1.848E+00    2.016E+00    2.185E+00    2.352E+00
     2.519E+00    2.686E+00    2.853E+00    3.018E+00    3.184E+00    3.348E+00    3.513E+00    3.676E+00    3.840E+00    4.002E+00
     4.165E+00    4.326E+00    4.487E+00    4.648E+00    4.808E+00    4.967E+00    5.126E+00    5.285E+00    5.442E+00    5.599E+00
     5.756E+00    5.912E+00    6.067E+00    6.222E+00    6.376E+00    6.529E+00    6.682E+00    6.834E+00    6.986E+00    7.137E+00
     7.287E+00    7.437E+00    7.585E+00    7.734E+00    7.881E+00    8.028E+00    8.174E+00    8.320E+00    8.464E+00    8.608E+00
     8.752E+00    8.894E+00    9.036E+00    9.178E+00    9.318E+00    9.458E+00    9.597E+00    9.735E+00    9.873E+00    1.001E+01
     1.015E+01    1.028E+01    1.042E+01    1.055E+01    1.068E+01    1.081E+01    1.095E+01    1.108E+01    1.121E+01    1.134E+01
     1.146E+01    1.159E+01    1.172E+01    1.184E+01    1.197E+01    1.209E+01    1.222E+01    1.234E+01    1.246E+01    1.258E+01
     1.270E+01    1.282E+01    1.294E+01    1.306E+01    1.317E+01    1.329E+01    1.341E+01    1.352E+01    1.363E+01    1.375E+01
     1.386E+01    1.397E+01    1.408E+01    1.419E+01    1.429E+01    1.440E+01    1.451E+01    1.461E+01    1.472E+01    1.482E+01
     1.492E+01    1.503E+01    1.513E+01    1.523E+01    1.533E+01    1.542E+01    1.552E+01    1.562E+01    1.571E+01    1.581E+01
     1.590E+01    1.599E+01    1.609E+01    1.618E+01    1.627E+01    1.636E+01    1.644E+01    1.653E+01    1.662E+01    1.670E+01
     1.679E+01    1.687E+01    1.695E+01    1.703E+01    1.711E+01    1.719E+01    1.727E+01    1.735E+01    1.742E+01    1.750E+01
     1.757E+01    1.764E+01    1.772E+01    1.779E+01    1.786E+01    1.793E+01    1.800E+01    1.806E+01    1.813E+01    1.819E+01
     1.826E+01    1.832E+01    1.838E+01    1.845E+01    1.851E+01    1.857E+01    1.862E+01    1.868E+01    1.874E+01    1.879E+01
     1.885E+01    1.890E+01    1.896E+01    1.901E+01    1.906E+01    1.911E+01    1.916E+01    1.920E+01    1.925E+01    1.930E+01
     1.934E+01    1.939E+01    1.943E+01    1.947E+01    1.952E+01    1.956E+01    1.960E+01    1.963E+01    1.967E+01    1.971E+01
     1.975E+01    1.978E+01    1.982E+01    1.985E+01    1.988E+01    1.991E+01    1.994E+01    1.997E+01    2.000E+01    2.003E+01
     2.006E+01    2.008E+01    2.011E+01    2.013E+01    2.016E+01    2.018E+01    2.020E+01    2.022E+01    2.024E+01    2.026E+01
     2.028E+01    2.029E+01    2.031E+01    2.033E+01    2.034E+01    2.035E+01    2.037E+01    2.038E+01    2.039E+01    2.040E+01
     2.041E+01    2.042E+01    2.042E+01    2.043E+01    2.044E+01    2.044E+01    2.044E+01    2.045E+01    2.045E+01    2.045E+01
     2.045E+01    2.045E+01    2.045E+01    2.045E+01    2.044E+01    2.044E+01    2.043E+01    2.043E+01    2.042E+01    2.042E+01
     2.041E+01    2.040E+01    2.039E+01    2.038E+01    2.037E+01    2.035E+01    2.034E+01    2.033E+01    2.031E+01    2.029E+01
     2.028E+01    2.026E+01    2.024E+01    2.022E+01    2.021E+01    2.019E+01    2.016E+01    2.014E+01    2.012E+01    2.010E+01
     2.007E+01    2.005E+01    2.003E+01    2.000E+01    1.997E+01    1.995E+01    1.992E+01    1.989E+01    1.986E+01    1.984E+01
     1.981E+01    1.978E+01    1.975E+01    1.971E+01    1.968E+01    1.965E+01    1.962E+01    1.958E+01    1.955E+01    1.952E+01
     1.948E+01    1.945E+01    1.941E+01    1.937E+01    1.934E+01    1.930E+01    1.926E+01    1.923E+01    1.919E+01    1.915E+01
     1.911E+01    1.907E+01    1.903E+01    1.899E+01    1.895E+01    1.891E+01    1.887E+01    1.883E+01    1.878E+01    1.874E+01
     1.870E+01    1.866E+01    1.861E+01    1.857E+01    1.853E+01    1.848E+01    1.844E+01    1.839E+01    1.835E+01    1.830E+01
     1.826E+01    1.821E+01    1.817E+01    1.812E+01    1.807E+01    1.803E+01    1.798E+01    1.793E+01    1.789E+01    1.784E+01
     1.779E+01    1.774E+01    1.770E+01    1.765E+01    1.760E+01    1.755E+01    1.750E+01    1.746E+01    1.741E+01    1.736E+01
     1.731E+01    1.726E+01    1.721E+01    1.716E+01    1.712E+01    1.707E+01    1.702E+01    1.697E+01    1.692E+01    1.687E+01
     1.682E+01    1.677E+01    1.672E+01    1.667E+01    1.662E+01    1.657E+01    1.652E+01    1.647E+01    1.642E+01    1.637E+01
     1.632E+01    1.627E+01    1.622E+01    1.617E+01    1.612E+01    1.607E+01    1.602E+01    1.598E+01    1.593E+01    1.588E+01
     1.583E+01    1.578E+01    1.573E+01    1.568E+01    1.563E+01    1.558E+01    1.553E+01    1.548E+01    1.543E+01    1.538E+01
     1.533E+01    1.528E+01    1.523E+01    1.518E+01    1.513E+01    1.508E+01    1.503E+01    1.498E+01    1.493E+01    1.488E+01
     1.483E+01    1.478E+01    1.473E+01    1.468E+01    1.463E+01    1.459E+01    1.454E+01    1.449E+01    1.444E+01    1.439E+01
 Mac      Conc. = 2.66E-04
  -3.98257E+01 -4.04120E+01 -4.11495E+01 -4.19850E+01 -4.28358E+01 -4.36174E+01 -4.42890E+01 -4.48764E+01 -4.54571E+01 -4.61115E+01
  -4.67932E+01 -4.72514E+01 -4.71586E+01 -4.63326E+01 -4.48399E+01 -4.29013E+01 -4.06962E+01 -3.83187E+01 -3.58699E+01 -3.34950E+01
  -3.12443E+01 -2.90581E+01 -2.69161E+01 -2.48723E+01 -2.29744E+01 -2.12273E+01 -1.96391E+01 -1.82379E+01 -1.70509E+01 -1.60733E+01
  -1.52284E+01 -1.43552E+01 -1.33100E+01 -1.21096E+01 -1.09163E+01 -9.87480E+00 -8.97698E+00 -8.08191E+00 -7.08312E+00 -6.01723E+00
  -5.02328E+00 -4.21797E+00 -3.65856E+00 -3.36519E+00 -3.32536E+00 -3.50130E+00 -3.83083E+00 -4.24294E+00 -4.68676E+00 -5.12232E+00
  -5.46328E+00 -5.59385E+00 -5.44842E+00 -5.03627E+00 -4.40019E+00 -3.60162E+00 -2.71117E+00 -1.84065E+00 -1.12536E+00 -6.40935E-01
  -3.50269E-01 -1.88965E-01 -1.26883E-01 -1.15937E-01 -3.13028E-02  2.92793E-01  9.54826E-01  1.91482E+00  3.01705E+00  4.11493E+00
   5.12975E+00  6.00785E+00  6.68615E+00  7.13752E+00  7.39401E+00  7.50037E+00  7.51006E+00  7.49269E+00  7.54215E+00  7.72422E+00
   8.05674E+00  8.51103E+00  9.05997E+00  9.68420E+00  1.03548E+01  1.10285E+01  1.16670E+01  1.22258E+01  1.26311E+01  1.27929E+01
   1.26323E+01  1.21069E+01  1.12345E+01  1.01011E+01  8.79027E+00  7.32944E+00  5.69092E+00  3.80046E+00  1.57198E+00 -1.08988E+00
  -4.26264E+00 -7.90618E+00 -1.17734E+01 -1.54513E+01 -1.85580E+01 -2.08797E+01 -2.23670E+01 -2.30393E+01 -2.29516E+01 -2.22020E+01
