 
 $NMID
 ID=''
 FMTDAT='(2E13.5)'
 TRAMP=   1.00000E+0
 VOLUME=   1.00000E+0
 $END
   3.00390E+5   7.88631E+5
   2.71201E+4   2.26159E+6
   2.55259E+5   2.16782E+6
   9.65726E+4   2.04146E+6
   7.22897E+4   2.15695E+6
   1.86246E+5   2.10685E+6
   1.29070E+5   2.03281E+6
   8.57886E+4   2.09410E+6
   1.20268E+5   2.06680E+6
   6.03934E+4   2.02472E+6
   2.22841E+4   2.05423E+6
   3.14442E+4   2.02164E+6
  -1.09400E+4   1.98909E+6
  -4.31494E+4   2.00701E+6
  -5.77147E+4   1.97523E+6
  -9.91644E+4   1.94268E+6
  -1.17527E+5   1.95221E+6
  -1.24506E+5   1.93107E+6
  -1.53635E+5   1.90762E+6
  -1.54446E+5   1.90674E+6
  -1.57188E+5   1.88204E+6
  -1.84151E+5   1.86442E+6
  -1.95520E+5   1.86145E+6
  -2.03784E+5   1.83799E+6
  -2.29608E+5   1.81747E+6
  -2.36685E+5   1.80816E+6
  -2.53834E+5   1.78816E+6
  -2.84651E+5   1.76920E+6
  -3.01195E+5   1.75261E+6
  -3.10406E+5   1.73194E+6
  -3.31133E+5   1.71724E+6
  -3.39993E+5   1.70087E+6
  -3.47262E+5   1.67816E+6
  -3.57217E+5   1.66475E+6
  -3.60568E+5   1.64926E+6
  -3.61179E+5   1.63010E+6
  -3.66406E+5   1.61884E+6
  -3.71674E+5   1.60509E+6
  -3.80736E+5   1.58210E+6
  -3.90332E+5   1.56503E+6
  -3.98037E+5   1.54708E+6
  -4.08318E+5   1.52513E+6
  -4.17844E+5   1.50555E+6
  -4.24891E+5   1.48755E+6
  -4.35791E+5   1.46648E+6
  -4.48105E+5   1.44950E+6
  -4.57427E+5   1.43069E+6
  -4.65929E+5   1.40864E+6
  -4.71290E+5   1.38857E+6
  -4.75373E+5   1.37184E+6
  -4.81001E+5   1.35370E+6
  -4.86567E+5   1.33615E+6
  -4.90140E+5   1.32009E+6
  -4.96144E+5   1.30214E+6
  -5.03125E+5   1.28325E+6
  -5.08827E+5   1.26469E+6
  -5.16255E+5   1.24471E+6
  -5.23013E+5   1.22384E+6
  -5.27323E+5   1.20477E+6
  -5.31655E+5   1.18687E+6
  -5.38877E+5   1.16849E+6
  -5.44661E+5   1.15004E+6
  -5.48695E+5   1.13186E+6
  -5.53732E+5   1.11333E+6
  -5.57452E+5   1.09455E+6
  -5.59216E+5   1.07602E+6
  -5.61101E+5   1.05803E+6
  -5.64160E+5   1.04110E+6
  -5.67399E+5   1.02420E+6
  -5.71553E+5   1.00625E+6
  -5.76003E+5   9.88237E+5
  -5.77732E+5   9.70324E+5
  -5.79891E+5   9.52973E+5
  -5.83447E+5   9.36255E+5
  -5.85904E+5   9.18585E+5
  -5.87483E+5   9.00952E+5
  -5.89284E+5   8.84270E+5
  -5.90660E+5   8.68256E+5
  -5.91969E+5   8.51821E+5
  -5.93712E+5   8.34502E+5
  -5.94385E+5   8.17903E+5
  -5.93868E+5   8.01334E+5
  -5.94791E+5   7.85684E+5
  -5.96338E+5   7.69007E+5
  -5.96933E+5   7.51112E+5
  -5.97108E+5   7.34729E+5
  -5.97278E+5   7.18988E+5
  -5.97568E+5   7.03222E+5
  -5.97036E+5   6.86752E+5
  -5.95698E+5   6.71083E+5
  -5.93947E+5   6.56209E+5
  -5.92566E+5   6.41789E+5
  -5.91252E+5   6.27321E+5
  -5.88970E+5   6.12718E+5
  -5.85854E+5   5.98418E+5
  -5.82066E+5   5.84776E+5
  -5.79358E+5   5.71884E+5
  -5.77233E+5   5.59163E+5
  -5.74517E+5   5.46061E+5
  -5.71355E+5   5.32268E+5
  -5.68236E+5   5.19236E+5
  -5.65552E+5   5.06418E+5
  -5.62793E+5   4.92446E+5
  -5.59056E+5   4.78689E+5
  -5.54875E+5   4.66577E+5
  -5.50966E+5   4.55113E+5
  -5.48159E+5   4.43194E+5
  -5.44652E+5   4.30338E+5
  -5.39673E+5   4.17833E+5
  -5.34436E+5   4.07101E+5
  -5.30388E+5   3.96699E+5
  -5.27136E+5   3.85831E+5
  -5.23327E+5   3.74232E+5
  -5.19168E+5   3.62712E+5
  -5.15091E+5   3.52065E+5
  -5.11473E+5   3.40839E+5
  -5.07281E+5   3.29663E+5
  -5.02207E+5   3.18659E+5
  -4.97009E+5   3.08458E+5
  -4.92102E+5   2.98969E+5
  -4.87568E+5   2.89671E+5
  -4.83604E+5   2.80430E+5
  -4.79155E+5   2.70968E+5
  -4.74861E+5   2.61479E+5
  -4.70118E+5   2.51982E+5
  -4.64627E+5   2.42743E+5
  -4.59479E+5   2.33788E+5
  -4.54593E+5   2.25009E+5
  -4.50302E+5   2.16455E+5
  -4.45581E+5   2.07712E+5
  -4.41668E+5   1.98330E+5
  -4.36601E+5   1.88918E+5
  -4.31040E+5   1.80032E+5
  -4.26041E+5   1.72305E+5
  -4.21555E+5   1.64598E+5
  -4.16108E+5   1.55999E+5
  -4.10786E+5   1.48647E+5
  -4.06020E+5   1.41449E+5
  -4.01280E+5   1.34326E+5
  -3.96273E+5   1.26735E+5
  -3.90796E+5   1.19259E+5
  -3.85354E+5   1.12648E+5
  -3.79542E+5   1.06186E+5
  -3.74583E+5   9.96677E+4
  -3.69782E+5   9.32878E+4
  -3.64535E+5   8.67029E+4
  -3.58727E+5   7.98765E+4
  -3.53189E+5   7.37837E+4
  -3.47588E+5   6.79820E+4
  -3.41824E+5   6.22676E+4
  -3.36235E+5   5.67913E+4
  -3.30762E+5   5.13824E+4
  -3.25453E+5   4.66798E+4
  -3.20236E+5   4.15041E+4
  -3.14787E+5   3.64761E+4
  -3.09146E+5   3.17804E+4
  -3.03889E+5   2.74935E+4
  -2.98523E+5   2.34001E+4
  -2.93207E+5   1.89986E+4
  -2.87681E+5   1.50833E+4
  -2.82178E+5   1.08879E+4
  -2.77147E+5   7.10746E+3
  -2.71550E+5   3.19753E+3
  -2.66042E+5  -6.82398E+2
  -2.60843E+5  -3.69235E+3
  -2.55423E+5  -7.15468E+3
  -2.50517E+5  -1.00706E+4
  -2.45731E+5  -1.35533E+4
  -2.40552E+5  -1.68904E+4
  -2.35234E+5  -1.97079E+4
  -2.30307E+5  -2.22573E+4
  -2.25381E+5  -2.49580E+4
  -2.20489E+5  -2.77486E+4
  -2.15841E+5  -3.03326E+4
  -2.11055E+5  -3.28966E+4
  -2.06060E+5  -3.53217E+4
  -2.01814E+5  -3.77772E+4
  -1.96789E+5  -4.03059E+4
  -1.91991E+5  -4.25961E+4
  -1.87099E+5  -4.43981E+4
  -1.82929E+5  -4.65006E+4
  -1.79041E+5  -4.86700E+4
  -1.74322E+5  -5.08870E+4
  -1.70085E+5  -5.27565E+4
  -1.65427E+5  -5.46176E+4
  -1.61458E+5  -5.60816E+4
  -1.57072E+5  -5.74853E+4
  -1.52693E+5  -5.88069E+4
  -1.48663E+5  -6.02927E+4
  -1.44890E+5  -6.13939E+4
  -1.41499E+5  -6.29406E+4
  -1.37282E+5  -6.47053E+4
  -1.33145E+5  -6.62272E+4
  -1.29025E+5  -6.72858E+4
  -1.25105E+5  -6.83828E+4
  -1.21725E+5  -6.94049E+4
  -1.17595E+5  -7.05410E+4
  -1.14218E+5  -7.15258E+4
  -1.10568E+5  -7.25099E+4
  -1.06602E+5  -7.35158E+4
  -1.03069E+5  -7.48087E+4
  -9.92186E+4  -7.53226E+4
  -9.56443E+4  -7.58634E+4
  -9.23138E+4  -7.66048E+4
  -8.90623E+4  -7.72362E+4
  -8.59494E+4  -7.78564E+4
  -8.22736E+4  -7.81263E+4
  -7.90495E+4  -7.88206E+4
  -7.57725E+4  -7.91041E+4
  -7.26660E+4  -7.96274E+4
  -6.94904E+4  -7.99507E+4
  -6.61623E+4  -8.02786E+4
  -6.34151E+4  -8.01859E+4
  -6.08321E+4  -8.04820E+4
  -5.77079E+4  -8.08501E+4
  -5.46138E+4  -8.08468E+4
  -5.18229E+4  -8.08266E+4
  -4.91635E+4  -8.05035E+4
  -4.66046E+4  -8.05681E+4
  -4.39797E+4  -8.06122E+4
  -4.15065E+4  -8.02242E+4
  -3.91609E+4  -7.96910E+4
  -3.67699E+4  -7.96489E+4
  -3.42661E+4  -7.92560E+4
  -3.19072E+4  -7.89849E+4
  -2.96422E+4  -7.85871E+4
  -2.74033E+4  -7.81916E+4
  -2.54171E+4  -7.75484E+4
  -2.33806E+4  -7.71526E+4
  -2.12273E+4  -7.68214E+4
  -1.91730E+4  -7.62718E+4
  -1.71556E+4  -7.53951E+4
  -1.54856E+4  -7.48567E+4
  -1.36595E+4  -7.42314E+4
  -1.19582E+4  -7.38360E+4
  -1.02257E+4  -7.32671E+4
  -8.85794E+3  -7.26518E+4
  -7.29736E+3  -7.16347E+4
  -5.59408E+3  -7.12843E+4
  -4.27420E+3  -7.05628E+4
  -3.00313E+3  -6.96553E+4
  -1.64930E+3  -6.90044E+4
  -3.41256E+2  -6.84558E+4
   1.02136E+3  -6.76753E+4
   2.55610E+3  -6.68663E+4
   3.46089E+3  -6.61434E+4
   4.83034E+3  -6.54536E+4
   6.00082E+3  -6.46640E+4
   6.93497E+3  -6.35695E+4
   8.12970E+3  -6.29417E+4
   9.07522E+3  -6.20685E+4
   1.00343E+4  -6.16048E+4
   1.08966E+4  -6.08506E+4
   1.17673E+4  -5.97612E+4
   1.27912E+4  -5.88829E+4
   1.35046E+4  -5.77855E+4
   1.44465E+4  -5.71341E+4
   1.49632E+4  -5.63034E+4
   1.58953E+4  -5.56157E+4
   1.66475E+4  -5.49122E+4
   1.75525E+4  -5.37464E+4
   1.82263E+4  -5.29399E+4
   1.88938E+4  -5.21724E+4
   1.95396E+4  -5.12080E+4
   2.01356E+4  -5.03757E+4
   2.04631E+4  -4.96335E+4
   2.13041E+4  -4.86475E+4
   2.18326E+4  -4.75787E+4
   2.23278E+4  -4.65901E+4
   2.28186E+4  -4.57876E+4
   2.34758E+4  -4.50102E+4
   2.37509E+4  -4.40805E+4
   2.39928E+4  -4.31786E+4
   2.42801E+4  -4.22029E+4
   2.48315E+4  -4.12999E+4
   2.53601E+4  -4.05185E+4
   2.56491E+4  -3.94621E+4
   2.60126E+4  -3.85754E+4
   2.60654E+4  -3.75731E+4
   2.65240E+4  -3.67175E+4
   2.66178E+4  -3.57943E+4
   2.71440E+4  -3.47951E+4
   2.72716E+4  -3.40702E+4
   2.76040E+4  -3.31794E+4
   2.76530E+4  -3.22955E+4
   2.76185E+4  -3.13218E+4
   2.78865E+4  -3.03776E+4
   2.78206E+4  -2.96418E+4
   2.80577E+4  -2.88678E+4
   2.80978E+4  -2.79558E+4
   2.80546E+4  -2.69910E+4
   2.82751E+4  -2.60793E+4
   2.81839E+4  -2.54267E+4
   2.83198E+4  -2.43655E+4
   2.84875E+4  -2.35060E+4
   2.84261E+4  -2.30869E+4
   2.82351E+4  -2.23354E+4
   2.82846E+4  -2.15384E+4
   2.85024E+4  -2.05447E+4
   2.82064E+4  -1.97955E+4
   2.80881E+4  -1.88028E+4
   2.81067E+4  -1.83571E+4
   2.82274E+4  -1.78383E+4
   2.81236E+4  -1.69980E+4
   2.78125E+4  -1.59269E+4
   2.80544E+4  -1.56711E+4
   2.76817E+4  -1.49456E+4
   2.74746E+4  -1.40701E+4
   2.76689E+4  -1.33418E+4
   2.74709E+4  -1.28216E+4
   2.73821E+4  -1.23621E+4
   2.69902E+4  -1.18640E+4
   2.70611E+4  -1.11796E+4
   2.67532E+4  -1.05432E+4
   2.67751E+4  -9.91722E+3
   2.63392E+4  -9.05038E+3
   2.62088E+4  -8.82178E+3
   2.60011E+4  -8.22269E+3
   2.59759E+4  -7.71001E+3
   2.55707E+4  -7.34198E+3
   2.54917E+4  -6.76068E+3
   2.52983E+4  -6.25279E+3
   2.49444E+4  -5.81025E+3
   2.47086E+4  -5.40322E+3
   2.44377E+4  -4.81500E+3
   2.42551E+4  -4.54191E+3
   2.40425E+4  -4.01948E+3
   2.37863E+4  -3.52840E+3
   2.33168E+4  -3.21249E+3
   2.31387E+4  -2.58500E+3
   2.28675E+4  -2.21676E+3
   2.24317E+4  -1.86518E+3
   2.23924E+4  -1.51445E+3
   2.20975E+4  -1.41885E+3
   2.20241E+4  -8.06199E+2
   2.14602E+4  -2.51813E+2
   2.13495E+4   7.36656E+1
   2.11383E+4   4.99610E+2
   2.06963E+4   6.30585E+2
   2.03422E+4   9.16404E+2
   1.99462E+4   1.26324E+3
   1.98005E+4   1.44249E+3
   1.94890E+4   2.17397E+3
   1.92187E+4   2.26490E+3
   1.88656E+4   2.73160E+3
   1.85363E+4   3.02756E+3
   1.79708E+4   3.14885E+3
   1.76887E+4   3.57060E+3
   1.74729E+4   3.44239E+3
   1.73882E+4   3.99833E+3
   1.72065E+4   4.10569E+3
   1.63417E+4   4.29255E+3
   1.61381E+4   4.62580E+3
   1.58629E+4   4.98420E+3
   1.56081E+4   5.18974E+3
   1.52931E+4   5.35474E+3
   1.49982E+4   5.50892E+3
   1.47400E+4   5.80746E+3
   1.42976E+4   5.90859E+3
   1.42965E+4   6.11880E+3
   1.36781E+4   6.27675E+3
   1.35109E+4   6.50249E+3
   1.31816E+4   6.70348E+3
   1.29117E+4   6.67055E+3
   1.27857E+4   6.80419E+3
   1.24179E+4   7.24092E+3
   1.22276E+4   7.24783E+3
