 
 $NMID
 ID=''
 FMTDAT='(2E13.5)'
 TRAMP=   1.00000E+0
 VOLUME=   1.00000E+0
 $END
   1.33528E+5   7.67575E+5
  -4.36687E+5   2.07308E+6
  -2.08885E+5   2.08076E+6
  -2.97113E+5   1.92761E+6
  -3.93027E+5   1.97806E+6
  -3.61234E+5   1.97132E+6
  -3.86872E+5   1.91895E+6
  -4.21913E+5   1.92792E+6
  -4.29552E+5   1.88886E+6
  -4.89724E+5   1.85716E+6
  -5.14628E+5   1.86022E+6
  -5.20519E+5   1.80978E+6
  -5.74937E+5   1.77552E+6
  -6.03526E+5   1.77803E+6
  -6.15803E+5   1.73349E+6
  -6.56382E+5   1.69841E+6
  -6.80938E+5   1.69666E+6
  -6.99670E+5   1.66027E+6
  -7.37675E+5   1.62706E+6
  -7.51525E+5   1.61692E+6
  -7.68221E+5   1.58229E+6
  -8.03197E+5   1.55511E+6
  -8.17902E+5   1.54005E+6
  -8.32815E+5   1.50429E+6
  -8.65491E+5   1.47287E+6
  -8.75963E+5   1.45773E+6
  -8.89636E+5   1.42747E+6
  -9.15681E+5   1.39753E+6
  -9.31457E+5   1.37157E+6
  -9.42976E+5   1.34282E+6
  -9.65106E+5   1.31706E+6
  -9.76391E+5   1.29154E+6
  -9.89430E+5   1.26062E+6
  -1.00633E+6   1.23690E+6
  -1.01438E+6   1.21235E+6
  -1.02333E+6   1.18487E+6
  -1.03968E+6   1.16467E+6
  -1.05112E+6   1.14109E+6
  -1.05841E+6   1.10950E+6
  -1.06947E+6   1.08523E+6
  -1.07834E+6   1.06143E+6
  -1.08580E+6   1.03317E+6
  -1.09083E+6   1.00712E+6
  -1.09715E+6   9.84445E+5
  -1.10532E+6   9.58700E+5
  -1.11324E+6   9.33575E+5
  -1.11918E+6   9.07300E+5
  -1.12541E+6   8.79786E+5
  -1.12892E+6   8.53746E+5
  -1.13220E+6   8.28876E+5
  -1.13677E+6   8.03776E+5
  -1.14052E+6   7.80152E+5
  -1.14287E+6   7.56577E+5
  -1.14662E+6   7.31842E+5
  -1.14897E+6   7.06755E+5
  -1.15039E+6   6.82291E+5
  -1.15193E+6   6.56517E+5
  -1.15125E+6   6.31175E+5
  -1.14846E+6   6.07544E+5
  -1.14820E+6   5.85579E+5
  -1.14895E+6   5.61624E+5
  -1.14789E+6   5.36915E+5
  -1.14557E+6   5.13510E+5
  -1.14369E+6   4.90580E+5
  -1.14043E+6   4.65945E+5
  -1.13548E+6   4.42026E+5
  -1.13041E+6   4.19994E+5
  -1.12588E+6   3.98792E+5
  -1.12272E+6   3.76431E+5
  -1.11894E+6   3.52393E+5
  -1.11298E+6   3.30155E+5
  -1.10635E+6   3.09032E+5
  -1.10149E+6   2.88345E+5
  -1.09605E+6   2.66645E+5
  -1.08870E+6   2.45142E+5
  -1.08113E+6   2.24421E+5
  -1.07477E+6   2.03810E+5
  -1.06736E+6   1.83409E+5
  -1.05936E+6   1.62798E+5
  -1.05114E+6   1.42113E+5
  -1.04263E+6   1.21761E+5
  -1.03332E+6   1.02072E+5
  -1.02445E+6   8.35001E+4
  -1.01556E+6   6.36710E+4
  -1.00579E+6   4.37092E+4
  -9.95234E+5   2.54701E+4
  -9.85592E+5   8.05906E+3
  -9.75841E+5  -9.54429E+3
  -9.64982E+5  -2.69992E+4
  -9.54002E+5  -4.26718E+4
  -9.42985E+5  -5.76256E+4
  -9.32493E+5  -7.27597E+4
  -9.21769E+5  -8.86277E+4
  -9.09919E+5  -1.03252E+5
  -8.97156E+5  -1.17160E+5
  -8.85181E+5  -1.30455E+5
  -8.73894E+5  -1.43726E+5
  -8.62581E+5  -1.56813E+5
  -8.50076E+5  -1.70203E+5
  -8.37805E+5  -1.82232E+5
  -8.25884E+5  -1.94281E+5
  -8.14042E+5  -2.06654E+5
  -8.00808E+5  -2.18406E+5
  -7.87007E+5  -2.29280E+5
  -7.74281E+5  -2.38849E+5
  -7.62360E+5  -2.48338E+5
  -7.50639E+5  -2.58387E+5
  -7.36868E+5  -2.68867E+5
  -7.22902E+5  -2.77297E+5
  -7.09816E+5  -2.84745E+5
  -6.97633E+5  -2.92401E+5
  -6.85074E+5  -3.01235E+5
  -6.71900E+5  -3.10018E+5
  -6.58578E+5  -3.18415E+5
  -6.45129E+5  -3.25996E+5
  -6.31682E+5  -3.33907E+5
  -6.17938E+5  -3.41645E+5
  -6.03818E+5  -3.48568E+5
  -5.90143E+5  -3.53831E+5
  -5.77183E+5  -3.59144E+5
  -5.64771E+5  -3.65073E+5
  -5.52152E+5  -3.70774E+5
  -5.39183E+5  -3.76442E+5
  -5.25902E+5  -3.81629E+5
  -5.12715E+5  -3.86890E+5
  -4.99120E+5  -3.91281E+5
  -4.85754E+5  -3.95350E+5
  -4.72466E+5  -3.99512E+5
  -4.59775E+5  -4.03506E+5
  -4.46718E+5  -4.07751E+5
  -4.33012E+5  -4.12311E+5
  -4.18989E+5  -4.16456E+5
  -4.05436E+5  -4.19619E+5
  -3.92796E+5  -4.22100E+5
  -3.79932E+5  -4.25260E+5
  -3.66458E+5  -4.27608E+5
  -3.53835E+5  -4.29578E+5
  -3.41648E+5  -4.31478E+5
  -3.29228E+5  -4.33820E+5
  -3.16214E+5  -4.35571E+5
  -3.03570E+5  -4.36677E+5
  -2.91790E+5  -4.37117E+5
  -2.79903E+5  -4.37441E+5
  -2.68266E+5  -4.38450E+5
  -2.56587E+5  -4.39154E+5
  -2.44249E+5  -4.39077E+5
  -2.32362E+5  -4.38897E+5
  -2.20691E+5  -4.38348E+5
  -2.09421E+5  -4.37777E+5
  -1.98279E+5  -4.36437E+5
  -1.87486E+5  -4.35121E+5
  -1.77074E+5  -4.33410E+5
  -1.67004E+5  -4.32267E+5
  -1.57348E+5  -4.31112E+5
  -1.46983E+5  -4.29451E+5
  -1.37196E+5  -4.27267E+5
  -1.28034E+5  -4.24809E+5
  -1.18808E+5  -4.22483E+5
  -1.09490E+5  -4.20087E+5
  -1.00448E+5  -4.17347E+5
  -9.17228E+4  -4.14539E+5
  -8.32449E+4  -4.11480E+5
  -7.44344E+4  -4.08396E+5
  -6.58929E+4  -4.05187E+5
  -5.77634E+4  -4.01689E+5
  -5.05114E+4  -3.98254E+5
  -4.31213E+4  -3.94940E+5
  -3.49966E+4  -3.91384E+5
  -2.76594E+4  -3.87935E+5
  -2.07466E+4  -3.83919E+5
  -1.39552E+4  -3.80097E+5
  -7.34221E+3  -3.76468E+5
  -6.38707E+2  -3.72546E+5
   5.95493E+3  -3.68159E+5
   1.23070E+4  -3.64234E+5
   1.84421E+4  -3.60001E+5
   2.45474E+4  -3.56062E+5
   3.09439E+4  -3.51849E+5
   3.68529E+4  -3.46817E+5
   4.23700E+4  -3.42409E+5
   4.77765E+4  -3.38264E+5
   5.31983E+4  -3.34131E+5
   5.89747E+4  -3.29626E+5
   6.40086E+4  -3.24600E+5
   6.91704E+4  -3.20202E+5
   7.35486E+4  -3.15346E+5
   7.82200E+4  -3.10606E+5
   8.28787E+4  -3.05772E+5
   8.68735E+4  -3.00942E+5
   9.04441E+4  -2.96395E+5
   9.51211E+4  -2.92384E+5
   9.98526E+4  -2.87491E+5
   1.03880E+5  -2.82230E+5
   1.07667E+5  -2.76924E+5
   1.11200E+5  -2.71879E+5
   1.14779E+5  -2.67178E+5
   1.18308E+5  -2.62283E+5
   1.21831E+5  -2.56989E+5
   1.25149E+5  -2.51899E+5
   1.28768E+5  -2.47088E+5
   1.32191E+5  -2.41887E+5
   1.35020E+5  -2.36507E+5
   1.37416E+5  -2.31184E+5
   1.40069E+5  -2.26208E+5
   1.42400E+5  -2.21299E+5
   1.45015E+5  -2.16151E+5
   1.47655E+5  -2.10818E+5
   1.49715E+5  -2.05625E+5
   1.51750E+5  -2.00548E+5
   1.53917E+5  -1.95447E+5
   1.55953E+5  -1.90316E+5
   1.57400E+5  -1.85084E+5
   1.58965E+5  -1.80204E+5
   1.60679E+5  -1.75594E+5
   1.62461E+5  -1.70239E+5
   1.63842E+5  -1.65374E+5
   1.64716E+5  -1.60041E+5
   1.65564E+5  -1.55172E+5
   1.66390E+5  -1.50860E+5
   1.67146E+5  -1.45898E+5
   1.67769E+5  -1.41018E+5
   1.68157E+5  -1.36598E+5
   1.68788E+5  -1.32220E+5
   1.68991E+5  -1.27610E+5
   1.69517E+5  -1.22954E+5
   1.69474E+5  -1.18283E+5
   1.69239E+5  -1.14063E+5
   1.68992E+5  -1.09817E+5
   1.69273E+5  -1.05889E+5
   1.69093E+5  -1.01600E+5
   1.68781E+5  -9.71531E+4
   1.68259E+5  -9.33715E+4
   1.67663E+5  -8.95241E+4
   1.67448E+5  -8.58841E+4
   1.66751E+5  -8.17587E+4
   1.65628E+5  -7.80902E+4
   1.64991E+5  -7.46878E+4
   1.64357E+5  -7.12782E+4
   1.63575E+5  -6.75816E+4
   1.62426E+5  -6.40116E+4
   1.61430E+5  -6.10825E+4
   1.60407E+5  -5.77782E+4
   1.59320E+5  -5.45984E+4
   1.58537E+5  -5.08582E+4
   1.57172E+5  -4.80516E+4
   1.55783E+5  -4.49133E+4
   1.54707E+5  -4.18616E+4
   1.53638E+5  -3.90042E+4
   1.51865E+5  -3.60314E+4
   1.50442E+5  -3.29855E+4
   1.49204E+5  -3.06594E+4
   1.48110E+5  -2.81962E+4
   1.46740E+5  -2.51899E+4
   1.45200E+5  -2.26525E+4
   1.43696E+5  -1.99679E+4
   1.42318E+5  -1.77962E+4
   1.40770E+5  -1.54796E+4
   1.39134E+5  -1.28970E+4
   1.37997E+5  -1.03129E+4
   1.36203E+5  -8.20068E+3
   1.34714E+5  -5.79441E+3
   1.33211E+5  -2.98728E+3
   1.31269E+5  -8.20493E+2
   1.29510E+5   1.25346E+3
   1.27746E+5   3.07106E+3
   1.26204E+5   4.91900E+3
   1.24984E+5   6.98973E+3
   1.23035E+5   9.40842E+3
   1.21408E+5   1.11508E+4
   1.19566E+5   1.27437E+4
   1.17830E+5   1.44312E+4
   1.16080E+5   1.63089E+4
   1.14001E+5   1.77393E+4
   1.12292E+5   1.92990E+4
   1.10920E+5   2.08834E+4
   1.09258E+5   2.27996E+4
   1.07350E+5   2.43829E+4
   1.05358E+5   2.56830E+4
   1.03425E+5   2.69927E+4
   1.01846E+5   2.81806E+4
   1.00196E+5   2.98190E+4
   9.82360E+4   3.08834E+4
   9.63437E+4   3.20059E+4
   9.46248E+4   3.31040E+4
   9.29031E+4   3.41952E+4
   9.09887E+4   3.55467E+4
   8.91567E+4   3.63083E+4
   8.71833E+4   3.68050E+4
   8.56281E+4   3.78539E+4
   8.36407E+4   3.87390E+4
   8.19798E+4   3.94532E+4
   8.03650E+4   4.02887E+4
   7.83423E+4   4.12231E+4
   7.64738E+4   4.17918E+4
   7.50846E+4   4.23733E+4
   7.30469E+4   4.31511E+4
   7.15152E+4   4.34025E+4
   6.99447E+4   4.38235E+4
   6.80316E+4   4.48140E+4
   6.64527E+4   4.52817E+4
   6.45932E+4   4.56266E+4
   6.29838E+4   4.58872E+4
   6.14568E+4   4.59190E+4
   5.98965E+4   4.64059E+4
   5.83302E+4   4.69407E+4
   5.66107E+4   4.70475E+4
   5.48317E+4   4.70402E+4
   5.32992E+4   4.73619E+4
   5.19770E+4   4.76057E+4
   5.03019E+4   4.80090E+4
   4.89235E+4   4.78547E+4
   4.75170E+4   4.79362E+4
   4.61289E+4   4.79164E+4
   4.44926E+4   4.82697E+4
   4.29951E+4   4.83128E+4
   4.15377E+4   4.80818E+4
   4.02632E+4   4.82536E+4
   3.88854E+4   4.81020E+4
   3.76387E+4   4.78808E+4
   3.62677E+4   4.78185E+4
   3.47823E+4   4.77061E+4
   3.36511E+4   4.75863E+4
   3.22653E+4   4.73736E+4
   3.13159E+4   4.73430E+4
   2.97361E+4   4.70399E+4
   2.87800E+4   4.68192E+4
   2.77590E+4   4.66356E+4
   2.67140E+4   4.65028E+4
   2.51788E+4   4.63917E+4
   2.40051E+4   4.61129E+4
   2.30054E+4   4.58431E+4
   2.20542E+4   4.54691E+4
   2.08885E+4   4.52899E+4
   1.99141E+4   4.48424E+4
   1.90644E+4   4.46606E+4
   1.80058E+4   4.41584E+4
   1.71930E+4   4.38503E+4
   1.59505E+4   4.35878E+4
   1.48289E+4   4.32321E+4
   1.39921E+4   4.25902E+4
   1.31075E+4   4.20874E+4
   1.22960E+4   4.18836E+4
   1.14768E+4   4.14161E+4
   1.07901E+4   4.11775E+4
   9.92659E+3   4.07634E+4
   8.90412E+3   4.01417E+4
   8.34591E+3   3.98199E+4
   7.38096E+3   3.91630E+4
   6.59855E+3   3.89013E+4
   6.11403E+3   3.83790E+4
   5.31603E+3   3.79505E+4
   4.52704E+3   3.77103E+4
   3.83676E+3   3.72163E+4
   3.20657E+3   3.66028E+4
   2.36111E+3   3.61083E+4
   2.02714E+3   3.55929E+4
   1.48011E+3   3.50814E+4
   9.41446E+2   3.45633E+4
   4.66045E+2   3.38418E+4
  -7.52915E+1   3.37726E+4
  -6.03256E+2   3.33216E+4
  -1.34145E+3   3.26805E+4
  -1.62866E+3   3.22228E+4
  -1.99819E+3   3.15560E+4
  -2.49157E+3   3.11160E+4
  -2.86678E+3   3.05592E+4
  -3.19396E+3   3.02615E+4
