 
 $NMID
 ID=''
 FMTDAT='(2E13.5)'
 TRAMP=   1.00000E+0
 VOLUME=   1.00000E+0
 $END
  -1.73289E+4  -3.85562E+3
  -1.81488E+4   1.80432E+4
   8.75679E+3   1.71812E+4
   1.23873E+3  -1.17690E+4
  -2.24208E+4  -5.99560E+3
  -1.70672E+3   9.25997E+3
   1.39918E+4  -5.45190E+3
  -4.97391E+3  -1.01690E+4
  -3.04093E+3   4.20519E+3
   8.32660E+3  -1.46381E+2
  -2.09040E+3  -5.95214E+3
  -2.35403E+3   1.78038E+3
   6.45736E+3   1.24710E+3
  -1.94799E+3  -3.18198E+3
  -4.14438E+3   1.93787E+3
   5.51306E+3   1.61156E+3
   1.47782E+3  -1.13672E+3
  -4.51766E+3   2.27224E+3
  -8.62375E+2   1.56099E+3
  -1.98685E+2  -1.40977E+3
  -1.25086E+3   1.31970E+2
   1.60503E+3   7.09140E+1
   2.93154E+2  -5.65025E+2
  -2.26809E+3   1.41859E+2
   5.53217E+2  -1.34436E+3
   3.41333E+3  -3.46314E+2
   1.32630E+2   2.69736E+3
  -2.05077E+3   1.66266E+2
   3.49158E+2  -2.40666E+3
   1.83834E+3   6.89471E+2
  -5.36315E+2   2.75134E+3
  -1.99722E+3   9.89939E+1
  -7.43888E+2  -1.76145E+3
  -2.39255E+2  -1.40835E+3
   5.70387E+2  -5.74284E+2
   1.71172E+3   2.97125E+2
   2.00280E+2   9.27873E+2
  -1.39076E+3   7.07585E+2
   5.36669E+1  -3.25413E+2
   5.93740E+2  -4.74150E+2
  -8.12774E+2  -1.74833E+2
   4.59759E+2  -4.58380E+2
   1.49114E+3  -3.85370E+2
   8.83822E+2   3.41735E+2
   5.91526E+2   3.76831E+2
   1.64400E+2   1.23737E+3
  -1.38267E+3   1.53637E+3
  -2.11114E+3  -9.43465E+2
  -4.76352E+2  -2.40088E+3
   3.73516E+2  -9.87890E+2
   3.34239E+2   2.10133E+1
  -1.18867E+1  -6.15683E+2
   3.67498E+2  -3.04798E+2
   3.58217E+2   5.70864E+2
   1.12078E+2   7.50269E+2
  -3.88887E+2   1.00895E+2
  -5.78133E+2  -6.82718E+2
   2.94812E+2  -3.56928E+2
   8.82212E+2  -2.72458E+2
   3.80326E+2   2.32541E+2
   5.20702E+1   8.68055E+2
   1.53535E+2   7.65881E+2
  -1.13834E+3   9.81554E+2
  -1.78891E+3   1.06050E+2
  -1.08066E+3  -1.19286E+3
  -4.24108E+2  -1.57505E+3
   5.66007E+2  -9.96337E+2
   1.45398E+3  -7.76848E+2
   1.13320E+3   3.07246E+2
  -1.05696E+2   9.01667E+2
  -4.64339E+2  -4.50974E+1
   5.74381E+2  -1.06291E+3
   8.63990E+2   4.81588E+2
  -3.51444E+2   1.35905E+3
  -6.97057E+2   2.90905E+2
  -4.00174E+2  -2.95743E+2
   1.78203E+2   2.44212E+2
  -3.32423E+2   4.33412E+2
  -6.63328E+2  -2.10055E+2
  -4.37417E+2  -3.36247E+2
  -1.57370E+2  -3.97289E+2
  -1.61035E+1  -3.04534E+2
  -1.06725E+2  -1.40579E+2
  -1.46068E+2  -1.70799E+1
  -5.53022E+0  -1.91851E+2
   2.95288E+2  -1.41397E+1
   5.94660E+2   4.07465E+2
   5.72493E+1   3.81566E+2
  -3.49294E+2  -5.49410E+1
   7.18778E+1   7.63007E+1
   3.86479E+2   3.95608E+2
  -6.79363E+1   3.11471E+2
  -9.60776E+2   4.82876E+2
  -1.06106E+3   1.11481E+2
  -1.41103E+2  -9.46542E+2
   2.78110E+2  -6.35095E+2
   2.14478E+2   1.68088E+2
   1.12370E+2   3.59131E+2
  -1.32136E+2  -1.65372E+2
   4.35073E+2  -1.91919E+2
   1.81484E+2   6.48677E+2
  -3.91462E+2   6.83342E+2
  -9.88887E+2   1.27802E+2
  -1.37444E+2  -8.34124E+2
   5.51857E+2  -3.72345E+2
   3.12704E+2   4.92063E+2
  -1.73793E+2   5.50941E+2
  -8.77582E+2   7.64206E+1
  -3.32634E+2  -9.58559E+2
   8.61509E+2  -5.66343E+2
   4.57977E+2   4.15840E+2
   2.46472E+2   6.79440E+2
  -2.44932E+2   4.97614E+2
  -2.89604E+1   1.49543E+2
   8.93900E+1   1.13164E+2
  -2.95375E+2   2.86587E+2
  -6.12928E+2   1.04181E+2
  -4.25049E+2  -3.69114E+2
   1.10648E+2  -7.87940E+2
   8.08663E+2  -8.85687E+1
   5.90018E+2   1.27937E+2
   3.33784E+2   3.44720E+2
   2.31671E+2   2.52446E+2
   1.09572E+2   4.84001E+2
  -4.08588E+2   3.49361E+1
  -2.57798E+2  -2.45760E+2
   2.13454E+2  -2.98919E+2
   2.27510E+2   1.40566E+2
   5.23509E+2  -5.44604E+1
   1.16083E+1   2.08431E+2
  -4.44109E+2   4.72602E+2
  -4.31728E+2   1.65786E+1
  -1.61627E+2  -5.09869E+2
   6.32640E+1  -2.28178E+2
   1.22546E+2   6.06889E+1
  -9.71555E+0  -1.75135E+2
  -7.09525E+1  -1.73180E+2
   5.13539E+2   6.72810E+1
   3.01360E+2   4.52363E+2
  -3.83525E+2   2.29399E+2
  -4.85184E+2  -2.78047E+2
   6.99100E+1  -6.25115E+2
   5.35027E+2   1.84105E+1
  -3.70069E+1   5.34223E+2
  -1.74938E+2   4.38266E+2
  -6.46882E+2  -2.01787E+2
  -6.96758E+2  -2.01092E+2
  -1.46620E+2  -2.36339E+1
  -1.61799E+2  -1.02149E+2
  -3.20707E+1  -4.11082E+2
   1.26622E+0  -2.40724E+2
   2.16236E+2  -2.59602E+2
   1.78929E+2   1.72689E+2
   9.03483E+1   3.40660E+2
  -1.64019E+2   7.20873E+1
  -2.85495E+2  -1.62292E+2
  -7.43766E+1   3.75671E-1
   7.24763E+1   1.98448E+2
  -1.29225E+2   1.90908E+2
  -1.67065E+2   3.85505E+1
  -1.50268E+2   1.34779E+2
  -8.42139E+1  -1.06147E+1
  -3.16376E+2   2.55015E+2
  -1.18725E+2  -2.21545E+2
   4.12333E+1  -4.31648E+2
   4.40683E+2  -1.42002E+2
   3.04864E+2   3.06559E+2
  -1.00031E+2   2.36842E+1
  -1.66209E+2   5.05612E+1
   6.71329E+1  -2.36488E+2
   1.25269E+2  -2.50277E+1
   1.00598E+2   4.07213E+1
  -2.31277E+2   1.24319E+2
  -1.14471E+2  -4.71137E+1
   1.08660E+2  -7.19527E+1
  -6.07382E+1   3.39671E+2
   1.09395E+2   2.19387E+2
  -2.98524E+2  -1.89289E+2
  -1.91870E+2  -4.18134E+2
   1.82492E+2  -1.95372E+0
   3.32599E+2   1.49255E+2
  -8.51655E+1   3.91566E+2
  -2.47169E+2   1.13923E+2
  -3.76640E+1  -2.52118E+1
   3.89663E+1  -2.10387E+2
   1.48429E+2  -7.57643E+1
  -3.28359E+1  -5.05277E+1
  -1.47111E+2  -9.77466E+1
   3.44694E+2  -1.90785E+2
   3.76334E+2   3.42815E+2
  -1.58571E+2   3.92907E+2
  -2.32175E+2   2.99876E+2
  -2.83648E+2   1.47371E+0
   7.02889E+1  -2.05034E+2
   2.76108E+1   1.36488E+1
   2.98765E+1   9.15714E+1
   6.46789E+0  -1.08121E+2
  -1.77832E+2   1.31226E+2
   1.49838E+2   5.53733E+1
   2.41334E+2   1.02645E+2
  -2.17955E+2   2.78800E+2
  -1.94233E+1  -3.50963E+2
   2.02103E+2   1.76864E+2
   2.08677E+2  -8.63617E+1
   1.33306E+2   7.67243E+1
  -5.30311E+1   1.51448E+2
  -2.36309E+2   3.70184E+1
   1.41573E+2  -1.96059E+2
  -8.66173E+1   4.34298E+1
   9.66167E+1   2.39598E+1
  -1.30857E+2   1.41586E+2
   8.16824E+1  -8.83750E+1
   2.46147E+2   1.64893E+2
   9.56391E+1   2.57363E+2
  -1.05631E+2   1.23231E+2
  -8.48372E+1  -3.59634E+2
   2.76746E+2  -2.53845E+2
   2.11344E+2  -1.22687E+2
  -9.51486E+1  -1.38081E+2
  -3.36141E+1   1.53705E+1
   1.57293E+2  -1.50433E+2
   1.08455E+2   9.42848E+1
  -2.56086E+0   2.03318E+2
   1.07505E+2   7.79988E+1
  -1.73595E+2  -6.13520E+1
   2.32415E+2  -8.03193E+1
   3.41217E+2  -2.57439E+2
   3.18067E+2  -2.40962E+1
   6.97826E+1   3.88074E+1
  -5.27020E+2   1.52394E+2
  -8.50497E+1  -1.55638E+2
   6.32271E+1  -1.96055E+2
  -2.48360E+1   3.18508E+2
  -5.19673E+1  -8.03288E+1
   3.19656E+1  -2.30516E+2
   1.69332E+2   9.29620E+0
  -3.94639E+1   7.49473E+1
  -8.50931E+1   1.47648E+2
   6.56338E+1  -2.20388E+2
  -8.06907E+0  -2.14394E+2
   1.04192E+2  -1.21040E+1
  -9.15667E+1   4.49553E+0
   8.45803E+0   4.73823E+1
  -9.69064E+1   1.01853E+2
  -7.77738E+1  -2.40942E+1
   1.24239E+1  -2.25116E+2
   5.04321E+1   1.30265E+2
   1.38243E+2   6.01686E+1
   5.13898E+1  -2.50119E+2
   9.78056E+1  -6.12507E+0
   3.44700E+2   3.74867E+1
  -2.62983E+1   1.75473E+2
  -1.11436E+2   9.71712E+0
  -2.53161E+2   4.75502E+1
   1.48092E+2   6.02360E+1
   2.17044E+2   1.67777E+1
   1.41964E+2   2.15121E+2
   1.56924E+2  -7.55055E+0
   2.96472E+1   7.84864E+1
  -3.72077E+1  -1.50445E+2
  -7.51073E+1   1.63217E+2
   6.29418E+1  -3.26187E+2
   1.34436E+2  -2.47387E+2
   1.85675E+2  -2.97071E+2
   2.86666E+2   8.42562E+1
  -1.01679E+1   6.55092E+1
   1.55077E+2   1.90356E+2
   4.01289E+1   4.28396E+1
   2.46747E+1  -2.66700E+2
   9.66027E+1  -1.50394E+2
   7.89682E+1  -2.04466E+2
   1.83020E+1   5.73403E+1
  -4.68568E+1   1.12174E+2
   2.66940E+2  -7.92186E+1
  -7.60038E+1   2.20883E+2
   5.38480E+1  -2.76630E+1
   2.29708E+0  -1.07701E+2
   1.07310E+2  -1.70821E+2
   6.25308E+1  -2.92888E+1
   3.74709E+1   1.88024E+2
   2.33902E+2  -2.58466E+2
   1.35688E+2  -2.22145E+2
   1.49341E+2   3.33734E+1
  -5.22927E+1   1.07136E+1
   6.62175E+1   1.08164E+2
   9.43653E+0  -3.62990E+1
   3.37627E+2  -1.14932E+2
   9.51687E+1  -1.84580E+2
   3.77646E+2  -2.38778E+1
   1.27704E+2   2.63987E+2
  -2.50252E+1  -4.25850E+1
   5.26656E+1  -3.67975E+1
  -1.16360E+2  -3.69317E+2
   1.80291E+2  -7.11143E+1
  -8.33821E+1  -3.71837E+1
   4.17096E+1   2.54827E+2
   2.12270E+2   7.52473E+1
   1.12981E+2   6.47326E+1
   1.53354E+2   2.65456E+1
  -1.51487E+2  -1.26283E+2
  -9.64168E+0  -1.81511E+1
   1.79937E+1  -2.31929E+2
   1.31541E+2  -3.90715E+1
   3.22403E+1   2.21329E+1
  -2.05299E+2   3.77094E+1
  -1.08841E+2  -8.06512E+1
  -4.43650E+1  -1.83799E+2
   9.52096E+1  -3.81125E+1
  -3.02763E+2   1.61361E+2
  -1.77410E+2  -1.59085E+2
   1.54509E+2  -1.78397E+2
   8.41655E+1  -1.88496E+2
  -4.82693E+1   1.63699E+2
   5.91283E+1  -1.00548E+1
   1.07467E+1   1.44091E+2
   4.90349E+1   7.28144E+1
   8.18274E+1  -4.68956E+1
  -2.68721E+1   1.25502E+2
  -4.60980E+0  -1.59653E+2
   2.19628E+2  -1.87471E+2
   1.13338E+2  -8.69275E+1
   8.21128E+1   7.19100E+1
   1.08351E+2  -1.02758E+2
  -7.63607E+0  -7.93061E+1
   3.11344E+2  -1.04940E+2
   1.21574E+1  -1.61819E+2
   2.77503E+2   3.68513E+2
  -4.30398E+1  -4.01462E+2
  -1.12231E+2  -2.66367E+2
   1.79949E+2  -2.95288E+1
  -4.09404E+1   1.23256E+2
   2.26017E+2  -5.92985E+1
   2.24400E+1  -6.27441E+1
  -9.51565E+0  -1.97962E+2
   1.63342E+2   4.27096E+1
   1.35553E+2  -1.25039E+2
  -1.28424E+2   4.36001E+0
   1.76508E+1   1.78390E+2
   4.54777E+1  -1.60028E+2
   1.94308E+2  -1.00891E+2
   1.54015E+2   4.30577E+1
   3.65820E+2   2.34002E+1
   2.07379E+2   5.20879E+1
   1.04752E+2  -1.69765E+2
   2.17243E+2   2.14356E+1
   1.69784E+2  -1.75688E+2
   1.37559E+2  -6.53976E+1
  -1.17554E+1   4.78271E+1
  -7.39335E+1   2.43169E+2
   1.19282E+2  -1.59344E+2
   4.94911E+0   5.10120E+1
   2.88755E+1  -9.61665E+1
   9.49077E-1   2.01029E+2
  -6.64481E+0  -2.78429E+1
  -5.20411E+1   6.16562E+1
   2.01357E+1   1.56580E+1
   5.49540E+1  -1.05263E+0
  -3.41597E+1  -4.26464E+1
   2.94761E+1  -2.69214E+1
  -2.48330E+2  -4.00874E+1
   1.13690E+2  -1.20658E+2
  -1.03711E+2  -3.26470E+1
   3.61620E+1  -1.33241E+2
   2.73543E+2  -5.12186E+1
   1.57671E+2  -1.44459E+2
  -2.41059E+1  -3.51329E+1
  -3.02778E+2  -7.79790E+1
