 
 $NMID
 ID=''
 FMTDAT='(2E13.5)'
 TRAMP=   1.00000E+0
 VOLUME=   1.00000E+0
 $END
   5.13335E+5   6.61864E+5
   6.02587E+5   2.11331E+6
   7.84636E+5   1.99282E+6
   6.67633E+5   1.91990E+6
   7.19669E+5   1.99482E+6
   8.30040E+5   1.91085E+6
   8.08882E+5   1.86180E+6
   8.29498E+5   1.90316E+6
   8.63039E+5   1.85791E+6
   8.20882E+5   1.83839E+6
   8.26581E+5   1.85608E+6
   8.41196E+5   1.81219E+6
   8.14614E+5   1.79890E+6
   8.12719E+5   1.81594E+6
   8.02096E+5   1.78356E+6
   7.75724E+5   1.76848E+6
   7.87613E+5   1.77633E+6
   7.96287E+5   1.74737E+6
   7.89429E+5   1.72463E+6
   8.16953E+5   1.71320E+6
   8.27414E+5   1.68406E+6
   8.18836E+5   1.66762E+6
   8.30708E+5   1.65794E+6
   8.35662E+5   1.63367E+6
   8.23203E+5   1.62008E+6
   8.30159E+5   1.60548E+6
   8.24414E+5   1.58989E+6
   8.04908E+5   1.58436E+6
   7.96721E+5   1.57339E+6
   7.95703E+5   1.55106E+6
   7.91138E+5   1.54084E+6
   7.94762E+5   1.52465E+6
   7.96088E+5   1.50008E+6
   7.99057E+5   1.48308E+6
   8.07226E+5   1.46192E+6
   8.17448E+5   1.43525E+6
   8.26271E+5   1.41599E+6
   8.31706E+5   1.39862E+6
   8.28555E+5   1.37656E+6
   8.27085E+5   1.35941E+6
   8.24662E+5   1.34272E+6
   8.18120E+5   1.32514E+6
   8.12462E+5   1.30753E+6
   8.08987E+5   1.29195E+6
   8.01285E+5   1.27682E+6
   7.94684E+5   1.26406E+6
   7.89497E+5   1.24834E+6
   7.83972E+5   1.23023E+6
   7.80906E+5   1.20997E+6
   7.80219E+5   1.19204E+6
   7.79041E+5   1.17338E+6
   7.77632E+5   1.15505E+6
   7.76409E+5   1.13781E+6
   7.73388E+5   1.12149E+6
   7.68609E+5   1.10402E+6
   7.63864E+5   1.08775E+6
   7.56420E+5   1.07358E+6
   7.48375E+5   1.05733E+6
   7.42533E+5   1.04009E+6
   7.38419E+5   1.02595E+6
   7.31678E+5   1.01256E+6
   7.24271E+5   9.97489E+5
   7.19236E+5   9.82393E+5
   7.13599E+5   9.67407E+5
   7.07482E+5   9.51818E+5
   7.01831E+5   9.34979E+5
   6.97490E+5   9.18992E+5
   6.91932E+5   9.03871E+5
   6.86329E+5   8.90234E+5
   6.79890E+5   8.77112E+5
   6.72490E+5   8.63544E+5
   6.65834E+5   8.49627E+5
   6.59394E+5   8.36097E+5
   6.52652E+5   8.23903E+5
   6.45645E+5   8.11098E+5
   6.38526E+5   7.97104E+5
   6.31955E+5   7.83996E+5
   6.26360E+5   7.71040E+5
   6.20180E+5   7.58306E+5
   6.13403E+5   7.45507E+5
   6.06654E+5   7.32396E+5
   6.00610E+5   7.19109E+5
   5.93847E+5   7.07310E+5
   5.86257E+5   6.96496E+5
   5.78252E+5   6.84643E+5
   5.70796E+5   6.73713E+5
   5.63585E+5   6.62624E+5
   5.56467E+5   6.52004E+5
   5.48883E+5   6.41569E+5
   5.41593E+5   6.30469E+5
   5.34957E+5   6.18689E+5
   5.28817E+5   6.06915E+5
   5.22627E+5   5.96147E+5
   5.16264E+5   5.84561E+5
   5.09881E+5   5.72210E+5
   5.04875E+5   5.59822E+5
   4.99400E+5   5.48841E+5
   4.93309E+5   5.37883E+5
   4.86764E+5   5.27066E+5
   4.80576E+5   5.15956E+5
   4.74692E+5   5.05345E+5
   4.67650E+5   4.95913E+5
   4.60206E+5   4.85528E+5
   4.53043E+5   4.75334E+5
   4.46596E+5   4.64570E+5
   4.40689E+5   4.54773E+5
   4.34509E+5   4.45127E+5
   4.27465E+5   4.35909E+5
   4.20278E+5   4.25812E+5
   4.13940E+5   4.15009E+5
   4.08511E+5   4.04965E+5
   4.02060E+5   3.96594E+5
   3.95118E+5   3.88183E+5
   3.88119E+5   3.79202E+5
   3.81393E+5   3.70570E+5
   3.74563E+5   3.62564E+5
   3.66769E+5   3.54340E+5
   3.59983E+5   3.45843E+5
   3.53131E+5   3.37035E+5
   3.46738E+5   3.29105E+5
   3.40369E+5   3.20937E+5
   3.33990E+5   3.13311E+5
   3.27292E+5   3.06156E+5
   3.20262E+5   2.98759E+5
   3.13512E+5   2.91237E+5
   3.06451E+5   2.83823E+5
   2.99958E+5   2.76765E+5
   2.93033E+5   2.70325E+5
   2.86342E+5   2.63778E+5
   2.79805E+5   2.57476E+5
   2.72661E+5   2.51979E+5
   2.65483E+5   2.46371E+5
   2.58528E+5   2.39818E+5
   2.52179E+5   2.33800E+5
   2.45504E+5   2.28376E+5
   2.38549E+5   2.22864E+5
   2.32595E+5   2.16771E+5
   2.26499E+5   2.11537E+5
   2.20415E+5   2.06213E+5
   2.13711E+5   2.00810E+5
   2.07507E+5   1.95135E+5
   2.01582E+5   1.89958E+5
   1.95662E+5   1.84215E+5
   1.89681E+5   1.79346E+5
   1.83945E+5   1.74681E+5
   1.77907E+5   1.69914E+5
   1.72170E+5   1.64863E+5
   1.66250E+5   1.60200E+5
   1.60574E+5   1.55591E+5
   1.54857E+5   1.51016E+5
   1.49714E+5   1.46296E+5
   1.44218E+5   1.41399E+5
   1.39291E+5   1.37093E+5
   1.34056E+5   1.33011E+5
   1.28948E+5   1.28445E+5
   1.23770E+5   1.24060E+5
   1.19035E+5   1.19722E+5
   1.14216E+5   1.15464E+5
   1.09134E+5   1.11310E+5
   1.04617E+5   1.07257E+5
   1.00210E+5   1.03354E+5
   9.55070E+4   9.96174E+4
   9.11607E+4   9.55510E+4
   8.65971E+4   9.17959E+4
   8.23689E+4   8.78876E+4
   7.81667E+4   8.44025E+4
   7.40355E+4   8.09145E+4
   6.95705E+4   7.76910E+4
   6.54369E+4   7.41325E+4
   6.15424E+4   7.05973E+4
   5.75482E+4   6.71898E+4
   5.39211E+4   6.38629E+4
   4.98106E+4   6.08897E+4
   4.61677E+4   5.79605E+4
   4.23203E+4   5.46417E+4
   3.90169E+4   5.21245E+4
   3.52562E+4   4.90754E+4
   3.17920E+4   4.64533E+4
   2.82954E+4   4.35276E+4
   2.49616E+4   4.09420E+4
   2.21158E+4   3.81238E+4
   1.85462E+4   3.58204E+4
   1.56834E+4   3.33994E+4
   1.20566E+4   3.09118E+4
   9.25484E+3   2.83455E+4
   6.47077E+3   2.61592E+4
   3.68522E+3   2.39338E+4
   1.16278E+3   2.14441E+4
  -1.52338E+3   1.93311E+4
  -4.05938E+3   1.72699E+4
  -6.74648E+3   1.50718E+4
  -9.20416E+3   1.30112E+4
  -1.16803E+4   1.09090E+4
  -1.40465E+4   8.96388E+3
  -1.60927E+4   6.72066E+3
  -1.81761E+4   4.94828E+3
  -2.02130E+4   2.98032E+3
  -2.24206E+4   1.06374E+3
  -2.46549E+4  -8.07062E+2
  -2.64504E+4  -2.70105E+3
  -2.79749E+4  -4.39154E+3
  -2.94692E+4  -6.29039E+3
  -3.11825E+4  -7.76275E+3
  -3.27904E+4  -9.56930E+3
  -3.43013E+4  -1.14562E+4
  -3.62069E+4  -1.30365E+4
  -3.72611E+4  -1.46311E+4
  -3.83707E+4  -1.63894E+4
  -3.99941E+4  -1.76804E+4
  -4.12551E+4  -1.96279E+4
  -4.19763E+4  -2.09865E+4
  -4.32214E+4  -2.26549E+4
  -4.45532E+4  -2.38816E+4
  -4.56911E+4  -2.54635E+4
  -4.64655E+4  -2.71862E+4
  -4.73496E+4  -2.81391E+4
  -4.80529E+4  -2.97176E+4
  -4.87867E+4  -3.10319E+4
  -4.96247E+4  -3.22749E+4
  -5.03499E+4  -3.35154E+4
  -5.11240E+4  -3.47984E+4
  -5.16994E+4  -3.60537E+4
  -5.22799E+4  -3.72552E+4
  -5.27795E+4  -3.81092E+4
  -5.32220E+4  -3.94678E+4
  -5.37082E+4  -4.05143E+4
  -5.39771E+4  -4.10510E+4
  -5.44517E+4  -4.22721E+4
  -5.49735E+4  -4.31581E+4
  -5.50542E+4  -4.42241E+4
  -5.51594E+4  -4.51153E+4
  -5.53937E+4  -4.58911E+4
  -5.54945E+4  -4.67809E+4
  -5.57436E+4  -4.75968E+4
  -5.60104E+4  -4.80539E+4
  -5.61227E+4  -4.89666E+4
  -5.59880E+4  -4.94254E+4
  -5.60049E+4  -5.00486E+4
  -5.59690E+4  -5.08545E+4
  -5.58499E+4  -5.15273E+4
  -5.59727E+4  -5.16815E+4
  -5.58277E+4  -5.25035E+4
  -5.58449E+4  -5.25563E+4
  -5.55890E+4  -5.33724E+4
  -5.54410E+4  -5.35887E+4
  -5.54472E+4  -5.38870E+4
  -5.52780E+4  -5.41594E+4
  -5.45711E+4  -5.47790E+4
  -5.44384E+4  -5.50342E+4
  -5.41080E+4  -5.50727E+4
  -5.40055E+4  -5.53790E+4
  -5.37341E+4  -5.59187E+4
  -5.33228E+4  -5.63028E+4
  -5.29014E+4  -5.63368E+4
  -5.23251E+4  -5.65277E+4
  -5.16257E+4  -5.66024E+4
  -5.15476E+4  -5.67372E+4
  -5.10486E+4  -5.69459E+4
  -5.06958E+4  -5.71456E+4
  -5.00970E+4  -5.74546E+4
  -4.93951E+4  -5.73839E+4
  -4.85843E+4  -5.74547E+4
  -4.82323E+4  -5.72982E+4
  -4.77541E+4  -5.77075E+4
  -4.72001E+4  -5.75511E+4
  -4.64800E+4  -5.77139E+4
  -4.56745E+4  -5.76116E+4
  -4.51305E+4  -5.77473E+4
  -4.43053E+4  -5.78015E+4
  -4.37529E+4  -5.77234E+4
  -4.30577E+4  -5.73052E+4
  -4.22442E+4  -5.74808E+4
  -4.15170E+4  -5.72626E+4
  -4.11381E+4  -5.72962E+4
  -4.03948E+4  -5.70646E+4
  -3.93686E+4  -5.71221E+4
  -3.85131E+4  -5.68097E+4
  -3.77002E+4  -5.68841E+4
  -3.71340E+4  -5.64989E+4
  -3.61387E+4  -5.63422E+4
  -3.57531E+4  -5.63890E+4
  -3.46034E+4  -5.61481E+4
  -3.37679E+4  -5.58530E+4
  -3.30872E+4  -5.55044E+4
  -3.20486E+4  -5.55908E+4
  -3.14698E+4  -5.51791E+4
  -3.06932E+4  -5.48736E+4
  -2.98520E+4  -5.43140E+4
  -2.90951E+4  -5.42465E+4
  -2.85663E+4  -5.40534E+4
  -2.76441E+4  -5.36351E+4
  -2.65763E+4  -5.32349E+4
  -2.57891E+4  -5.31803E+4
  -2.49159E+4  -5.28358E+4
  -2.42299E+4  -5.23668E+4
  -2.35656E+4  -5.17184E+4
  -2.28595E+4  -5.16181E+4
  -2.19771E+4  -5.08259E+4
  -2.10371E+4  -5.07578E+4
  -2.04176E+4  -5.06301E+4
  -1.95504E+4  -4.95737E+4
  -1.90658E+4  -4.94946E+4
  -1.81509E+4  -4.91435E+4
  -1.72036E+4  -4.84962E+4
  -1.65426E+4  -4.81679E+4
  -1.58544E+4  -4.76377E+4
  -1.52440E+4  -4.72816E+4
  -1.43379E+4  -4.66160E+4
  -1.35449E+4  -4.63775E+4
  -1.30312E+4  -4.57084E+4
  -1.21401E+4  -4.53247E+4
  -1.16723E+4  -4.50459E+4
  -1.09715E+4  -4.45919E+4
  -1.01658E+4  -4.39487E+4
  -9.38899E+3  -4.35128E+4
  -8.70607E+3  -4.30796E+4
  -7.98045E+3  -4.25236E+4
  -7.54752E+3  -4.18670E+4
  -6.81751E+3  -4.14445E+4
  -6.27421E+3  -4.08567E+4
  -5.45436E+3  -4.04484E+4
  -5.19154E+3  -3.97736E+4
  -4.29968E+3  -3.95017E+4
  -3.89493E+3  -3.88317E+4
  -3.16914E+3  -3.84356E+4
  -2.44215E+3  -3.78083E+4
  -2.11620E+3  -3.72460E+4
  -1.47555E+3  -3.69675E+4
  -7.78131E+2  -3.59715E+4
  -3.42604E+2  -3.55832E+4
   1.04021E+2  -3.49622E+4
   5.43470E+2  -3.42231E+4
   1.30949E+3  -3.38408E+4
   1.85654E+3  -3.32900E+4
   2.55036E+3  -3.27836E+4
   2.80756E+3  -3.24208E+4
   3.34199E+3  -3.18960E+4
   4.15477E+3  -3.11305E+4
   4.22492E+3  -3.05769E+4
   4.88359E+3  -3.02507E+4
   5.10337E+3  -2.94798E+4
   5.80015E+3  -2.91519E+4
   6.31739E+3  -2.84325E+4
   6.60822E+3  -2.79228E+4
   7.24656E+3  -2.75101E+4
   7.61207E+3  -2.64970E+4
   7.73245E+3  -2.62437E+4
   8.38182E+3  -2.54890E+4
   8.54525E+3  -2.51473E+4
   8.77909E+3  -2.48432E+4
   9.49961E+3  -2.38877E+4
   9.72183E+3  -2.33791E+4
   1.00403E+4  -2.25732E+4
   1.02695E+4  -2.23027E+4
   1.06584E+4  -2.16429E+4
   1.09779E+4  -2.12689E+4
   1.13137E+4  -2.08737E+4
   1.16347E+4  -2.03961E+4
   1.16397E+4  -1.97561E+4
   1.21778E+4  -1.94235E+4
   1.25011E+4  -1.89974E+4
   1.25522E+4  -1.82036E+4
   1.26654E+4  -1.78195E+4
   1.29688E+4  -1.73383E+4
   1.29733E+4  -1.67501E+4
   1.34297E+4  -1.65113E+4
   1.35235E+4  -1.61078E+4
