 LCModel (Version 6.3-1N) Copyright: S.W. Provencher.          Ref.: Magn. Reson. Med. 30:672-679 (1993).                
 Slice_N1@13_20  28-Feb-2025 11:37:41
 27 lines in following concentration table = NCONC+1
    Conc.  %SD /Cr+PCr  Metabolite                                         
 1.94E-04   7% 1.9E-04 Mac                                                 
    4.984  29%   4.770 Cr                                                  
    3.375  42%   3.230 PCr                                                 
    4.609  20%   4.411 Ins                                                 
    8.988   9%   8.602 NAA                                                 
    7.706  12%   7.376 Tau                                                 
    2.092  16%   2.002 PCho                                                
    0.000 999%   0.000 GPC                                                 
    9.165  12%   8.772 Glu                                                 
    3.238  27%   3.099 Gln                                                 
    0.000 999%   0.000 Ala                                                 
    1.367  95%   1.309 Asc                                                 
    2.298  45%   2.200 Asp                                                 
    0.256 214%   0.245 GABA                                                
    0.173 408%   0.165 Glc                                                 
    1.065  49%   1.020 GSH                                                 
    7.550  11%   7.226 Lac                                                 
    0.705  93%   0.675 NAAG                                                
    1.183 105%   1.132 PE                                                  
    2.092  16%   2.002 GPC+PCho                                            
    9.693   8%   9.277 NAA+NAAG                                            
   12.403  11%  11.871 Glu+Gln                                             
    8.358   9%   8.000 Cr+PCr                                              
    9.693   8%   9.277 NAA+NAAG                                            
    8.358   9%   8.000 Cr+PCr                                              
   12.403  11%  11.871 Glu+Gln                                             
   6 lines in following misc. output table
  FWHM = 0.024 ppm    S/N =   3                                            
  Data shift = 0.033 ppm                                                   
  Ph:-105 deg       0.0 deg/ppm                                            
  alphaB,S = 1.9E-01,   4.0E-01                                            
   19 spline knots.   Ns = 5(1)                                            
   2 inflections.     1 extrema                                            
  480 points on ppm-axis = NY
      4.100000     4.091866     4.083733     4.075600     4.067466     4.059333     4.051199     4.043066     4.034933     4.026799
      4.018666     4.010532     4.002399     3.994265     3.986132     3.977998     3.969864     3.961731     3.953597     3.945463
      3.937330     3.929196     3.921062     3.912929     3.904795     3.896662     3.888528     3.880394     3.872261     3.864127
      3.855993     3.847860     3.839726     3.831592     3.823459     3.815325     3.807191     3.799058     3.790924     3.782790
      3.774657     3.766523     3.758389     3.750256     3.742122     3.733989     3.725855     3.717721     3.709588     3.701454
      3.693320     3.685187     3.677053     3.668919     3.660786     3.652652     3.644518     3.636385     3.628251     3.620117
      3.611984     3.603850     3.595716     3.587583     3.579449     3.571316     3.563182     3.555048     3.546915     3.538781
      3.530647     3.522514     3.514380     3.506246     3.498113     3.489979     3.481845     3.473712     3.465578     3.457444
      3.449311     3.441177     3.433043     3.424910     3.416776     3.408643     3.400509     3.392375     3.384242     3.376108
      3.367974     3.359841     3.351707     3.343573     3.335440     3.327306     3.319172     3.311039     3.302905     3.294771
      3.286638     3.278504     3.270370     3.262237     3.254103     3.245970     3.237836     3.229702     3.221569     3.213435
      3.205301     3.197168     3.189034     3.180900     3.172767     3.164633     3.156499     3.148366     3.140232     3.132098
      3.123965     3.115831     3.107697     3.099564     3.091430     3.083297     3.075163     3.067029     3.058896     3.050762
      3.042628     3.034495     3.026361     3.018227     3.010094     3.001960     2.993826     2.985693     2.977559     2.969425
      2.961292     2.953158     2.945024     2.936891     2.928757     2.920624     2.912490     2.904356     2.896223     2.888089
      2.879955     2.871822     2.863688     2.855554     2.847421     2.839287     2.831153     2.823020     2.814886     2.806752
      2.798619     2.790485     2.782351     2.774218     2.766084     2.757951     2.749817     2.741683     2.733550     2.725416
      2.717282     2.709149     2.701015     2.692881     2.684748     2.676614     2.668480     2.660347     2.652213     2.644079
      2.635946     2.627812     2.619678     2.611545     2.603411     2.595278     2.587144     2.579010     2.570877     2.562743
      2.554609     2.546476     2.538342     2.530208     2.522075     2.513941     2.505807     2.497674     2.489540     2.481406
      2.473273     2.465139     2.457006     2.448872     2.440738     2.432605     2.424471     2.416337     2.408204     2.400070
      2.391936     2.383803     2.375669     2.367535     2.359402     2.351268     2.343134     2.335001     2.326867     2.318733
      2.310600     2.302466     2.294333     2.286199     2.278065     2.269932     2.261798     2.253664     2.245531     2.237397
      2.229263     2.221130     2.212996     2.204862     2.196729     2.188595     2.180461     2.172328     2.164194     2.156060
      2.147927     2.139793     2.131660     2.123526     2.115392     2.107259     2.099125     2.090991     2.082858     2.074724
      2.066590     2.058457     2.050323     2.042189     2.034056     2.025922     2.017788     2.009655     2.001521     1.993387
      1.985254     1.977120     1.968987     1.960853     1.952719     1.944586     1.936452     1.928318     1.920185     1.912051
      1.903917     1.895784     1.887650     1.879516     1.871383     1.863249     1.855115     1.846982     1.838848     1.830714
      1.822581     1.814447     1.806314     1.798180     1.790046     1.781913     1.773779     1.765645     1.757512     1.749378
      1.741244     1.733111     1.724977     1.716843     1.708710     1.700576     1.692442     1.684309     1.676175     1.668041
      1.659908     1.651774     1.643641     1.635507     1.627373     1.619240     1.611106     1.602972     1.594839     1.586705
      1.578571     1.570438     1.562304     1.554170     1.546037     1.537903     1.529769     1.521636     1.513502     1.505368
      1.497235     1.489101     1.480968     1.472834     1.464700     1.456567     1.448433     1.440299     1.432166     1.424032
      1.415898     1.407765     1.399631     1.391497     1.383364     1.375230     1.367096     1.358963     1.350829     1.342695
      1.334562     1.326428     1.318295     1.310161     1.302027     1.293894     1.285760     1.277626     1.269493     1.261359
      1.253225     1.245092     1.236958     1.228824     1.220691     1.212557     1.204423     1.196290     1.188156     1.180022
      1.171889     1.163755     1.155622     1.147488     1.139354     1.131221     1.123087     1.114953     1.106820     1.098686
      1.090552     1.082419     1.074285     1.066151     1.058018     1.049884     1.041750     1.033617     1.025483     1.017349
      1.009216     1.001082     0.992949     0.984815     0.976681     0.968548     0.960414     0.952280     0.944147     0.936013
      0.927879     0.919746     0.911612     0.903478     0.895345     0.887211     0.879077     0.870944     0.862810     0.854676
      0.846543     0.838409     0.830276     0.822142     0.814008     0.805875     0.797741     0.789607     0.781474     0.773340
      0.765206     0.757073     0.748939     0.740805     0.732672     0.724538     0.716404     0.708271     0.700137     0.692003
      0.683870     0.675736     0.667603     0.659469     0.651335     0.643202     0.635068     0.626934     0.618801     0.610667
      0.602533     0.594400     0.586266     0.578132     0.569999     0.561865     0.553731     0.545598     0.537464     0.529330
      0.521197     0.513063     0.504930     0.496796     0.488662     0.480529     0.472395     0.464261     0.456128     0.447994
      0.439861     0.431727     0.423593     0.415460     0.407326     0.399192     0.391059     0.382925     0.374792     0.366658
      0.358524     0.350391     0.342257     0.334124     0.325990     0.317856     0.309723     0.301589     0.293455     0.285322
      0.277188     0.269055     0.260921     0.252787     0.244654     0.236520     0.228386     0.220253     0.212119     0.203986
 NY phased data points follow
   2.73516E+01  3.88573E+01  2.19540E+01  2.57378E+01  3.11071E+01  3.03352E+01  3.68531E+01  2.34730E+01  2.27742E+01  3.42374E+01
   2.78380E+01  1.86303E+01  2.45465E+01  9.34845E+00  2.35666E+01  2.06238E+01  1.66055E+00  2.16273E+01 -6.35681E+00 -1.77153E+01
  -1.58806E+01 -1.80972E+01 -5.39056E+00  7.20501E+00  3.25154E+01  6.13554E+01  7.28610E+01  5.64272E+01  6.44752E+01  5.85085E+01
   5.13906E+01  6.63841E+01  6.38383E+01  4.83790E+01  6.18311E+01  8.24786E+01  5.89448E+01  6.74615E+01  4.75972E+01  1.55166E+01
   2.62344E+01  1.01566E+01 -6.42565E+00  5.71623E+00  4.42336E+01  5.99711E+01  6.15858E+01  7.57452E+01  9.33537E+01  9.10581E+01
   8.57169E+01  8.71493E+01  6.93779E+01  6.73188E+01  6.25867E+01  5.32103E+01  4.17547E+01  3.89893E+01  4.32067E+01  4.20290E+01
   4.94537E+01  5.22732E+01  6.66542E+01  7.65537E+01  9.07486E+01  9.47658E+01  8.68119E+01  8.72030E+01  4.86902E+01  3.46637E+01
   5.36282E+01  3.36493E+01  4.63452E+01  7.80400E+01  8.36019E+01  9.87150E+01  9.47927E+01  9.72984E+01  9.25850E+01  8.94913E+01
   9.48729E+01  7.62862E+01  7.15949E+01  4.89767E+01  3.40213E+01  2.89939E+01  3.46325E+01  5.55213E+01  6.54560E+01  8.49357E+01
   9.27837E+01  1.03636E+02  9.49628E+01  9.16651E+01  1.08865E+02  1.01058E+02  1.03913E+02  1.17000E+02  1.11673E+02  1.05816E+02
   1.08239E+02  9.67046E+01  8.01279E+01  6.52297E+01  6.33160E+01  5.11242E+01  3.41048E+01  4.04224E+01  2.27508E+01 -2.43854E+01
  -7.87112E+01 -9.70655E+01 -7.07193E+01 -4.05620E+01 -1.62145E+01  9.03483E+00  2.16861E+01  2.12241E+01  2.78024E+01  2.95284E+01
   3.47562E+01  5.08952E+01  5.18865E+01  5.21661E+01  5.62286E+01  6.34157E+01  7.84591E+01  6.76257E+01  8.79315E+01  1.17862E+02
   1.47808E+02  1.55815E+02  5.70116E+01 -7.82099E-01 -2.55674E+01 -4.40533E+01 -3.65091E+01 -3.84766E+01 -2.79304E+01 -3.99215E+01
  -2.94856E+01 -1.17171E+01 -2.02844E+01 -2.89975E+01 -6.59871E+00 -9.51914E+00 -2.83346E+01 -1.50710E+01 -9.78052E+00 -1.21959E+00
  -1.22668E+01  1.14430E+00 -2.84176E+00  7.58624E+00  1.78436E+01 -7.27995E+00  2.69108E+01  2.12735E+01  1.22100E+01  1.95500E+01
   2.91793E+01  3.07097E+01  7.57101E+00  1.88254E+01  2.08660E+01  3.19771E+01  2.91119E+01  1.29223E+01  2.70228E+01  1.75598E+01
   1.82159E+01  3.98476E+01  3.76415E+01  4.69027E+01  3.35777E+01  4.41531E+01  6.79072E+01  4.72611E+01  4.60024E+01  2.65070E+01
   3.02826E+01  1.81318E+01  9.23891E+00  1.67493E+01 -9.49391E+00  5.21821E-01 -6.99468E+00  1.26212E+00  5.96465E+00  4.81141E+00
   2.08631E+01  8.64300E+00  6.86271E+00  2.48240E+01  3.54145E+01  2.85957E+01  2.59998E+01  1.41435E+01  2.65473E+01  3.05101E+01
   2.34385E+01  4.60731E+01  5.72888E+01  5.32951E+01  3.87327E+01  3.75122E+01  4.38632E+01  2.66378E+01 -6.42487E+00 -4.80745E+00
  -4.95554E+00 -8.05587E+00 -6.12307E+00 -6.65439E+00  2.23286E+01  4.50531E+01  6.77466E+01  7.55951E+01  7.35711E+01  6.47794E+01
   6.39516E+01  5.32018E+01  3.10262E+01  3.25686E+01  3.42854E+01  4.32276E+01  3.02526E+01  3.80251E+01  5.18452E+01  4.24779E+01
   4.15928E+01  5.23489E+01  4.38981E+01  2.29658E+01  2.03038E+01  6.48632E+00  3.90677E+00 -1.91480E+01 -1.44499E+01 -1.56801E+01
  -2.86546E+01  3.63868E+00  5.24172E+00  1.57713E+01  2.07338E+01  2.21801E+01  3.03189E+01  3.70877E+01  1.89685E+01 -2.18509E-01
   1.62040E+01  9.93220E+00  1.31078E+01  1.00440E+01 -9.97853E-01 -2.54450E+01 -5.14279E+01  1.22027E+01  9.77421E+01  1.31784E+02
   1.68663E+02  1.83671E+02  1.65728E+02  1.36074E+02  1.16192E+02  1.32347E+02  1.18817E+02  1.06943E+02  1.10024E+02  1.12200E+02
   1.10026E+02  1.01468E+02  1.06933E+02  1.16620E+02  1.09711E+02  9.45835E+01  1.03326E+02  8.92072E+01  9.59411E+01  8.59675E+01
   9.32228E+01  1.09918E+02  8.19218E+01  1.09521E+02  9.65961E+01  8.07733E+01  7.73138E+01  7.63107E+01  7.91463E+01  7.89356E+01
   8.62848E+01  5.80177E+01  5.40158E+01  4.50661E+01  5.19333E+01  3.99972E+01  3.54223E+01  4.43509E+01  2.55998E+01  1.90252E+01
   2.74860E+01  5.03691E+01  3.46268E+01  5.55335E+01  5.57968E+01  5.18140E+01  6.34495E+01  5.29989E+01  7.02903E+01  6.31058E+01
   6.37670E+01  6.02836E+01  7.46871E+01  8.15205E+01  8.15257E+01  8.69478E+01  8.67479E+01  9.62973E+01  9.03905E+01  9.49671E+01
   8.41515E+01  9.78671E+01  9.45085E+01  9.02001E+01  9.95239E+01  1.07511E+02  1.37217E+02  1.24159E+02  1.38448E+02  1.44453E+02
   1.20475E+02  1.12629E+02  1.08678E+02  1.11697E+02  1.05812E+02  9.54171E+01  8.11073E+01  7.68631E+01  1.00146E+02  1.11854E+02
   9.43761E+01  9.70432E+01  9.01151E+01  8.30058E+01  6.52246E+01  4.77298E+01  5.48119E+01  3.61004E+01  3.55165E+01  2.12896E+01
   9.94567E+00  2.28949E+01  1.15291E+01  4.10299E+00  2.09779E+01  2.64169E+01  5.67558E+00  3.74319E+00  4.02266E+00  1.32125E-01
  -2.40692E-01  1.20574E+01  2.07555E+01  2.65231E+01  3.61380E+01  2.58064E+01  4.01922E+01  3.82825E+01  2.50598E+01  3.92651E+01
   4.31096E+01  4.81786E+01  5.46381E+01  6.46226E+01  6.14632E+01  5.80600E+01  7.49940E+01  7.54315E+01  6.52784E+01  6.39720E+01
   8.49337E+01  9.28184E+01  7.59296E+01  7.17695E+01  8.11245E+01  1.04037E+02  1.06062E+02  1.00204E+02  1.05586E+02  1.08852E+02
   1.07907E+02  1.04728E+02  8.85352E+01  6.20198E+01  6.55336E+01  5.49797E+01  6.13312E+01  6.58506E+01  4.30656E+01  4.54504E+01
   2.57722E+01  2.32339E+01  2.30706E+01  1.45661E+01  1.39012E+01  7.44570E+00  4.75440E-01 -1.75355E+01 -7.35479E+00 -1.18807E-01
   1.11873E+00  9.03062E-01 -3.69251E+00  1.02727E+00 -3.14028E+00 -8.26524E-01 -6.91347E+00 -3.00665E+00  7.85144E+00 -5.69246E+00
  -3.55942E+00  5.24271E+00  1.41529E+00 -2.39610E+00 -1.22284E+01 -8.29806E+00 -3.12417E+00  5.01919E+00  1.14645E+01 -1.17325E+01
  -1.04762E+01  8.93510E+00 -2.28982E+00 -7.57473E+00  1.32746E+01  1.10223E+01 -1.50077E+00 -1.73931E+00  2.77603E+00  1.65769E+01
   1.30109E+01 -3.61666E+00 -5.57453E+00  2.20036E+00  1.34863E+00  7.52749E+00 -4.12406E+00 -1.05839E+01  1.22369E+01  1.51054E+01
   7.18536E+00 -1.14248E+00  4.18659E+00  9.35637E+00  6.80285E+00 -9.37623E+00  1.82263E+00  2.15334E+01  2.61590E+00  3.84197E+00
   2.55061E+00  5.94030E+00  3.67941E+00  7.58999E+00  2.76175E-01 -1.31277E+01  1.27099E+01  1.09305E+01  1.99095E+01  1.44450E+01
   3.68746E+00  1.18351E+01  4.96373E+00  7.13137E+00  5.54692E-01  4.50400E+00  4.68584E+00  1.46126E+00  8.56829E+00  9.17018E+00
 NY points of the fit to the data follow
   1.09559E+01  1.41485E+01  1.61436E+01  1.97658E+01  2.53480E+01  3.60506E+01  4.40569E+01  4.47684E+01  4.11900E+01  3.55938E+01
   2.91278E+01  2.39322E+01  2.06697E+01  1.87276E+01  1.68314E+01  1.43070E+01  1.28662E+01  8.37728E+00  3.78771E+00 -6.77534E+00
  -1.89336E+01 -1.63072E+01 -9.21200E+00  1.68532E+01  4.69597E+01  6.35025E+01  7.08333E+01  7.42684E+01  7.36772E+01  7.34996E+01
   7.33141E+01  7.24407E+01  7.10073E+01  6.87731E+01  6.58427E+01  6.16153E+01  5.76885E+01  5.26254E+01  4.51635E+01  3.37109E+01
   1.79687E+01  1.00339E+01  1.10962E+01  1.97734E+01  3.31852E+01  5.02054E+01  6.42690E+01  7.28839E+01  7.79778E+01  7.99083E+01
   7.89538E+01  7.75053E+01  7.49643E+01  6.84918E+01  5.89730E+01  4.98926E+01  4.48628E+01  4.25784E+01  3.98507E+01  4.42730E+01
   5.14201E+01  5.31298E+01  5.91285E+01  6.80189E+01  7.36976E+01  7.82404E+01  8.00595E+01  7.44436E+01  6.10504E+01  4.99446E+01
   4.97370E+01  5.12311E+01  5.36591E+01  6.27776E+01  7.29252E+01  8.00492E+01  8.58559E+01  9.00715E+01  9.13012E+01  9.14271E+01
   8.43836E+01  7.22174E+01  5.48930E+01  3.39417E+01  2.54988E+01  2.26864E+01  3.19362E+01  4.66246E+01  5.94416E+01  6.89893E+01
   7.67946E+01  8.16714E+01  8.60804E+01  9.00772E+01  9.40541E+01  9.82939E+01  1.02216E+02  1.04845E+02  1.06220E+02  1.07694E+02
   1.11490E+02  1.11586E+02  1.02254E+02  9.12018E+01  6.84705E+01  4.92414E+01  4.78040E+01  4.97511E+01  3.39388E+01 -2.63870E+01
  -6.53976E+01 -6.99718E+01 -6.18215E+01 -4.40497E+01 -2.10508E+01 -6.81140E+00  2.64089E+00  1.06543E+01  1.77456E+01  2.42234E+01
   3.04180E+01  3.67153E+01  4.33058E+01  5.05260E+01  5.89148E+01  6.95073E+01  8.22053E+01  8.80720E+01  1.01373E+02  1.23219E+02
   1.51158E+02  1.51769E+02  7.55591E+01  9.82282E+00 -2.13235E+01 -3.89964E+01 -3.96367E+01 -2.71111E+01 -2.06117E+01 -1.71752E+01
  -1.51414E+01 -1.37194E+01 -1.30174E+01 -1.25822E+01 -1.19897E+01 -1.14607E+01 -1.01536E+01 -8.29951E+00 -5.95546E+00 -3.73687E+00
  -1.48140E+00  5.71369E-01  2.17813E+00  3.82572E+00  6.04301E+00  8.68424E+00  1.10723E+01  1.20587E+01  1.20288E+01  1.25211E+01
   1.43938E+01  1.71145E+01  1.78367E+01  1.61693E+01  1.44065E+01  1.37107E+01  1.42202E+01  1.50489E+01  1.50097E+01  1.55317E+01
   2.02032E+01  3.02473E+01  3.97047E+01  4.09762E+01  3.65801E+01  3.71505E+01  4.26961E+01  4.65294E+01  4.42608E+01  3.54196E+01
   2.68379E+01  1.99010E+01  1.42058E+01  1.10703E+01  9.64982E+00  8.48259E+00  8.20108E+00  8.13315E+00  8.50837E+00  9.86098E+00
   1.02307E+01  1.11982E+01  1.23564E+01  1.58833E+01  2.46873E+01  2.66531E+01  2.62478E+01  3.15576E+01  3.38973E+01  3.53846E+01
   3.58075E+01  3.66062E+01  4.12369E+01  4.29439E+01  4.07206E+01  3.73564E+01  3.22577E+01  2.45398E+01  1.80180E+01  1.19696E+01
   8.30551E+00  5.24161E+00  5.57470E+00  1.38672E+01  2.38343E+01  4.53341E+01  6.50735E+01  7.49687E+01  8.47540E+01  8.23481E+01
   7.26716E+01  6.57327E+01  6.03848E+01  5.69360E+01  5.59150E+01  5.45914E+01  5.24310E+01  4.86679E+01  4.33683E+01  3.71470E+01
   2.99463E+01  2.23922E+01  1.48438E+01  7.55565E+00  4.02948E-01 -6.68646E+00 -1.20894E+01 -1.67538E+01 -1.91119E+01 -1.66574E+01
  -1.48734E+01 -8.31713E+00 -8.40523E-01  5.97917E+00  1.45151E+01  1.91177E+01  2.16511E+01  2.25054E+01  1.91010E+01  1.67117E+01
   1.30018E+01  4.41539E+00  7.49070E+00  6.14163E+00 -4.14535E+00 -3.40666E+01 -5.47430E+01  8.22068E+00  8.09189E+01  1.20011E+02
   1.43419E+02  1.48749E+02  1.35929E+02  1.26263E+02  1.20796E+02  1.16646E+02  1.13182E+02  1.10135E+02  1.07426E+02  1.05027E+02
   1.03455E+02  1.02260E+02  1.01559E+02  1.01095E+02  1.00610E+02  9.99783E+01  9.90490E+01  9.81159E+01  9.72309E+01  9.62112E+01
   9.49608E+01  9.35797E+01  9.21130E+01  9.07707E+01  8.93441E+01  8.77200E+01  8.62256E+01  8.46104E+01  8.28467E+01  8.08844E+01
   7.85819E+01  7.62332E+01  7.38420E+01  7.12743E+01  6.90897E+01  6.77162E+01  6.73200E+01  6.78956E+01  6.91492E+01  7.06916E+01
   7.23639E+01  7.42901E+01  7.62436E+01  7.82058E+01  8.01091E+01  8.18415E+01  8.33989E+01  8.49767E+01  8.68309E+01  8.87397E+01
   9.04261E+01  9.19679E+01  9.32768E+01  9.44887E+01  9.56433E+01  9.64402E+01  9.69175E+01  9.71451E+01  9.66809E+01  9.57333E+01
   9.47094E+01  9.33829E+01  9.13661E+01  8.92412E+01  8.69563E+01  8.43574E+01  8.10415E+01  7.66261E+01  7.14579E+01  6.62946E+01
   6.16236E+01  5.78960E+01  5.55291E+01  5.50312E+01  5.66431E+01  6.05336E+01  6.64799E+01  7.20264E+01  7.79393E+01  8.70707E+01
   9.56669E+01  1.02111E+02  8.91836E+01  6.14267E+01  3.41995E+01  5.77428E-01 -1.13513E+01 -5.53019E+00  3.56145E+00  1.35701E+01
   2.26576E+01  2.62457E+01  2.77421E+01  2.76769E+01  2.66409E+01  2.53735E+01  2.46444E+01  2.44847E+01  2.51196E+01  2.65370E+01
   2.84131E+01  3.07571E+01  3.33606E+01  3.60147E+01  3.86300E+01  4.11122E+01  4.33965E+01  4.55289E+01  4.75523E+01  4.95983E+01
   5.16412E+01  5.36300E+01  5.57239E+01  5.78672E+01  6.01212E+01  6.28203E+01  6.58443E+01  6.89885E+01  7.27050E+01  7.69219E+01
   8.10752E+01  8.54238E+01  9.02206E+01  9.50532E+01  9.94129E+01  1.03146E+02  1.05460E+02  1.05500E+02  1.02605E+02  9.70487E+01
   8.97909E+01  8.22838E+01  7.52756E+01  6.90711E+01  6.39567E+01  5.92792E+01  5.42745E+01  4.85244E+01  4.25031E+01  3.61402E+01
   2.98554E+01  2.46468E+01  2.04245E+01  1.69673E+01  1.43400E+01  1.24727E+01  1.11673E+01  1.01007E+01  9.20118E+00  8.30260E+00
   7.44523E+00  6.79221E+00  6.35466E+00  6.01395E+00  5.64487E+00  5.52330E+00  5.45140E+00  5.25354E+00  4.80157E+00  4.56841E+00
   4.70040E+00  4.61411E+00  4.40588E+00  4.29032E+00  4.25751E+00  4.13907E+00  3.95898E+00  3.75821E+00  3.73235E+00  3.88439E+00
   3.89078E+00  3.83620E+00  3.67864E+00  3.45434E+00  3.23752E+00  3.20598E+00  3.23145E+00  3.23416E+00  3.36925E+00  3.41105E+00
   3.40894E+00  3.42607E+00  3.48945E+00  3.38662E+00  3.14355E+00  2.90133E+00  2.80834E+00  2.83416E+00  2.85545E+00  2.92775E+00
   2.98195E+00  2.80876E+00  2.67690E+00  2.77806E+00  2.85003E+00  2.90684E+00  3.04535E+00  3.05880E+00  3.07256E+00  3.11755E+00
   3.17692E+00  3.10814E+00  3.06265E+00  2.91734E+00  2.84537E+00  2.81731E+00  2.86639E+00  3.14435E+00  3.48533E+00  3.71889E+00
   3.69507E+00  3.54951E+00  3.37067E+00  3.32914E+00  3.42356E+00  3.46598E+00  3.55402E+00  3.78033E+00  3.85809E+00  3.84810E+00
 NY background values follow
     3.998E+01    4.011E+01    4.024E+01    4.037E+01    4.050E+01    4.063E+01    4.076E+01    4.090E+01    4.103E+01    4.116E+01
     4.130E+01    4.143E+01    4.156E+01    4.170E+01    4.183E+01    4.197E+01    4.210E+01    4.224E+01    4.237E+01    4.251E+01
     4.265E+01    4.278E+01    4.292E+01    4.306E+01    4.319E+01    4.333E+01    4.347E+01    4.361E+01    4.375E+01    4.388E+01
     4.402E+01    4.416E+01    4.430E+01    4.444E+01    4.458E+01    4.471E+01    4.485E+01    4.499E+01    4.512E+01    4.526E+01
     4.539E+01    4.553E+01    4.566E+01    4.579E+01    4.591E+01    4.604E+01    4.616E+01    4.628E+01    4.640E+01    4.652E+01
     4.663E+01    4.674E+01    4.685E+01    4.696E+01    4.706E+01    4.716E+01    4.725E+01    4.734E+01    4.743E+01    4.751E+01
     4.759E+01    4.767E+01    4.774E+01    4.780E+01    4.787E+01    4.792E+01    4.798E+01    4.803E+01    4.807E+01    4.811E+01
     4.815E+01    4.818E+01    4.821E+01    4.823E+01    4.825E+01    4.827E+01    4.828E+01    4.829E+01    4.829E+01    4.829E+01
     4.828E+01    4.827E+01    4.825E+01    4.824E+01    4.821E+01    4.818E+01    4.815E+01    4.812E+01    4.808E+01    4.803E+01
     4.798E+01    4.793E+01    4.787E+01    4.781E+01    4.775E+01    4.768E+01    4.761E+01    4.753E+01    4.746E+01    4.737E+01
     4.729E+01    4.721E+01    4.712E+01    4.703E+01    4.693E+01    4.684E+01    4.674E+01    4.665E+01    4.655E+01    4.645E+01
     4.635E+01    4.625E+01    4.614E+01    4.604E+01    4.594E+01    4.584E+01    4.573E+01    4.563E+01    4.553E+01    4.543E+01
     4.533E+01    4.523E+01    4.513E+01    4.503E+01    4.493E+01    4.484E+01    4.474E+01    4.465E+01    4.456E+01    4.446E+01
     4.437E+01    4.428E+01    4.420E+01    4.411E+01    4.402E+01    4.394E+01    4.385E+01    4.377E+01    4.369E+01    4.361E+01
     4.353E+01    4.345E+01    4.338E+01    4.330E+01    4.323E+01    4.316E+01    4.309E+01    4.302E+01    4.295E+01    4.289E+01
     4.282E+01    4.276E+01    4.270E+01    4.264E+01    4.258E+01    4.252E+01    4.246E+01    4.241E+01    4.236E+01    4.231E+01
     4.225E+01    4.221E+01    4.216E+01    4.211E+01    4.207E+01    4.202E+01    4.198E+01    4.194E+01    4.190E+01    4.186E+01
     4.182E+01    4.178E+01    4.175E+01    4.171E+01    4.168E+01    4.164E+01    4.161E+01    4.158E+01    4.155E+01    4.152E+01
     4.149E+01    4.147E+01    4.144E+01    4.141E+01    4.139E+01    4.137E+01    4.135E+01    4.133E+01    4.131E+01    4.129E+01
     4.127E+01    4.126E+01    4.125E+01    4.124E+01    4.123E+01    4.122E+01    4.122E+01    4.121E+01    4.121E+01    4.122E+01
     4.122E+01    4.123E+01    4.124E+01    4.125E+01    4.126E+01    4.128E+01    4.130E+01    4.132E+01    4.134E+01    4.137E+01
     4.140E+01    4.144E+01    4.147E+01    4.151E+01    4.156E+01    4.160E+01    4.165E+01    4.169E+01    4.174E+01    4.179E+01
     4.185E+01    4.190E+01    4.196E+01    4.201E+01    4.207E+01    4.213E+01    4.218E+01    4.224E+01    4.230E+01    4.236E+01
     4.241E+01    4.247E+01    4.252E+01    4.258E+01    4.263E+01    4.268E+01    4.274E+01    4.278E+01    4.283E+01    4.288E+01
     4.292E+01    4.296E+01    4.300E+01    4.304E+01    4.307E+01    4.310E+01    4.313E+01    4.316E+01    4.318E+01    4.321E+01
     4.323E+01    4.325E+01    4.326E+01    4.328E+01    4.329E+01    4.330E+01    4.331E+01    4.331E+01    4.331E+01    4.332E+01
     4.331E+01    4.331E+01    4.330E+01    4.330E+01    4.329E+01    4.327E+01    4.326E+01    4.324E+01    4.322E+01    4.320E+01
     4.318E+01    4.315E+01    4.312E+01    4.309E+01    4.306E+01    4.303E+01    4.300E+01    4.297E+01    4.294E+01    4.290E+01
     4.287E+01    4.284E+01    4.281E+01    4.278E+01    4.275E+01    4.272E+01    4.269E+01    4.267E+01    4.265E+01    4.263E+01
     4.261E+01    4.260E+01    4.259E+01    4.259E+01    4.258E+01    4.258E+01    4.259E+01    4.260E+01    4.262E+01    4.264E+01
     4.266E+01    4.269E+01    4.273E+01    4.277E+01    4.281E+01    4.286E+01    4.290E+01    4.295E+01    4.300E+01    4.305E+01
     4.310E+01    4.315E+01    4.320E+01    4.325E+01    4.329E+01    4.333E+01    4.337E+01    4.340E+01    4.343E+01    4.345E+01
     4.346E+01    4.347E+01    4.348E+01    4.347E+01    4.345E+01    4.343E+01    4.340E+01    4.335E+01    4.330E+01    4.323E+01
     4.316E+01    4.307E+01    4.297E+01    4.285E+01    4.273E+01    4.259E+01    4.245E+01    4.229E+01    4.213E+01    4.195E+01
     4.176E+01    4.157E+01    4.136E+01    4.115E+01    4.093E+01    4.070E+01    4.046E+01    4.021E+01    3.996E+01    3.970E+01
     3.943E+01    3.916E+01    3.887E+01    3.859E+01    3.829E+01    3.799E+01    3.769E+01    3.738E+01    3.706E+01    3.674E+01
     3.642E+01    3.609E+01    3.575E+01    3.542E+01    3.508E+01    3.473E+01    3.438E+01    3.403E+01    3.368E+01    3.332E+01
     3.296E+01    3.260E+01    3.224E+01    3.187E+01    3.150E+01    3.113E+01    3.076E+01    3.039E+01    3.002E+01    2.964E+01
     2.927E+01    2.889E+01    2.852E+01    2.814E+01    2.776E+01    2.739E+01    2.701E+01    2.664E+01    2.626E+01    2.589E+01
     2.552E+01    2.515E+01    2.478E+01    2.441E+01    2.404E+01    2.368E+01    2.332E+01    2.295E+01    2.259E+01    2.224E+01
     2.188E+01    2.153E+01    2.118E+01    2.083E+01    2.049E+01    2.014E+01    1.980E+01    1.947E+01    1.913E+01    1.880E+01
     1.848E+01    1.815E+01    1.783E+01    1.752E+01    1.720E+01    1.689E+01    1.659E+01    1.629E+01    1.599E+01    1.570E+01
     1.541E+01    1.512E+01    1.484E+01    1.456E+01    1.429E+01    1.402E+01    1.376E+01    1.350E+01    1.324E+01    1.298E+01
     1.273E+01    1.249E+01    1.224E+01    1.200E+01    1.176E+01    1.153E+01    1.130E+01    1.107E+01    1.084E+01    1.062E+01
     1.040E+01    1.018E+01    9.959E+00    9.745E+00    9.532E+00    9.322E+00    9.113E+00    8.907E+00    8.702E+00    8.499E+00
     8.298E+00    8.098E+00    7.899E+00    7.702E+00    7.506E+00    7.312E+00    7.119E+00    6.927E+00    6.736E+00    6.546E+00
     6.357E+00    6.168E+00    5.981E+00    5.794E+00    5.608E+00    5.423E+00    5.238E+00    5.054E+00    4.870E+00    4.687E+00
     4.503E+00    4.320E+00    4.137E+00    3.955E+00    3.772E+00    3.589E+00    3.406E+00    3.223E+00    3.040E+00    2.856E+00
 Mac      Conc. = 1.94E-04
   2.62589E+01  2.60058E+01  2.58259E+01  2.57696E+01  2.56834E+01  2.53212E+01  2.46533E+01  2.37049E+01  2.26747E+01  2.17669E+01
   2.11058E+01  2.08487E+01  2.07602E+01  2.10441E+01  2.09423E+01  2.01260E+01  1.91513E+01  1.92002E+01  2.12333E+01  2.39587E+01
   2.65711E+01  2.95832E+01  3.22572E+01  3.39026E+01  3.50548E+01  3.60296E+01  3.70299E+01  3.81350E+01  3.95719E+01  4.10049E+01
   4.22203E+01  4.32541E+01  4.41514E+01  4.48289E+01  4.50090E+01  4.48827E+01  4.49596E+01  4.58033E+01  4.73971E+01  4.90316E+01
   4.99415E+01  5.01756E+01  5.03689E+01  5.07611E+01  5.15831E+01  5.25224E+01  5.30920E+01  5.32707E+01  5.30183E+01  5.24693E+01
   5.15854E+01  5.07855E+01  5.02682E+01  4.98895E+01  4.96171E+01  4.94642E+01  4.95591E+01  5.01522E+01  5.11046E+01  5.18830E+01
   5.27839E+01  5.39271E+01  5.45772E+01  5.47160E+01  5.45407E+01  5.39507E+01  5.35268E+01  5.32543E+01  5.29974E+01  5.26836E+01
   5.30452E+01  5.42925E+01  5.58481E+01  5.71695E+01  5.82099E+01  5.88040E+01  5.88551E+01  5.85366E+01  5.80627E+01  5.76176E+01
   5.72160E+01  5.68647E+01  5.65514E+01  5.66022E+01  5.69501E+01  5.73077E+01  5.79066E+01  5.84200E+01  5.88869E+01  5.91727E+01
   5.94145E+01  5.95746E+01  5.96305E+01  5.94961E+01  5.92439E+01  5.83956E+01  5.71389E+01  5.55442E+01  5.36598E+01  5.18729E+01
   5.04639E+01  4.89875E+01  4.71392E+01  4.51600E+01  4.27923E+01  3.95293E+01  3.54495E+01  3.10163E+01  2.75167E+01  2.55407E+01
