 
 $NMID
 ID=''
 FMTDAT='(2E13.5)'
 TRAMP=   1.00000E+0
 VOLUME=   1.00000E+0
 $END
  -6.00584E+5   3.27271E+5
  -1.72500E+6   2.61507E+5
  -1.60363E+6   4.17733E+5
  -1.56749E+6   2.49733E+5
  -1.71122E+6   2.42517E+5
  -1.64937E+6   3.36045E+5
  -1.54846E+6   2.75063E+5
  -1.58939E+6   2.16431E+5
  -1.60013E+6   2.31330E+5
  -1.59592E+6   2.27677E+5
  -1.58954E+6   2.50798E+5
  -1.52958E+6   2.48190E+5
  -1.51874E+6   1.92056E+5
  -1.55569E+6   1.98780E+5
  -1.53078E+6   2.35864E+5
  -1.49430E+6   2.28606E+5
  -1.49293E+6   2.15540E+5
  -1.47881E+6   1.97983E+5
  -1.47770E+6   1.76046E+5
  -1.48115E+6   1.85991E+5
  -1.45223E+6   1.84182E+5
  -1.43437E+6   1.58766E+5
  -1.43608E+6   1.52744E+5
  -1.42612E+6   1.49385E+5
  -1.41390E+6   1.37756E+5
  -1.40124E+6   1.48414E+5
  -1.38245E+6   1.48350E+5
  -1.37503E+6   1.36899E+5
  -1.36817E+6   1.38098E+5
  -1.35112E+6   1.45166E+5
  -1.34161E+6   1.38801E+5
  -1.32973E+6   1.33543E+5
  -1.31455E+6   1.23280E+5
  -1.30697E+6   1.16547E+5
  -1.29649E+6   1.18480E+5
  -1.28071E+6   1.13516E+5
  -1.27188E+6   1.01378E+5
  -1.26240E+6   9.47831E+4
  -1.24843E+6   9.29509E+4
  -1.23867E+6   9.14871E+4
  -1.22511E+6   9.05808E+4
  -1.20998E+6   8.76360E+4
  -1.19953E+6   8.75991E+4
  -1.19003E+6   8.92624E+4
  -1.17572E+6   8.87837E+4
  -1.16490E+6   8.80892E+4
  -1.15477E+6   8.45281E+4
  -1.14221E+6   7.68718E+4
  -1.12854E+6   7.26232E+4
  -1.11614E+6   7.03876E+4
  -1.10542E+6   6.51846E+4
  -1.09389E+6   5.84289E+4
  -1.08263E+6   5.40175E+4
  -1.07192E+6   4.98519E+4
  -1.06110E+6   4.55822E+4
  -1.04866E+6   4.10446E+4
  -1.03679E+6   3.67993E+4
  -1.02564E+6   3.41969E+4
  -1.01425E+6   3.28558E+4
  -1.00317E+6   3.02271E+4
  -9.92305E+5   2.64596E+4
  -9.81510E+5   2.26864E+4
  -9.71569E+5   1.82410E+4
  -9.60285E+5   1.40735E+4
  -9.47340E+5   9.30623E+3
  -9.35381E+5   5.36832E+3
  -9.23854E+5   9.95088E+2
  -9.13227E+5  -2.54844E+3
  -9.03584E+5  -6.16571E+3
  -8.93848E+5  -1.04977E+4
  -8.81828E+5  -1.52919E+4
  -8.70575E+5  -1.79851E+4
  -8.61966E+5  -2.02328E+4
  -8.53019E+5  -2.36968E+4
  -8.41637E+5  -2.76426E+4
  -8.30442E+5  -3.08273E+4
  -8.20973E+5  -3.39269E+4
  -8.11312E+5  -3.84773E+4
  -8.00476E+5  -4.26641E+4
  -7.89773E+5  -4.69549E+4
  -7.79251E+5  -5.12286E+4
  -7.68810E+5  -5.49930E+4
  -7.59287E+5  -5.85845E+4
  -7.49671E+5  -6.27761E+4
  -7.39747E+5  -6.62034E+4
  -7.29826E+5  -6.87919E+4
  -7.20393E+5  -7.10929E+4
  -7.11605E+5  -7.37479E+4
  -7.02487E+5  -7.62159E+4
  -6.93396E+5  -7.74406E+4
  -6.84447E+5  -7.82742E+4
  -6.75768E+5  -8.01284E+4
  -6.66640E+5  -8.30389E+4
  -6.57087E+5  -8.53833E+4
  -6.47303E+5  -8.67793E+4
  -6.38604E+5  -8.80220E+4
  -6.30048E+5  -8.98680E+4
  -6.21453E+5  -9.19783E+4
  -6.12378E+5  -9.34512E+4
  -6.03915E+5  -9.40968E+4
  -5.95620E+5  -9.48335E+4
  -5.87598E+5  -9.62531E+4
  -5.78495E+5  -9.71906E+4
  -5.69709E+5  -9.72527E+4
  -5.61806E+5  -9.62482E+4
  -5.54169E+5  -9.58131E+4
  -5.46649E+5  -9.63409E+4
  -5.37926E+5  -9.68306E+4
  -5.29045E+5  -9.61034E+4
  -5.20746E+5  -9.50021E+4
  -5.13282E+5  -9.38787E+4
  -5.05954E+5  -9.46004E+4
  -4.97812E+5  -9.52263E+4
  -4.89567E+5  -9.54116E+4
  -4.81664E+5  -9.49279E+4
  -4.73945E+5  -9.47947E+4
  -4.65907E+5  -9.53504E+4
  -4.57142E+5  -9.47861E+4
  -4.49035E+5  -9.37364E+4
  -4.41902E+5  -9.25611E+4
  -4.35063E+5  -9.19581E+4
  -4.27647E+5  -9.16834E+4
  -4.19872E+5  -9.09668E+4
  -4.12708E+5  -9.08109E+4
  -4.05347E+5  -9.04426E+4
  -3.97528E+5  -8.99933E+4
  -3.90161E+5  -8.91377E+4
  -3.82869E+5  -8.85175E+4
  -3.76013E+5  -8.84738E+4
  -3.69056E+5  -8.83480E+4
  -3.62008E+5  -8.88954E+4
  -3.54715E+5  -8.90521E+4
  -3.47396E+5  -8.84462E+4
  -3.40733E+5  -8.81571E+4
  -3.34351E+5  -8.81946E+4
  -3.27460E+5  -8.84867E+4
  -3.20961E+5  -8.79847E+4
  -3.14834E+5  -8.75163E+4
  -3.08589E+5  -8.75858E+4
  -3.02240E+5  -8.82210E+4
  -2.95162E+5  -8.79480E+4
  -2.89202E+5  -8.71447E+4
  -2.83479E+5  -8.63943E+4
  -2.78054E+5  -8.66873E+4
  -2.72309E+5  -8.70819E+4
  -2.66312E+5  -8.64953E+4
  -2.60676E+5  -8.59637E+4
  -2.55170E+5  -8.57578E+4
  -2.50017E+5  -8.52484E+4
  -2.44634E+5  -8.46567E+4
  -2.39608E+5  -8.45320E+4
  -2.34746E+5  -8.35610E+4
  -2.30599E+5  -8.29557E+4
  -2.25883E+5  -8.24577E+4
  -2.21249E+5  -8.22013E+4
  -2.16458E+5  -8.11563E+4
  -2.12417E+5  -8.04287E+4
  -2.08116E+5  -7.98510E+4
  -2.03786E+5  -7.90868E+4
  -1.99799E+5  -7.83827E+4
  -1.95734E+5  -7.74209E+4
  -1.91878E+5  -7.68539E+4
  -1.87827E+5  -7.58079E+4
  -1.84044E+5  -7.48611E+4
  -1.80358E+5  -7.35925E+4
  -1.77224E+5  -7.24082E+4
  -1.73844E+5  -7.15343E+4
  -1.70437E+5  -7.12198E+4
  -1.66992E+5  -7.00341E+4
  -1.63945E+5  -6.89526E+4
  -1.60848E+5  -6.80466E+4
  -1.57680E+5  -6.71065E+4
  -1.54816E+5  -6.61732E+4
  -1.51748E+5  -6.51884E+4
  -1.49048E+5  -6.39821E+4
  -1.46571E+5  -6.30677E+4
  -1.43986E+5  -6.22665E+4
  -1.40679E+5  -6.16372E+4
  -1.38159E+5  -6.06361E+4
  -1.35787E+5  -5.94776E+4
  -1.33380E+5  -5.86096E+4
  -1.30857E+5  -5.78162E+4
  -1.28424E+5  -5.72496E+4
  -1.25782E+5  -5.63910E+4
  -1.23690E+5  -5.54303E+4
  -1.21341E+5  -5.42879E+4
  -1.18796E+5  -5.32662E+4
  -1.16800E+5  -5.24309E+4
  -1.14938E+5  -5.12624E+4
  -1.13120E+5  -5.07400E+4
  -1.11141E+5  -5.01813E+4
  -1.08587E+5  -4.94402E+4
  -1.06369E+5  -4.85029E+4
  -1.04468E+5  -4.74302E+4
  -1.02949E+5  -4.67458E+4
  -1.00911E+5  -4.60324E+4
  -9.89385E+4  -4.53967E+4
  -9.71387E+4  -4.48398E+4
  -9.55705E+4  -4.39151E+4
  -9.34336E+4  -4.32840E+4
  -9.16051E+4  -4.25606E+4
  -8.95448E+4  -4.18106E+4
  -8.80030E+4  -4.13427E+4
  -8.67159E+4  -4.04649E+4
  -8.52380E+4  -3.96334E+4
  -8.34014E+4  -3.94136E+4
  -8.16219E+4  -3.86543E+4
  -8.01070E+4  -3.81284E+4
  -7.87457E+4  -3.71968E+4
  -7.74254E+4  -3.68786E+4
  -7.58990E+4  -3.62795E+4
  -7.41827E+4  -3.56785E+4
  -7.29525E+4  -3.52469E+4
  -7.15488E+4  -3.49847E+4
  -7.00103E+4  -3.45781E+4
  -6.83902E+4  -3.38183E+4
  -6.72926E+4  -3.32591E+4
  -6.61543E+4  -3.25854E+4
  -6.49834E+4  -3.22826E+4
  -6.33405E+4  -3.19543E+4
  -6.24072E+4  -3.13651E+4
  -6.13561E+4  -3.11356E+4
  -6.01085E+4  -3.07717E+4
  -5.88184E+4  -3.00532E+4
  -5.76396E+4  -3.00631E+4
  -5.65384E+4  -2.94665E+4
  -5.56009E+4  -2.92863E+4
  -5.45018E+4  -2.90286E+4
  -5.34759E+4  -2.88838E+4
  -5.27443E+4  -2.84349E+4
  -5.16086E+4  -2.81745E+4
  -5.08819E+4  -2.77003E+4
  -4.97738E+4  -2.76980E+4
  -4.86559E+4  -2.73542E+4
  -4.82018E+4  -2.72145E+4
  -4.73171E+4  -2.65551E+4
  -4.66965E+4  -2.63982E+4
  -4.57263E+4  -2.65941E+4
  -4.48777E+4  -2.63536E+4
  -4.43458E+4  -2.60332E+4
  -4.36186E+4  -2.58498E+4
  -4.29963E+4  -2.56495E+4
  -4.22937E+4  -2.53292E+4
  -4.15672E+4  -2.53060E+4
  -4.07221E+4  -2.48500E+4
  -4.00993E+4  -2.48509E+4
  -3.95460E+4  -2.47796E+4
  -3.90751E+4  -2.45774E+4
  -3.85227E+4  -2.42115E+4
  -3.78521E+4  -2.41312E+4
  -3.75995E+4  -2.38753E+4
  -3.67352E+4  -2.39228E+4
  -3.65262E+4  -2.36638E+4
  -3.58205E+4  -2.39003E+4
  -3.52686E+4  -2.35729E+4
  -3.49058E+4  -2.32351E+4
  -3.42185E+4  -2.30743E+4
  -3.37669E+4  -2.31016E+4
  -3.33575E+4  -2.28934E+4
  -3.27912E+4  -2.28774E+4
  -3.20658E+4  -2.29728E+4
  -3.17280E+4  -2.27166E+4
  -3.14289E+4  -2.23955E+4
  -3.08881E+4  -2.21166E+4
  -3.05497E+4  -2.22597E+4
  -2.99736E+4  -2.21022E+4
  -2.92970E+4  -2.19092E+4
  -2.89602E+4  -2.18642E+4
  -2.83716E+4  -2.17830E+4
  -2.81595E+4  -2.16610E+4
  -2.76427E+4  -2.14188E+4
  -2.69257E+4  -2.14981E+4
  -2.65177E+4  -2.13274E+4
  -2.62604E+4  -2.11354E+4
  -2.55185E+4  -2.11524E+4
  -2.51903E+4  -2.08923E+4
  -2.44389E+4  -2.07982E+4
  -2.41080E+4  -2.07376E+4
  -2.36131E+4  -2.06667E+4
  -2.33912E+4  -2.09528E+4
  -2.26863E+4  -2.05233E+4
  -2.22992E+4  -2.05534E+4
  -2.19493E+4  -2.06604E+4
  -2.17925E+4  -2.05466E+4
  -2.12438E+4  -2.02102E+4
  -2.07583E+4  -2.00664E+4
  -2.00165E+4  -2.00691E+4
  -2.00391E+4  -2.00567E+4
  -1.97114E+4  -1.98552E+4
  -1.93132E+4  -2.00019E+4
  -1.91186E+4  -2.00592E+4
  -1.85759E+4  -1.96618E+4
  -1.83326E+4  -2.00352E+4
  -1.77576E+4  -1.96439E+4
  -1.77468E+4  -1.95682E+4
  -1.72973E+4  -1.93606E+4
  -1.68692E+4  -1.94499E+4
  -1.66345E+4  -1.93820E+4
  -1.62917E+4  -1.94552E+4
  -1.59437E+4  -1.92396E+4
  -1.57321E+4  -1.91591E+4
  -1.55595E+4  -1.91937E+4
  -1.53413E+4  -1.91175E+4
  -1.50935E+4  -1.89688E+4
  -1.46179E+4  -1.90700E+4
  -1.41805E+4  -1.88198E+4
  -1.45362E+4  -1.87318E+4
  -1.40114E+4  -1.87232E+4
  -1.39680E+4  -1.88917E+4
  -1.36106E+4  -1.84497E+4
  -1.33224E+4  -1.84961E+4
  -1.31844E+4  -1.84989E+4
  -1.28930E+4  -1.84029E+4
  -1.28128E+4  -1.83616E+4
  -1.24998E+4  -1.81087E+4
  -1.22291E+4  -1.81936E+4
  -1.20420E+4  -1.79742E+4
  -1.18492E+4  -1.77221E+4
  -1.18346E+4  -1.76534E+4
  -1.15238E+4  -1.76190E+4
  -1.11664E+4  -1.75842E+4
  -1.10399E+4  -1.74491E+4
  -1.09652E+4  -1.74832E+4
  -1.06325E+4  -1.73011E+4
  -1.06241E+4  -1.72836E+4
  -1.01379E+4  -1.71724E+4
  -1.02799E+4  -1.72721E+4
  -9.84177E+3  -1.69595E+4
  -9.61902E+3  -1.69874E+4
  -9.15308E+3  -1.65949E+4
  -9.20910E+3  -1.65891E+4
  -8.84359E+3  -1.63622E+4
  -8.87259E+3  -1.63200E+4
  -8.72993E+3  -1.62093E+4
  -8.60419E+3  -1.61121E+4
  -8.38765E+3  -1.61154E+4
  -7.94603E+3  -1.61319E+4
  -7.96539E+3  -1.56237E+4
  -8.07767E+3  -1.59340E+4
  -7.67778E+3  -1.57083E+4
  -7.49996E+3  -1.56147E+4
  -7.21684E+3  -1.55469E+4
  -6.98201E+3  -1.52363E+4
  -7.10099E+3  -1.50574E+4
  -6.60360E+3  -1.48367E+4
  -6.74358E+3  -1.51148E+4
  -6.20853E+3  -1.47113E+4
  -6.27620E+3  -1.45733E+4
  -6.09634E+3  -1.44302E+4
  -6.04031E+3  -1.45225E+4
  -5.87477E+3  -1.44831E+4
  -5.68886E+3  -1.42567E+4
  -5.37845E+3  -1.40800E+4
  -5.24099E+3  -1.39420E+4
  -5.22311E+3  -1.40510E+4
  -4.77205E+3  -1.36825E+4
  -4.68293E+3  -1.36815E+4
  -4.70426E+3  -1.38985E+4
  -4.55579E+3  -1.34749E+4
  -4.42194E+3  -1.35010E+4
  -4.05256E+3  -1.35053E+4
  -4.02204E+3  -1.32334E+4
  -3.68573E+3  -1.31078E+4
  -3.50991E+3  -1.27315E+4
  -3.45920E+3  -1.27331E+4
  -3.20357E+3  -1.29919E+4
  -3.13741E+3  -1.27006E+4
