 
 $NMID
 ID=''
 FMTDAT='(2E13.5)'
 TRAMP=   1.00000E+0
 VOLUME=   1.00000E+0
 $END
   4.14279E+5   7.56446E+5
   3.16016E+5   2.24479E+6
   5.12392E+5   2.12930E+6
   3.64819E+5   2.04294E+6
   3.90695E+5   2.14358E+6
   5.01771E+5   2.06826E+6
   4.52748E+5   2.01928E+6
   4.49528E+5   2.08202E+6
   4.84901E+5   2.03820E+6
   4.25463E+5   2.01340E+6
   4.15191E+5   2.04649E+6
   4.28576E+5   2.00189E+6
   3.85325E+5   1.98099E+6
   3.70027E+5   2.00705E+6
   3.58145E+5   1.97162E+6
   3.15938E+5   1.94869E+6
   3.13298E+5   1.96569E+6
   3.17726E+5   1.94208E+6
   2.95703E+5   1.91992E+6
   3.08674E+5   1.91900E+6
   3.14869E+5   1.89431E+6
   2.95503E+5   1.88004E+6
   2.95084E+5   1.87782E+6
   2.94166E+5   1.85503E+6
   2.73625E+5   1.83959E+6
   2.72438E+5   1.83153E+6
   2.59480E+5   1.81505E+6
   2.32471E+5   1.80310E+6
   2.19132E+5   1.79129E+6
   2.12863E+5   1.77151E+6
   1.98325E+5   1.76077E+6
   1.96050E+5   1.74715E+6
   1.93451E+5   1.72608E+6
   1.88802E+5   1.71274E+6
   1.91009E+5   1.69631E+6
   1.97192E+5   1.67652E+6
   1.99701E+5   1.66510E+6
   1.99035E+5   1.65227E+6
   1.92995E+5   1.63111E+6
   1.87308E+5   1.61589E+6
   1.80740E+5   1.60093E+6
   1.71422E+5   1.58233E+6
   1.63654E+5   1.56455E+6
   1.57503E+5   1.54961E+6
   1.46395E+5   1.53298E+6
   1.35699E+5   1.51898E+6
   1.27589E+5   1.50347E+6
   1.20073E+5   1.48574E+6
   1.15196E+5   1.46688E+6
   1.12328E+5   1.45117E+6
   1.09221E+5   1.43576E+6
   1.05359E+5   1.42016E+6
   1.02217E+5   1.40565E+6
   9.75430E+4   1.39074E+6
   9.16282E+4   1.37457E+6
   8.50471E+4   1.35919E+6
   7.65910E+4   1.34394E+6
   6.87106E+4   1.32635E+6
   6.30365E+4   1.30985E+6
   5.79074E+4   1.29600E+6
   5.03676E+4   1.28171E+6
   4.29036E+4   1.26643E+6
   3.80600E+4   1.25212E+6
   3.20786E+4   1.23740E+6
   2.68080E+4   1.22179E+6
   2.32009E+4   1.20598E+6
   2.05164E+4   1.19103E+6
   1.58822E+4   1.17704E+6
   1.12568E+4   1.16379E+6
   5.72038E+3   1.15045E+6
  -8.41158E+2   1.13627E+6
  -5.12717E+3   1.12182E+6
  -9.36462E+3   1.10784E+6
  -1.47644E+4   1.09528E+6
  -1.96662E+4   1.08166E+6
  -2.38957E+4   1.06717E+6
  -2.78334E+4   1.05391E+6
  -3.09299E+4   1.04115E+6
  -3.46215E+4   1.02820E+6
  -3.88227E+4   1.01460E+6
  -4.21842E+4   1.00113E+6
  -4.43797E+4   9.87162E+5
  -4.79352E+4   9.74920E+5
  -5.23750E+4   9.62374E+5
  -5.68009E+4   9.48066E+5
  -6.04989E+4   9.35055E+5
  -6.37905E+4   9.22397E+5
  -6.73484E+4   9.09874E+5
  -7.10269E+4   8.96969E+5
  -7.35763E+4   8.83863E+5
  -7.51854E+4   8.70729E+5
  -7.70038E+4   8.58178E+5
  -7.89172E+4   8.46240E+5
  -8.02203E+4   8.33413E+5
  -8.08583E+4   8.20141E+5
  -8.04335E+4   8.07648E+5
  -8.06610E+4   7.95966E+5
  -8.17760E+4   7.84455E+5
  -8.29204E+4   7.72653E+5
  -8.38417E+4   7.60011E+5
  -8.43845E+4   7.47919E+5
  -8.59200E+4   7.36645E+5
  -8.79901E+4   7.23865E+5
  -8.92293E+4   7.11135E+5
  -8.92749E+4   6.98889E+5
  -8.95427E+4   6.87814E+5
  -9.07341E+4   6.76625E+5
  -9.20365E+4   6.64899E+5
  -9.24341E+4   6.52340E+5
  -9.18781E+4   6.40681E+5
  -9.15569E+4   6.29856E+5
  -9.27045E+4   6.19610E+5
  -9.39936E+4   6.08630E+5
  -9.48900E+4   5.97425E+5
  -9.56465E+4   5.86634E+5
  -9.70383E+4   5.75852E+5
  -9.86425E+4   5.65112E+5
  -9.91598E+4   5.53900E+5
  -9.94189E+4   5.42847E+5
  -9.94513E+4   5.33021E+5
  -9.95291E+4   5.23055E+5
  -1.00578E+5   5.13511E+5
  -1.01331E+5   5.04133E+5
  -1.02570E+5   4.94224E+5
  -1.03097E+5   4.84280E+5
  -1.03700E+5   4.74384E+5
  -1.03900E+5   4.64564E+5
  -1.04644E+5   4.55497E+5
  -1.05745E+5   4.46501E+5
  -1.06546E+5   4.37730E+5
  -1.08467E+5   4.28734E+5
  -1.09910E+5   4.19462E+5
  -1.10585E+5   4.09965E+5
  -1.11060E+5   4.01345E+5
  -1.12172E+5   3.93456E+5
  -1.13268E+5   3.84729E+5
  -1.13247E+5   3.76120E+5
  -1.13722E+5   3.68522E+5
  -1.14394E+5   3.60910E+5
  -1.15436E+5   3.52879E+5
  -1.15817E+5   3.44503E+5
  -1.15833E+5   3.36786E+5
  -1.15494E+5   3.28877E+5
  -1.15826E+5   3.21622E+5
  -1.16390E+5   3.14710E+5
  -1.16862E+5   3.07150E+5
  -1.16784E+5   2.99173E+5
  -1.16890E+5   2.92194E+5
  -1.16929E+5   2.85015E+5
  -1.16801E+5   2.78005E+5
  -1.16361E+5   2.71131E+5
  -1.16127E+5   2.64030E+5
  -1.15548E+5   2.57913E+5
  -1.15105E+5   2.51556E+5
  -1.14746E+5   2.45042E+5
  -1.14269E+5   2.38583E+5
  -1.13522E+5   2.32546E+5
  -1.12798E+5   2.26675E+5
  -1.12531E+5   2.20700E+5
  -1.11408E+5   2.14812E+5
  -1.10331E+5   2.08891E+5
  -1.09889E+5   2.03386E+5
  -1.08863E+5   1.97536E+5
  -1.07943E+5   1.91754E+5
  -1.07016E+5   1.86562E+5
  -1.05730E+5   1.81175E+5
  -1.04942E+5   1.76269E+5
  -1.04380E+5   1.71105E+5
  -1.03498E+5   1.65822E+5
  -1.02145E+5   1.60841E+5
  -1.00991E+5   1.56088E+5
  -9.97798E+4   1.51435E+5
  -9.88508E+4   1.46679E+5
  -9.80837E+4   1.42066E+5
  -9.71396E+4   1.37198E+5
  -9.57637E+4   1.32969E+5
  -9.51491E+4   1.28434E+5
  -9.39336E+4   1.24029E+5
  -9.30230E+4   1.19277E+5
  -9.16008E+4   1.15322E+5
  -9.05232E+4   1.11320E+5
  -8.99246E+4   1.07415E+5
  -8.88180E+4   1.03313E+5
  -8.84341E+4   9.92824E+4
  -8.69845E+4   9.51333E+4
  -8.59295E+4   9.15713E+4
  -8.47328E+4   8.80919E+4
  -8.33262E+4   8.44442E+4
  -8.21912E+4   8.09303E+4
  -8.11305E+4   7.76656E+4
  -8.04588E+4   7.43520E+4
  -7.94256E+4   7.08716E+4
  -7.86027E+4   6.71281E+4
  -7.75393E+4   6.37531E+4
  -7.62238E+4   6.04346E+4
  -7.52839E+4   5.75873E+4
  -7.39893E+4   5.43321E+4
  -7.32293E+4   5.12348E+4
  -7.24831E+4   4.83633E+4
  -7.12508E+4   4.54456E+4
  -7.02330E+4   4.24774E+4
  -6.88180E+4   3.95644E+4
  -6.76711E+4   3.69335E+4
  -6.66418E+4   3.42145E+4
  -6.56441E+4   3.14282E+4
  -6.49417E+4   2.89536E+4
  -6.35774E+4   2.65851E+4
  -6.25298E+4   2.39678E+4
  -6.14423E+4   2.17108E+4
  -6.04112E+4   1.90331E+4
  -5.91296E+4   1.69252E+4
  -5.79580E+4   1.44282E+4
  -5.69948E+4   1.25503E+4
  -5.62325E+4   1.05242E+4
  -5.50227E+4   8.11887E+3
  -5.40227E+4   6.42538E+3
  -5.27565E+4   4.27044E+3
  -5.16086E+4   2.49863E+3
  -5.05629E+4   6.62360E+2
  -4.94932E+4  -1.18300E+3
  -4.84982E+4  -2.72896E+3
  -4.74414E+4  -4.34855E+3
  -4.64393E+4  -5.94254E+3
  -4.52685E+4  -7.08087E+3
  -4.42147E+4  -8.90302E+3
  -4.32146E+4  -1.02444E+4
  -4.20518E+4  -1.15846E+4
  -4.11055E+4  -1.29243E+4
  -4.03212E+4  -1.39594E+4
  -3.91100E+4  -1.54172E+4
  -3.79860E+4  -1.65376E+4
  -3.67533E+4  -1.74412E+4
  -3.58247E+4  -1.85961E+4
  -3.49804E+4  -1.95284E+4
  -3.41723E+4  -2.06131E+4
  -3.29686E+4  -2.16994E+4
  -3.21160E+4  -2.22758E+4
  -3.10712E+4  -2.30105E+4
  -3.00592E+4  -2.40150E+4
  -2.92284E+4  -2.48920E+4
  -2.84996E+4  -2.54214E+4
  -2.75323E+4  -2.62545E+4
  -2.66749E+4  -2.66809E+4
  -2.57876E+4  -2.75170E+4
  -2.49169E+4  -2.79973E+4
  -2.42115E+4  -2.85039E+4
  -2.32190E+4  -2.90603E+4
  -2.22675E+4  -2.95346E+4
  -2.15875E+4  -2.99767E+4
  -2.05801E+4  -3.04789E+4
  -2.00550E+4  -3.08042E+4
  -1.92584E+4  -3.13379E+4
  -1.86395E+4  -3.18493E+4
  -1.79009E+4  -3.19745E+4
  -1.70639E+4  -3.22681E+4
  -1.61545E+4  -3.23115E+4
  -1.55556E+4  -3.25855E+4
  -1.49455E+4  -3.28498E+4
  -1.43572E+4  -3.32652E+4
  -1.37059E+4  -3.35621E+4
  -1.27350E+4  -3.32065E+4
  -1.19366E+4  -3.36047E+4
  -1.15651E+4  -3.36756E+4
  -1.09353E+4  -3.39479E+4
  -1.02409E+4  -3.39296E+4
  -9.66133E+3  -3.40089E+4
  -8.83349E+3  -3.39850E+4
  -8.40103E+3  -3.38556E+4
  -7.75118E+3  -3.38863E+4
  -7.04799E+3  -3.38829E+4
  -6.39980E+3  -3.37101E+4
  -5.83166E+3  -3.37784E+4
  -5.30953E+3  -3.36495E+4
  -4.90414E+3  -3.35220E+4
  -4.32281E+3  -3.31804E+4
  -3.60832E+3  -3.32273E+4
  -3.02699E+3  -3.28899E+4
  -2.35126E+3  -3.29154E+4
  -2.26654E+3  -3.26153E+4
  -1.39030E+3  -3.23794E+4
  -1.23605E+3  -3.21246E+4
  -3.91210E+2  -3.17709E+4
   1.89328E+2  -3.16079E+4
   5.83446E+2  -3.13033E+4
   1.24566E+3  -3.12102E+4
   1.44015E+3  -3.08278E+4
   1.93516E+3  -3.04624E+4
   2.33111E+3  -3.02043E+4
   2.95774E+3  -2.99556E+4
   3.26274E+3  -2.96953E+4
   3.57545E+3  -2.91176E+4
   4.29209E+3  -2.87651E+4
   4.61300E+3  -2.86907E+4
   5.04105E+3  -2.81976E+4
   5.55768E+3  -2.78774E+4
   5.64508E+3  -2.75716E+4
   5.99146E+3  -2.74512E+4
   6.53973E+3  -2.68319E+4
   7.05614E+3  -2.64315E+4
   7.13388E+3  -2.62249E+4
   7.47376E+3  -2.54022E+4
   7.79480E+3  -2.54445E+4
   8.32924E+3  -2.51058E+4
   8.67616E+3  -2.45844E+4
   8.72429E+3  -2.40776E+4
   9.23704E+3  -2.38861E+4
   9.39878E+3  -2.35807E+4
   9.75818E+3  -2.29212E+4
   1.00394E+4  -2.26523E+4
   1.01828E+4  -2.22845E+4
   1.04958E+4  -2.20855E+4
   1.05987E+4  -2.18043E+4
   1.08846E+4  -2.13261E+4
   1.10534E+4  -2.08132E+4
   1.13467E+4  -2.04557E+4
   1.15841E+4  -2.01045E+4
   1.19160E+4  -1.96915E+4
   1.18917E+4  -1.93555E+4
   1.21111E+4  -1.89053E+4
   1.21073E+4  -1.87227E+4
   1.24309E+4  -1.82027E+4
   1.24378E+4  -1.77032E+4
   1.26924E+4  -1.76897E+4
   1.26183E+4  -1.73143E+4
   1.27107E+4  -1.67814E+4
   1.30502E+4  -1.65290E+4
   1.29999E+4  -1.61387E+4
   1.29641E+4  -1.57807E+4
   1.30128E+4  -1.52952E+4
   1.31994E+4  -1.48745E+4
   1.31052E+4  -1.44369E+4
   1.30781E+4  -1.39685E+4
   1.33394E+4  -1.38963E+4
   1.33536E+4  -1.35043E+4
   1.37171E+4  -1.30156E+4
   1.34504E+4  -1.26237E+4
   1.36865E+4  -1.22767E+4
   1.37896E+4  -1.18410E+4
   1.35269E+4  -1.16172E+4
   1.37736E+4  -1.12817E+4
   1.34649E+4  -1.08578E+4
   1.37910E+4  -1.06159E+4
   1.37844E+4  -9.92371E+3
   1.37022E+4  -9.66581E+3
   1.37779E+4  -9.22843E+3
   1.37583E+4  -8.62441E+3
   1.34257E+4  -8.60263E+3
   1.35461E+4  -8.00817E+3
   1.35225E+4  -8.12630E+3
   1.34692E+4  -7.76019E+3
   1.36491E+4  -7.05010E+3
   1.32021E+4  -6.87083E+3
   1.31667E+4  -6.43488E+3
   1.31089E+4  -6.11185E+3
   1.32154E+4  -5.72836E+3
   1.29719E+4  -5.46931E+3
   1.30935E+4  -5.35610E+3
   1.30746E+4  -4.88345E+3
   1.28647E+4  -4.57393E+3
   1.31828E+4  -4.39606E+3
   1.28134E+4  -4.17513E+3
   1.26367E+4  -3.77762E+3
   1.23744E+4  -3.38948E+3
   1.24084E+4  -3.26962E+3
   1.23134E+4  -2.79314E+3
   1.24076E+4  -2.79542E+3
   1.21870E+4  -2.62414E+3
