 
 $NMID
 ID=''
 FMTDAT='(2E13.5)'
 TRAMP=   1.00000E+0
 VOLUME=   1.00000E+0
 $END
   2.87428E+5   6.09180E+5
   1.98974E+5   1.78388E+6
   4.28440E+5   1.69030E+6
   2.76003E+5   1.56489E+6
   1.53480E+5   1.64978E+6
   1.42183E+5   1.65167E+6
   9.19587E+4   1.62869E+6
   8.01540E+4   1.65097E+6
   7.63806E+4   1.59047E+6
  -1.06420E+4   1.56230E+6
  -5.08164E+4   1.60306E+6
  -4.35979E+4   1.58245E+6
  -7.44307E+4   1.54712E+6
  -9.58052E+4   1.54015E+6
  -1.18897E+5   1.51014E+6
  -1.61308E+5   1.49611E+6
  -1.77867E+5   1.50602E+6
  -1.97018E+5   1.47592E+6
  -2.48991E+5   1.44680E+6
  -2.83040E+5   1.43744E+6
  -3.12191E+5   1.41165E+6
  -3.48909E+5   1.39383E+6
  -3.69332E+5   1.38174E+6
  -3.94265E+5   1.35106E+6
  -4.29323E+5   1.32575E+6
  -4.40918E+5   1.31394E+6
  -4.56050E+5   1.29255E+6
  -4.77301E+5   1.27332E+6
  -4.88270E+5   1.25402E+6
  -5.02293E+5   1.23067E+6
  -5.30430E+5   1.21097E+6
  -5.48778E+5   1.18806E+6
  -5.67966E+5   1.15980E+6
  -5.91745E+5   1.13892E+6
  -6.11647E+5   1.11504E+6
  -6.31987E+5   1.08614E+6
  -6.55804E+5   1.06349E+6
  -6.75856E+5   1.03900E+6
  -6.92250E+5   1.01034E+6
  -7.06358E+5   9.88557E+5
  -7.17270E+5   9.66756E+5
  -7.29463E+5   9.41580E+5
  -7.38676E+5   9.19402E+5
  -7.46834E+5   8.99408E+5
  -7.57213E+5   8.77678E+5
  -7.68366E+5   8.56902E+5
  -7.78687E+5   8.32267E+5
  -7.90557E+5   8.05256E+5
  -8.01868E+5   7.78398E+5
  -8.12469E+5   7.53277E+5
  -8.23222E+5   7.27799E+5
  -8.33489E+5   7.02081E+5
  -8.42916E+5   6.76500E+5
  -8.52857E+5   6.51188E+5
  -8.60517E+5   6.25667E+5
  -8.66732E+5   6.01657E+5
  -8.72465E+5   5.77409E+5
  -8.76034E+5   5.53888E+5
  -8.78534E+5   5.31629E+5
  -8.83271E+5   5.10051E+5
  -8.87801E+5   4.87456E+5
  -8.90675E+5   4.64873E+5
  -8.93610E+5   4.41540E+5
  -8.96505E+5   4.16527E+5
  -8.98561E+5   3.90764E+5
  -8.98893E+5   3.67063E+5
  -8.98594E+5   3.44565E+5
  -8.98443E+5   3.21573E+5
  -8.98765E+5   2.98352E+5
  -8.98726E+5   2.75744E+5
  -8.97458E+5   2.53210E+5
  -8.94571E+5   2.32257E+5
  -8.91936E+5   2.12782E+5
  -8.89596E+5   1.91141E+5
  -8.86418E+5   1.68813E+5
  -8.82337E+5   1.48385E+5
  -8.78650E+5   1.28723E+5
  -8.74278E+5   1.07457E+5
  -8.68487E+5   8.53107E+4
  -8.63243E+5   6.34057E+4
  -8.57806E+5   4.25847E+4
  -8.51517E+5   2.27359E+4
  -8.44615E+5   3.18126E+3
  -8.37111E+5  -1.67446E+4
  -8.29637E+5  -3.68969E+4
  -8.21800E+5  -5.49375E+4
  -8.13858E+5  -7.17012E+4
  -8.05270E+5  -8.82752E+4
  -7.96358E+5  -1.04979E+5
  -7.87114E+5  -1.20852E+5
  -7.78260E+5  -1.36144E+5
  -7.69478E+5  -1.51612E+5
  -7.59585E+5  -1.67925E+5
  -7.48974E+5  -1.83588E+5
  -7.37670E+5  -1.98403E+5
  -7.27053E+5  -2.12963E+5
  -7.16864E+5  -2.27517E+5
  -7.06110E+5  -2.41924E+5
  -6.94580E+5  -2.55444E+5
  -6.82848E+5  -2.68095E+5
  -6.71954E+5  -2.80786E+5
  -6.60671E+5  -2.93512E+5
  -6.48043E+5  -3.04968E+5
  -6.35620E+5  -3.15297E+5
  -6.23826E+5  -3.24835E+5
  -6.12781E+5  -3.34552E+5
  -6.01148E+5  -3.44757E+5
  -5.88499E+5  -3.54715E+5
  -5.75060E+5  -3.63366E+5
  -5.63101E+5  -3.70664E+5
  -5.51429E+5  -3.78838E+5
  -5.38835E+5  -3.88168E+5
  -5.25836E+5  -3.96578E+5
  -5.12681E+5  -4.04270E+5
  -4.99964E+5  -4.11683E+5
  -4.86927E+5  -4.19212E+5
  -4.73580E+5  -4.26126E+5
  -4.60138E+5  -4.32291E+5
  -4.46982E+5  -4.37284E+5
  -4.34841E+5  -4.42211E+5
  -4.22701E+5  -4.47243E+5
  -4.10353E+5  -4.52655E+5
  -3.97468E+5  -4.57599E+5
  -3.84610E+5  -4.62349E+5
  -3.71490E+5  -4.66201E+5
  -3.58475E+5  -4.69699E+5
  -3.45334E+5  -4.72775E+5
  -3.32914E+5  -4.76098E+5
  -3.20402E+5  -4.79123E+5
  -3.07574E+5  -4.82294E+5
  -2.94245E+5  -4.84983E+5
  -2.80713E+5  -4.87318E+5
  -2.67976E+5  -4.88935E+5
  -2.55584E+5  -4.90612E+5
  -2.42886E+5  -4.92200E+5
  -2.30235E+5  -4.93144E+5
  -2.17618E+5  -4.93635E+5
  -2.05924E+5  -4.94334E+5
  -1.93565E+5  -4.95168E+5
  -1.80661E+5  -4.95050E+5
  -1.68576E+5  -4.94745E+5
  -1.56882E+5  -4.93866E+5
  -1.45688E+5  -4.93066E+5
  -1.34351E+5  -4.92245E+5
  -1.22868E+5  -4.91351E+5
  -1.11382E+5  -4.89739E+5
  -1.00352E+5  -4.87667E+5
  -8.92771E+4  -4.85463E+5
  -7.88210E+4  -4.82814E+5
  -6.90912E+4  -4.80468E+5
  -5.89473E+4  -4.77272E+5
  -4.93457E+4  -4.74427E+5
  -4.00523E+4  -4.71496E+5
  -3.07520E+4  -4.68428E+5
  -2.10409E+4  -4.65563E+5
  -1.19789E+4  -4.61411E+5
  -3.50829E+3  -4.57841E+5
   4.98847E+3  -4.54106E+5
   1.35951E+4  -4.50185E+5
   2.15018E+4  -4.45787E+5
   2.96118E+4  -4.41742E+5
   3.73596E+4  -4.37396E+5
   4.54606E+4  -4.32850E+5
   5.27679E+4  -4.27665E+5
   5.98179E+4  -4.22727E+5
   6.61788E+4  -4.18420E+5
   7.30499E+4  -4.13495E+5
   8.02446E+4  -4.08828E+5
   8.66303E+4  -4.03580E+5
   9.24438E+4  -3.98825E+5
   9.82889E+4  -3.93686E+5
   1.04026E+5  -3.88428E+5
   1.09937E+5  -3.83330E+5
   1.15422E+5  -3.78097E+5
   1.20840E+5  -3.72556E+5
   1.25969E+5  -3.67467E+5
   1.31518E+5  -3.62367E+5
   1.37125E+5  -3.56058E+5
   1.41593E+5  -3.50192E+5
   1.46070E+5  -3.44783E+5
   1.50797E+5  -3.39795E+5
   1.55753E+5  -3.34318E+5
   1.60006E+5  -3.28213E+5
   1.64097E+5  -3.22292E+5
   1.68266E+5  -3.16799E+5
   1.72227E+5  -3.10977E+5
   1.75823E+5  -3.05137E+5
   1.78853E+5  -2.99343E+5
   1.82251E+5  -2.93956E+5
   1.85284E+5  -2.88803E+5
   1.89104E+5  -2.83328E+5
   1.92449E+5  -2.77167E+5
   1.95545E+5  -2.70677E+5
   1.98282E+5  -2.64818E+5
   2.00928E+5  -2.59026E+5
   2.03561E+5  -2.53021E+5
   2.06267E+5  -2.47313E+5
   2.08750E+5  -2.41316E+5
   2.11081E+5  -2.35338E+5
   2.13627E+5  -2.29131E+5
   2.15618E+5  -2.22596E+5
   2.17548E+5  -2.16606E+5
   2.18539E+5  -2.10469E+5
   2.20154E+5  -2.04823E+5
   2.22058E+5  -1.98981E+5
   2.23837E+5  -1.92945E+5
   2.24782E+5  -1.86512E+5
   2.25780E+5  -1.80711E+5
   2.26811E+5  -1.75032E+5
   2.27733E+5  -1.68580E+5
   2.28503E+5  -1.62772E+5
   2.28926E+5  -1.56860E+5
   2.29550E+5  -1.51515E+5
   2.30136E+5  -1.45567E+5
   2.30608E+5  -1.39674E+5
   2.30719E+5  -1.33593E+5
   2.30366E+5  -1.28046E+5
   2.29673E+5  -1.22367E+5
   2.29556E+5  -1.17449E+5
   2.29114E+5  -1.11992E+5
   2.28704E+5  -1.06548E+5
   2.27669E+5  -1.01398E+5
   2.27330E+5  -9.62993E+4
   2.26646E+5  -9.10051E+4
   2.25733E+5  -8.59496E+4
   2.24216E+5  -8.06585E+4
   2.22774E+5  -7.63346E+4
   2.22063E+5  -7.16149E+4
   2.21032E+5  -6.64902E+4
   2.19544E+5  -6.18229E+4
   2.18066E+5  -5.72285E+4
   2.16591E+5  -5.28418E+4
   2.14841E+5  -4.84315E+4
   2.13157E+5  -4.41419E+4
   2.11274E+5  -4.02621E+4
   2.09617E+5  -3.61401E+4
   2.07899E+5  -3.22508E+4
   2.06137E+5  -2.82251E+4
   2.04210E+5  -2.43920E+4
   2.02170E+5  -2.03884E+4
   2.00526E+5  -1.71968E+4
   1.98731E+5  -1.35991E+4
   1.96624E+5  -1.00663E+4
   1.94396E+5  -6.07859E+3
   1.92077E+5  -2.58017E+3
   1.90192E+5   3.57564E+2
   1.87942E+5   3.94105E+3
   1.85959E+5   7.41474E+3
   1.83534E+5   1.03192E+4
   1.81223E+5   1.31964E+4
   1.79280E+5   1.60442E+4
   1.76987E+5   1.90251E+4
   1.74943E+5   2.20764E+4
   1.72738E+5   2.49095E+4
   1.70233E+5   2.74086E+4
   1.68122E+5   3.01665E+4
   1.65728E+5   3.26801E+4
   1.63664E+5   3.54772E+4
   1.61325E+5   3.80613E+4
   1.59047E+5   4.09254E+4
   1.56970E+5   4.35111E+4
   1.54269E+5   4.60038E+4
   1.51466E+5   4.82727E+4
   1.49023E+5   5.01223E+4
   1.47035E+5   5.23393E+4
   1.44634E+5   5.45852E+4
   1.42405E+5   5.68782E+4
   1.39866E+5   5.90792E+4
   1.37283E+5   6.05299E+4
   1.34701E+5   6.25882E+4
   1.32406E+5   6.41910E+4
   1.29993E+5   6.59091E+4
   1.27599E+5   6.74843E+4
   1.25194E+5   6.91172E+4
   1.22691E+5   7.09494E+4
   1.20193E+5   7.26737E+4
   1.17601E+5   7.40930E+4
   1.14906E+5   7.51640E+4
   1.12570E+5   7.64444E+4
   1.10180E+5   7.73518E+4
   1.08055E+5   7.87367E+4
   1.05080E+5   7.98948E+4
   1.02851E+5   8.06593E+4
   1.00326E+5   8.19079E+4
   9.80511E+4   8.29257E+4
   9.53157E+4   8.36782E+4
   9.28943E+4   8.40938E+4
   9.03503E+4   8.48294E+4
   8.82930E+4   8.56649E+4
   8.59630E+4   8.64451E+4
   8.31819E+4   8.69042E+4
   8.09284E+4   8.77211E+4
   7.86446E+4   8.79263E+4
   7.61518E+4   8.82237E+4
   7.40157E+4   8.88190E+4
   7.15320E+4   8.91221E+4
   6.93567E+4   8.93933E+4
   6.70433E+4   8.94229E+4
   6.47192E+4   8.98533E+4
   6.23165E+4   9.02006E+4
   6.00645E+4   9.03003E+4
   5.81377E+4   9.02429E+4
   5.58941E+4   9.02895E+4
   5.37534E+4   9.05333E+4
   5.13291E+4   9.03813E+4
   4.91185E+4   9.00313E+4
   4.71875E+4   9.01507E+4
   4.51623E+4   9.01353E+4
   4.32181E+4   8.98665E+4
   4.11289E+4   8.97286E+4
   3.91684E+4   8.94620E+4
   3.72607E+4   8.92768E+4
   3.52452E+4   8.89623E+4
   3.33517E+4   8.86502E+4
   3.15404E+4   8.83698E+4
   2.98598E+4   8.79148E+4
   2.78067E+4   8.76849E+4
   2.59970E+4   8.70197E+4
   2.42546E+4   8.64730E+4
   2.27601E+4   8.60238E+4
   2.10594E+4   8.54317E+4
   1.92621E+4   8.52066E+4
   1.75006E+4   8.41434E+4
   1.59754E+4   8.36121E+4
   1.43934E+4   8.28870E+4
   1.31366E+4   8.23055E+4
   1.14817E+4   8.18411E+4
   1.00180E+4   8.11440E+4
   8.67558E+3   8.03013E+4
   7.24405E+3   7.94675E+4
   5.85859E+3   7.84363E+4
   4.58540E+3   7.79178E+4
   3.19385E+3   7.69931E+4
   2.04466E+3   7.58990E+4
   8.69950E+2   7.52832E+4
  -4.28145E+2   7.46371E+4
  -1.69965E+3   7.36032E+4
  -3.12057E+3   7.29594E+4
  -4.05360E+3   7.17433E+4
  -5.24027E+3   7.05574E+4
  -6.08360E+3   6.98288E+4
  -7.29917E+3   6.88450E+4
  -8.25947E+3   6.81897E+4
  -9.04534E+3   6.71985E+4
  -1.01098E+4   6.60294E+4
  -1.09998E+4   6.49082E+4
  -1.20126E+4   6.42055E+4
  -1.28249E+4   6.29379E+4
  -1.33757E+4   6.19523E+4
  -1.41078E+4   6.09389E+4
  -1.50110E+4   6.01801E+4
  -1.59985E+4   5.87845E+4
  -1.65370E+4   5.77552E+4
  -1.72819E+4   5.67134E+4
  -1.76051E+4   5.59639E+4
  -1.85156E+4   5.47513E+4
  -1.90062E+4   5.35488E+4
  -1.96740E+4   5.25498E+4
  -2.00287E+4   5.15602E+4
  -2.07718E+4   5.07336E+4
  -2.14149E+4   4.96472E+4
  -2.16264E+4   4.84741E+4
  -2.18695E+4   4.75272E+4
  -2.26784E+4   4.64078E+4
  -2.27359E+4   4.55906E+4
  -2.31424E+4   4.45410E+4
  -2.36519E+4   4.33634E+4
