 LCModel (Version 6.3-1N) Copyright: S.W. Provencher.          Ref.: Magn. Reson. Med. 30:672-679 (1993).                
 Slice_N1@8_16  28-Feb-2025 11:44:02
 27 lines in following concentration table = NCONC+1
    Conc.  %SD /Cr+PCr  Metabolite                                         
 2.95E-04   5% 4.0E-04 Mac                                                 
    5.934  19%   8.000 Cr                                                  
    0.000 999%   0.000 PCr                                                 
    3.064  46%   4.131 Ins                                                 
    6.999  17%   9.436 NAA                                                 
    4.357  36%   5.873 Tau                                                 
    2.929  13%   3.949 PCho                                                
    0.000 999%   0.000 GPC                                                 
   10.829  15%  14.600 Glu                                                 
    5.819  21%   7.846 Gln                                                 
    0.000 999%   0.000 Ala                                                 
    1.766 104%   2.381 Asc                                                 
    1.175  75%   1.584 Asp                                                 
 2.55E-02 999% 3.4E-02 GABA                                                
    0.278 197%   0.374 Glc                                                 
    0.868  86%   1.170 GSH                                                 
    4.745  23%   6.397 Lac                                                 
    0.953 111%   1.285 NAAG                                                
    0.000 999%   0.000 PE                                                  
    2.929  13%   3.949 GPC+PCho                                            
    7.952  14%  10.721 NAA+NAAG                                            
   16.649  12%  22.445 Glu+Gln                                             
    5.934  19%   8.000 Cr+PCr                                              
    7.952  14%  10.721 NAA+NAAG                                            
    5.934  19%   8.000 Cr+PCr                                              
   16.649  12%  22.445 Glu+Gln                                             
   6 lines in following misc. output table
  FWHM = 0.065 ppm    S/N =   3                                            
  Data shift =-0.008 ppm                                                   
  Ph:-165 deg       0.0 deg/ppm                                            
  alphaB,S = 1.6E-01,   5.1E+01                                            
   19 spline knots.   Ns =10(1)                                            
  (11) 5 infls.   (10) 2 extrs.                                            
  480 points on ppm-axis = NY
      4.100000     4.091866     4.083733     4.075600     4.067466     4.059333     4.051199     4.043066     4.034933     4.026799
      4.018666     4.010532     4.002399     3.994265     3.986132     3.977998     3.969864     3.961731     3.953597     3.945463
      3.937330     3.929196     3.921062     3.912929     3.904795     3.896662     3.888528     3.880394     3.872261     3.864127
      3.855993     3.847860     3.839726     3.831592     3.823459     3.815325     3.807191     3.799058     3.790924     3.782790
      3.774657     3.766523     3.758389     3.750256     3.742122     3.733989     3.725855     3.717721     3.709588     3.701454
      3.693320     3.685187     3.677053     3.668919     3.660786     3.652652     3.644518     3.636385     3.628251     3.620117
      3.611984     3.603850     3.595716     3.587583     3.579449     3.571316     3.563182     3.555048     3.546915     3.538781
      3.530647     3.522514     3.514380     3.506246     3.498113     3.489979     3.481845     3.473712     3.465578     3.457444
      3.449311     3.441177     3.433043     3.424910     3.416776     3.408643     3.400509     3.392375     3.384242     3.376108
      3.367974     3.359841     3.351707     3.343573     3.335440     3.327306     3.319172     3.311039     3.302905     3.294771
      3.286638     3.278504     3.270370     3.262237     3.254103     3.245970     3.237836     3.229702     3.221569     3.213435
      3.205301     3.197168     3.189034     3.180900     3.172767     3.164633     3.156499     3.148366     3.140232     3.132098
      3.123965     3.115831     3.107697     3.099564     3.091430     3.083297     3.075163     3.067029     3.058896     3.050762
      3.042628     3.034495     3.026361     3.018227     3.010094     3.001960     2.993826     2.985693     2.977559     2.969425
      2.961292     2.953158     2.945024     2.936891     2.928757     2.920624     2.912490     2.904356     2.896223     2.888089
      2.879955     2.871822     2.863688     2.855554     2.847421     2.839287     2.831153     2.823020     2.814886     2.806752
      2.798619     2.790485     2.782351     2.774218     2.766084     2.757951     2.749817     2.741683     2.733550     2.725416
      2.717282     2.709149     2.701015     2.692881     2.684748     2.676614     2.668480     2.660347     2.652213     2.644079
      2.635946     2.627812     2.619678     2.611545     2.603411     2.595278     2.587144     2.579010     2.570877     2.562743
      2.554609     2.546476     2.538342     2.530208     2.522075     2.513941     2.505807     2.497674     2.489540     2.481406
      2.473273     2.465139     2.457006     2.448872     2.440738     2.432605     2.424471     2.416337     2.408204     2.400070
      2.391936     2.383803     2.375669     2.367535     2.359402     2.351268     2.343134     2.335001     2.326867     2.318733
      2.310600     2.302466     2.294333     2.286199     2.278065     2.269932     2.261798     2.253664     2.245531     2.237397
      2.229263     2.221130     2.212996     2.204862     2.196729     2.188595     2.180461     2.172328     2.164194     2.156060
      2.147927     2.139793     2.131660     2.123526     2.115392     2.107259     2.099125     2.090991     2.082858     2.074724
      2.066590     2.058457     2.050323     2.042189     2.034056     2.025922     2.017788     2.009655     2.001521     1.993387
      1.985254     1.977120     1.968987     1.960853     1.952719     1.944586     1.936452     1.928318     1.920185     1.912051
      1.903917     1.895784     1.887650     1.879516     1.871383     1.863249     1.855115     1.846982     1.838848     1.830714
      1.822581     1.814447     1.806314     1.798180     1.790046     1.781913     1.773779     1.765645     1.757512     1.749378
      1.741244     1.733111     1.724977     1.716843     1.708710     1.700576     1.692442     1.684309     1.676175     1.668041
      1.659908     1.651774     1.643641     1.635507     1.627373     1.619240     1.611106     1.602972     1.594839     1.586705
      1.578571     1.570438     1.562304     1.554170     1.546037     1.537903     1.529769     1.521636     1.513502     1.505368
      1.497235     1.489101     1.480968     1.472834     1.464700     1.456567     1.448433     1.440299     1.432166     1.424032
      1.415898     1.407765     1.399631     1.391497     1.383364     1.375230     1.367096     1.358963     1.350829     1.342695
      1.334562     1.326428     1.318295     1.310161     1.302027     1.293894     1.285760     1.277626     1.269493     1.261359
      1.253225     1.245092     1.236958     1.228824     1.220691     1.212557     1.204423     1.196290     1.188156     1.180022
      1.171889     1.163755     1.155622     1.147488     1.139354     1.131221     1.123087     1.114953     1.106820     1.098686
      1.090552     1.082419     1.074285     1.066151     1.058018     1.049884     1.041750     1.033617     1.025483     1.017349
      1.009216     1.001082     0.992949     0.984815     0.976681     0.968548     0.960414     0.952280     0.944147     0.936013
      0.927879     0.919746     0.911612     0.903478     0.895345     0.887211     0.879077     0.870944     0.862810     0.854676
      0.846543     0.838409     0.830276     0.822142     0.814008     0.805875     0.797741     0.789607     0.781474     0.773340
      0.765206     0.757073     0.748939     0.740805     0.732672     0.724538     0.716404     0.708271     0.700137     0.692003
      0.683870     0.675736     0.667603     0.659469     0.651335     0.643202     0.635068     0.626934     0.618801     0.610667
      0.602533     0.594400     0.586266     0.578132     0.569999     0.561865     0.553731     0.545598     0.537464     0.529330
      0.521197     0.513063     0.504930     0.496796     0.488662     0.480529     0.472395     0.464261     0.456128     0.447994
      0.439861     0.431727     0.423593     0.415460     0.407326     0.399192     0.391059     0.382925     0.374792     0.366658
      0.358524     0.350391     0.342257     0.334124     0.325990     0.317856     0.309723     0.301589     0.293455     0.285322
      0.277188     0.269055     0.260921     0.252787     0.244654     0.236520     0.228386     0.220253     0.212119     0.203986
 NY phased data points follow
  -1.07848E+02 -1.05616E+02 -1.06137E+02 -1.13778E+02 -9.57827E+01 -1.33241E+02 -1.10466E+02 -1.02851E+02 -1.18861E+02 -1.03037E+02
  -1.33982E+02 -1.22359E+02 -1.25605E+02 -1.21051E+02 -1.35630E+02 -1.47409E+02 -1.29138E+02 -1.55946E+02 -1.55072E+02 -1.39298E+02
  -1.32872E+02 -1.37410E+02 -1.10719E+02 -9.55696E+01 -1.00870E+02 -8.96937E+01 -8.92318E+01 -7.94078E+01 -1.00840E+02 -9.47009E+01
  -6.47453E+01 -9.44809E+01 -1.06375E+02 -9.47669E+01 -1.08704E+02 -1.03258E+02 -9.97715E+01 -9.84728E+01 -1.13717E+02 -1.32075E+02
  -1.13688E+02 -1.19411E+02 -9.42316E+01 -9.19601E+01 -9.49193E+01 -6.56552E+01 -6.29198E+01 -2.73478E+01 -3.14577E+01 -6.63049E+01
  -5.46599E+01 -4.65415E+01 -6.55753E+01 -5.91923E+01 -7.77833E+01 -7.72700E+01 -4.59431E+01 -6.67658E+01 -4.88562E+01 -5.33647E+01
  -6.20195E+01 -4.51077E+01 -3.94720E+01 -2.94038E+01 -3.94625E+01 -3.90120E+01 -3.61177E+01 -4.35719E+01 -5.46783E+01 -5.13960E+01
  -6.09305E+01 -5.19204E+01 -2.51063E+01 -3.04957E+01 -5.43863E+01 -3.33867E+01  2.04385E+00 -1.12772E+01 -1.09307E+01 -3.20083E+01
  -2.58394E+01 -3.33366E+01 -3.69986E+01 -2.79099E+01 -4.53639E+01 -1.47439E+01 -2.99555E+01 -6.47198E+00 -1.28839E+00 -4.67447E+00
   1.31404E+01 -7.93280E+00  2.57666E+01  1.80330E+01  1.81434E+01  2.50125E+01  1.10676E+01  1.09240E+00 -2.85292E+01 -3.82544E+01
  -3.31736E+01 -3.43991E+01 -4.84065E+01 -6.82576E+01 -9.77739E+01 -9.27568E+01 -1.14639E+02 -1.41682E+02 -1.33215E+02 -1.55910E+02
  -1.61474E+02 -1.47830E+02 -1.39031E+02 -1.07495E+02 -8.16665E+01 -1.06684E+02 -1.04480E+02 -7.44039E+01 -6.27716E+01 -6.45981E+01
  -7.45211E+01 -6.67358E+01 -5.00747E+01 -4.34403E+01 -4.18709E+01 -3.02652E+01 -4.96330E+01 -4.92566E+01 -3.57428E+01 -5.50739E+01
  -7.02008E+01 -8.34925E+01 -9.25671E+01 -1.26241E+02 -1.52778E+02 -1.42221E+02 -1.21796E+02 -1.25243E+02 -1.35938E+02 -1.46895E+02
  -1.42714E+02 -1.23150E+02 -1.38952E+02 -1.37134E+02 -1.36563E+02 -1.33669E+02 -1.21169E+02 -1.24290E+02 -1.19985E+02 -1.23852E+02
  -1.13011E+02 -1.07877E+02 -1.06973E+02 -9.81130E+01 -1.11126E+02 -9.11084E+01 -7.75037E+01 -9.79360E+01 -8.05621E+01 -9.00324E+01
  -8.70701E+01 -8.45671E+01 -9.60980E+01 -6.72253E+01 -1.01241E+02 -9.62026E+01 -7.34944E+01 -8.98549E+01 -7.66685E+01 -7.12148E+01
  -6.97486E+01 -8.06964E+01 -6.89847E+01 -6.56012E+01 -7.02811E+01 -7.84900E+01 -9.26988E+01 -9.80675E+01 -1.04446E+02 -8.59415E+01
  -1.07811E+02 -1.07277E+02 -1.08102E+02 -1.22014E+02 -8.68170E+01 -1.06177E+02 -1.13095E+02 -1.13169E+02 -1.23836E+02 -9.92338E+01
  -9.90151E+01 -9.73393E+01 -9.61105E+01 -1.01438E+02 -9.93832E+01 -8.15462E+01 -7.61907E+01 -9.27640E+01 -9.00474E+01 -8.65214E+01
  -6.33598E+01 -6.08433E+01 -7.63506E+01 -5.00881E+01 -5.58142E+01 -9.07616E+01 -7.86204E+01 -6.65370E+01 -6.82497E+01 -6.08281E+01
  -7.63342E+01 -5.68757E+01 -4.11333E+01 -4.77887E+01 -1.73054E+01 -5.21211E+00 -2.07862E+01 -1.70596E+01  1.26625E+00 -2.82760E+01
  -4.27802E+01 -3.92985E+01 -5.74445E+01 -5.44585E+01 -7.30336E+01 -8.43658E+01 -6.88843E+01 -7.91400E+01 -8.60424E+01 -7.54491E+01
  -8.70425E+01 -8.79629E+01 -1.02228E+02 -1.18545E+02 -1.01918E+02 -1.08247E+02 -1.22099E+02 -1.19747E+02 -9.30335E+01 -9.69614E+01
  -1.11672E+02 -1.04835E+02 -1.00839E+02 -8.07304E+01 -7.30930E+01 -7.79392E+01 -7.79327E+01 -6.69990E+01 -5.68384E+01 -7.30790E+01
  -8.15837E+01 -6.08111E+01 -6.38779E+01 -4.24144E+01 -2.64145E+01 -1.87949E+01  1.40283E+00  7.91146E+00  7.04053E+01  7.22159E+01
   7.58565E+01  5.57453E+01  2.89818E+01  8.51367E+01  6.02534E+01  4.20571E+01  1.99868E+01  8.22628E+00 -4.53522E+00 -2.18500E+01
   5.01859E+00 -1.32348E+01 -1.20733E+01 -9.16376E+00 -2.86589E+01 -2.10214E+01 -8.66874E+00 -1.84728E+01 -2.46903E+01 -3.85739E+01
  -2.74071E+01 -3.90077E+01 -6.05293E+01 -3.36974E+01 -4.29660E+01 -4.69081E+01 -6.17173E+01 -5.10964E+01 -4.02491E+01 -3.74650E+01
  -3.26601E+01 -4.11836E+01 -3.54415E+01 -4.13650E+01 -2.04449E+01 -5.06649E+01 -4.32011E+01 -3.41193E+01 -4.70881E+01 -2.67262E+01
  -2.61278E+01  5.19734E+00 -8.12953E+00  3.10665E+00  3.55743E+01  4.51620E+01  4.93641E+01  4.46065E+01  3.41283E+01  3.70563E+01
   6.03622E+01  4.29125E+01  4.62771E+01  4.00855E+01  4.08106E+01  6.28502E+01  5.10489E+01  3.95166E+01  5.72726E+01  4.61450E+01
   3.69633E+01  3.61171E+01  4.23530E+00  3.85772E+01  3.55067E+01  2.75138E+01  2.35176E+01  7.48571E-01  3.19990E+00 -2.28638E+01
  -3.20491E+01 -4.42879E+01 -4.21367E+01 -5.83921E+01 -6.91838E+01 -6.95653E+01 -6.91187E+01 -6.75408E+01 -5.23894E+01 -4.50487E+01
  -7.29986E+01 -3.33285E+01 -5.55558E+01 -4.62506E+01 -2.80613E+01 -5.41154E+01 -3.10097E+01 -4.26784E+01 -3.26129E+01 -4.06291E+01
  -1.38865E+01 -2.97509E+01 -4.67846E+01  8.00169E+00 -2.07706E+01 -3.67270E+01 -4.10987E+01 -4.32233E+01 -4.69129E+01 -4.47900E+01
  -1.90993E+01 -2.72729E+01 -4.21767E+01 -2.70594E+01 -9.81273E+00 -3.24394E+01 -2.79824E+01 -1.91935E+01 -2.49069E+01  1.58780E+00
   5.47578E+00 -5.89928E+00  6.77871E-01  4.78616E-01  1.48472E+00  1.68455E+01  1.42846E+01  1.12068E+01  2.68236E+01  2.10368E+01
   2.19359E+01  4.66627E+01  4.28634E+01  4.51500E+01  7.35313E+01  6.86392E+01  4.96721E+01  4.74451E+01  5.23610E+01  4.01881E+01
   2.56434E+01  1.89714E+01 -1.07016E+01  5.92165E+00 -1.23349E+00 -3.78189E+01 -1.22980E+01 -2.81490E+01 -4.27520E+01 -4.23359E+01
  -4.49411E+01 -5.38040E+01 -7.19606E+01 -6.79971E+01 -8.81368E+01 -8.10838E+01 -7.50701E+01 -7.73186E+01 -7.01716E+01 -8.78334E+01
  -9.30714E+01 -8.15924E+01 -9.41917E+01 -8.18911E+01 -5.64523E+01 -8.49998E+01 -7.18096E+01 -7.35933E+01 -7.02366E+01 -6.25857E+01
  -7.56319E+01 -5.62279E+01 -9.52923E+01 -9.23220E+01 -5.56915E+01 -6.85792E+01 -7.55491E+01 -5.88552E+01 -7.63528E+01 -7.11530E+01
  -5.89955E+01 -9.23646E+01 -5.76931E+01 -5.19599E+01 -7.06735E+01 -6.76103E+01 -7.06259E+01 -8.91814E+01 -8.21545E+01 -7.01284E+01
  -8.47506E+01 -6.09138E+01 -8.25376E+01 -7.86660E+01 -6.47679E+01 -7.13745E+01 -7.98465E+01 -7.47594E+01 -4.61382E+01 -6.36028E+01
  -7.95799E+01 -9.68197E+01 -7.08092E+01 -6.67625E+01 -6.59049E+01 -7.16401E+01 -9.34012E+01 -7.86870E+01 -7.64595E+01 -5.18424E+01
  -7.17455E+01 -5.82974E+01 -5.20751E+01 -7.41810E+01 -7.54927E+01 -7.74638E+01 -5.11013E+01 -7.43142E+01 -6.52310E+01 -3.98587E+01
  -6.40026E+01 -7.25341E+01 -4.49076E+01 -6.01851E+01 -5.83898E+01 -4.84456E+01 -7.97292E+01 -6.29728E+01 -7.91979E+01 -6.20980E+01
 NY points of the fit to the data follow
  -1.18360E+02 -1.17975E+02 -1.18047E+02 -1.18289E+02 -1.18525E+02 -1.18755E+02 -1.19164E+02 -1.19961E+02 -1.21152E+02 -1.22532E+02
  -1.23814E+02 -1.24978E+02 -1.26887E+02 -1.29719E+02 -1.31611E+02 -1.32369E+02 -1.32164E+02 -1.31059E+02 -1.29247E+02 -1.26770E+02
  -1.23129E+02 -1.17464E+02 -1.09208E+02 -9.86822E+01 -8.74380E+01 -7.79413E+01 -7.19780E+01 -6.93420E+01 -6.84763E+01 -6.84945E+01
  -7.04583E+01 -7.53157E+01 -8.20891E+01 -8.91434E+01 -9.53378E+01 -1.00545E+02 -1.05209E+02 -1.09240E+02 -1.12082E+02 -1.12947E+02
  -1.10940E+02 -1.05412E+02 -9.65957E+01 -8.59395E+01 -7.54865E+01 -6.66890E+01 -6.02443E+01 -5.60773E+01 -5.41123E+01 -5.46834E+01
  -5.71171E+01 -6.06030E+01 -6.46868E+01 -6.82904E+01 -7.04230E+01 -7.05590E+01 -6.87059E+01 -6.53447E+01 -6.13292E+01 -5.76469E+01
  -5.44836E+01 -5.13711E+01 -4.85607E+01 -4.65379E+01 -4.53919E+01 -4.50533E+01 -4.53073E+01 -4.59394E+01 -4.64031E+01 -4.60503E+01
  -4.45167E+01 -4.19847E+01 -3.89143E+01 -3.64251E+01 -3.45634E+01 -3.35062E+01 -3.31613E+01 -3.36932E+01 -3.53942E+01 -3.80542E+01
  -4.11327E+01 -4.40378E+01 -4.61119E+01 -4.66513E+01 -4.50892E+01 -4.15062E+01 -3.65607E+01 -3.10241E+01 -2.55341E+01 -2.04898E+01
  -1.59502E+01 -1.18704E+01 -8.50825E+00 -6.27786E+00 -4.84415E+00 -4.44609E+00 -4.49831E+00 -4.37823E+00 -4.26912E+00 -9.14121E+00
  -1.79234E+01 -2.89913E+01 -4.20042E+01 -5.64981E+01 -7.19371E+01 -8.84824E+01 -1.06446E+02 -1.25265E+02 -1.43024E+02 -1.56319E+02
  -1.61037E+02 -1.55538E+02 -1.42991E+02 -1.29179E+02 -1.17446E+02 -1.06213E+02 -9.30767E+01 -7.93069E+01 -6.81028E+01 -6.04060E+01
  -5.44162E+01 -4.69411E+01 -3.92653E+01 -3.41168E+01 -3.12113E+01 -3.03111E+01 -3.16255E+01 -3.52454E+01 -4.13851E+01 -5.06106E+01
  -6.32976E+01 -7.91723E+01 -9.70369E+01 -1.14220E+02 -1.27125E+02 -1.33713E+02 -1.35342E+02 -1.35286E+02 -1.35248E+02 -1.34044E+02
  -1.30518E+02 -1.25912E+02 -1.22213E+02 -1.20110E+02 -1.18677E+02 -1.16900E+02 -1.14797E+02 -1.12534E+02 -1.10285E+02 -1.08157E+02
  -1.06184E+02 -1.04338E+02 -1.02602E+02 -1.01040E+02 -9.96799E+01 -9.85235E+01 -9.75328E+01 -9.67304E+01 -9.60970E+01 -9.55811E+01
  -9.51166E+01 -9.45554E+01 -9.37049E+01 -9.26929E+01 -9.17136E+01 -9.06343E+01 -8.92886E+01 -8.74888E+01 -8.52700E+01 -8.29685E+01
  -8.07240E+01 -7.88966E+01 -7.79994E+01 -7.82376E+01 -7.93412E+01 -8.08143E+01 -8.24552E+01 -8.46078E+01 -8.77252E+01 -9.16534E+01
  -9.54148E+01 -9.79941E+01 -9.94678E+01 -1.00379E+02 -1.00855E+02 -1.00746E+02 -1.00042E+02 -9.88175E+01 -9.72895E+01 -9.57330E+01
  -9.42356E+01 -9.26463E+01 -9.08006E+01 -8.85282E+01 -8.59246E+01 -8.32611E+01 -8.06603E+01 -7.81889E+01 -7.59367E+01 -7.38854E+01
  -7.23064E+01 -7.16037E+01 -7.18835E+01 -7.27283E+01 -7.45993E+01 -7.68682E+01 -7.87336E+01 -8.00003E+01 -7.94858E+01 -7.72846E+01
  -7.33688E+01 -6.72849E+01 -5.89779E+01 -4.90923E+01 -3.88498E+01 -2.97182E+01 -2.31629E+01 -2.01546E+01 -2.06201E+01 -2.38057E+01
  -2.87486E+01 -3.46609E+01 -4.12371E+01 -4.82209E+01 -5.55458E+01 -6.34021E+01 -7.14985E+01 -7.98550E+01 -8.84869E+01 -9.71408E+01
  -1.05786E+02 -1.14034E+02 -1.20948E+02 -1.26455E+02 -1.29907E+02 -1.31247E+02 -1.30465E+02 -1.27558E+02 -1.22938E+02 -1.16834E+02
  -1.09448E+02 -1.01517E+02 -9.34342E+01 -8.59638E+01 -7.92083E+01 -7.42441E+01 -7.26097E+01 -7.24260E+01 -7.06915E+01 -6.75048E+01
  -6.30495E+01 -5.73363E+01 -5.04804E+01 -4.24016E+01 -3.25822E+01 -2.03556E+01 -5.79971E+00  1.04588E+01  2.61262E+01  3.73794E+01
   4.17631E+01  4.05550E+01  3.77096E+01  3.56498E+01  3.30203E+01  2.82914E+01  2.25363E+01  1.80902E+01  1.59959E+01  1.52701E+01
   1.47157E+01  1.40951E+01  1.33687E+01  1.25406E+01  1.15848E+01  1.04891E+01  9.26695E+00  7.90754E+00  6.41885E+00  4.77868E+00
   2.96224E+00  1.00795E+00 -1.08469E+00 -3.32450E+00 -5.73213E+00 -8.29161E+00 -1.09319E+01 -1.35418E+01 -1.60388E+01 -1.83495E+01
  -2.03485E+01 -2.18514E+01 -2.27044E+01 -2.27947E+01 -2.20695E+01 -2.05487E+01 -1.83364E+01 -1.55952E+01 -1.24963E+01 -9.20189E+00
  -5.82602E+00 -2.47719E+00  7.58470E-01  3.82690E+00  6.71274E+00  9.43336E+00  1.20408E+01  1.45169E+01  1.67726E+01  1.87202E+01
   2.03208E+01  2.15224E+01  2.22943E+01  2.26084E+01  2.23827E+01  2.15699E+01  2.01140E+01  1.79708E+01  1.51282E+01  1.16012E+01
   7.41713E+00  2.62947E+00 -2.66149E+00 -8.34624E+00 -1.42267E+01 -2.00421E+01 -2.54823E+01 -3.01561E+01 -3.35775E+01 -3.52751E+01
  -3.59849E+01 -3.56670E+01 -3.46885E+01 -3.35785E+01 -3.21695E+01 -3.07998E+01 -3.02293E+01 -3.11741E+01 -3.40179E+01 -3.86493E+01
  -4.42988E+01 -4.94838E+01 -5.27294E+01 -5.34268E+01 -5.20298E+01 -4.96494E+01 -4.72589E+01 -4.52452E+01 -4.37537E+01 -4.28464E+01
  -4.27356E+01 -4.36845E+01 -4.53554E+01 -4.71406E+01 -4.83195E+01 -4.84704E+01 -4.76134E+01 -4.58526E+01 -4.33268E+01 -4.01995E+01
  -3.66406E+01 -3.28326E+01 -2.89650E+01 -2.51765E+01 -2.15354E+01 -1.80027E+01 -1.45525E+01 -1.11020E+01 -7.54084E+00 -3.79739E+00
   1.69490E-01  4.45439E+00  9.16142E+00  1.43511E+01  2.00380E+01  2.61639E+01  3.25872E+01  3.91216E+01  4.54639E+01  5.12867E+01
   5.62384E+01  6.00314E+01  6.23772E+01  6.30001E+01  6.16656E+01  5.82021E+01  5.26067E+01  4.51217E+01  3.62310E+01  2.64860E+01
   1.64870E+01  6.69577E+00 -2.63433E+00 -1.14945E+01 -1.98970E+01 -2.78447E+01 -3.53098E+01 -4.22524E+01 -4.85752E+01 -5.41598E+01
  -5.89032E+01 -6.27658E+01 -6.57572E+01 -6.79595E+01 -6.95000E+01 -7.05121E+01 -7.11422E+01 -7.15521E+01 -7.18679E+01 -7.21083E+01
  -7.22564E+01 -7.23355E+01 -7.23769E+01 -7.24030E+01 -7.24167E+01 -7.24115E+01 -7.23895E+01 -7.23598E+01 -7.23281E+01 -7.22855E+01
  -7.22246E+01 -7.21622E+01 -7.21271E+01 -7.21025E+01 -7.20698E+01 -7.19979E+01 -7.19188E+01 -7.18359E+01 -7.17350E+01 -7.16267E+01
  -7.15421E+01 -7.14871E+01 -7.14213E+01 -7.13211E+01 -7.11803E+01 -7.10342E+01 -7.09000E+01 -7.07725E+01 -7.06610E+01 -7.05574E+01
  -7.04660E+01 -7.04072E+01 -7.03723E+01 -7.03466E+01 -7.03050E+01 -7.02307E+01 -7.01041E+01 -6.99573E+01 -6.98046E+01 -6.96624E+01
  -6.95027E+01 -6.93305E+01 -6.91463E+01 -6.89595E+01 -6.87895E+01 -6.86508E+01 -6.85372E+01 -6.84295E+01 -6.83049E+01 -6.81849E+01
  -6.80785E+01 -6.80060E+01 -6.79434E+01 -6.78551E+01 -6.77253E+01 -6.75707E+01 -6.74092E+01 -6.72685E+01 -6.71856E+01 -6.71775E+01
  -6.72140E+01 -6.72689E+01 -6.72832E+01 -6.72343E+01 -6.71326E+01 -6.69982E+01 -6.68160E+01 -6.65464E+01 -6.61720E+01 -6.56986E+01
 NY background values follow
    -9.992E+01   -9.941E+01   -9.891E+01   -9.840E+01   -9.790E+01   -9.739E+01   -9.688E+01   -9.638E+01   -9.587E+01   -9.536E+01
    -9.485E+01   -9.434E+01   -9.383E+01   -9.331E+01   -9.280E+01   -9.229E+01   -9.177E+01   -9.125E+01   -9.073E+01   -9.021E+01
    -8.969E+01   -8.917E+01   -8.864E+01   -8.812E+01   -8.759E+01   -8.706E+01   -8.652E+01   -8.599E+01   -8.545E+01   -8.492E+01
    -8.438E+01   -8.383E+01   -8.329E+01   -8.274E+01   -8.220E+01   -8.165E+01   -8.110E+01   -8.055E+01   -8.000E+01   -7.946E+01
    -7.891E+01   -7.837E+01   -7.782E+01   -7.728E+01   -7.674E+01   -7.621E+01   -7.568E+01   -7.515E+01   -7.462E+01   -7.410E+01
    -7.359E+01   -7.308E+01   -7.257E+01   -7.207E+01   -7.158E+01   -7.109E+01   -7.061E+01   -7.013E+01   -6.967E+01   -6.921E+01
    -6.876E+01   -6.832E+01   -6.788E+01   -6.746E+01   -6.704E+01   -6.664E+01   -6.624E+01   -6.585E+01   -6.547E+01   -6.510E+01
    -6.474E+01   -6.439E+01   -6.405E+01   -6.371E+01   -6.339E+01   -6.308E+01   -6.278E+01   -6.249E+01   -6.221E+01   -6.194E+01
    -6.168E+01   -6.143E+01   -6.119E+01   -6.096E+01   -6.075E+01   -6.054E+01   -6.035E+01   -6.016E+01   -5.999E+01   -5.983E+01
    -5.968E+01   -5.955E+01   -5.942E+01   -5.931E+01   -5.920E+01   -5.911E+01   -5.902E+01   -5.895E+01   -5.888E+01   -5.882E+01
    -5.878E+01   -5.873E+01   -5.870E+01   -5.867E+01   -5.865E+01   -5.864E+01   -5.863E+01   -5.863E+01   -5.863E+01   -5.863E+01
    -5.865E+01   -5.866E+01   -5.868E+01   -5.870E+01   -5.872E+01   -5.875E+01   -5.878E+01   -5.881E+01   -5.884E+01   -5.887E+01
    -5.891E+01   -5.894E+01   -5.897E+01   -5.901E+01   -5.904E+01   -5.907E+01   -5.910E+01   -5.913E+01   -5.917E+01   -5.920E+01
    -5.923E+01   -5.926E+01   -5.928E+01   -5.931E+01   -5.934E+01   -5.936E+01   -5.939E+01   -5.941E+01   -5.943E+01   -5.945E+01
    -5.947E+01   -5.949E+01   -5.950E+01   -5.952E+01   -5.953E+01   -5.954E+01   -5.955E+01   -5.955E+01   -5.956E+01   -5.956E+01
    -5.956E+01   -5.955E+01   -5.955E+01   -5.954E+01   -5.953E+01   -5.951E+01   -5.950E+01   -5.948E+01   -5.946E+01   -5.944E+01
    -5.941E+01   -5.938E+01   -5.936E+01   -5.932E+01   -5.929E+01   -5.926E+01   -5.922E+01   -5.918E+01   -5.914E+01   -5.909E+01
    -5.905E+01   -5.900E+01   -5.895E+01   -5.890E+01   -5.885E+01   -5.879E+01   -5.873E+01   -5.867E+01   -5.861E+01   -5.855E+01
    -5.849E+01   -5.842E+01   -5.835E+01   -5.828E+01   -5.821E+01   -5.814E+01   -5.807E+01   -5.800E+01   -5.792E+01   -5.785E+01
    -5.777E+01   -5.770E+01   -5.762E+01   -5.754E+01   -5.747E+01   -5.739E+01   -5.731E+01   -5.724E+01   -5.716E+01   -5.708E+01
    -5.701E+01   -5.693E+01   -5.686E+01   -5.679E+01   -5.672E+01   -5.665E+01   -5.658E+01   -5.651E+01   -5.645E+01   -5.638E+01
    -5.632E+01   -5.626E+01   -5.620E+01   -5.615E+01   -5.609E+01   -5.604E+01   -5.599E+01   -5.594E+01   -5.590E+01   -5.586E+01
    -5.582E+01   -5.578E+01   -5.574E+01   -5.571E+01   -5.568E+01   -5.565E+01   -5.563E+01   -5.561E+01   -5.559E+01   -5.558E+01
    -5.556E+01   -5.555E+01   -5.555E+01   -5.554E+01   -5.554E+01   -5.555E+01   -5.556E+01   -5.557E+01   -5.558E+01   -5.560E+01
    -5.562E+01   -5.564E+01   -5.567E+01   -5.570E+01   -5.573E+01   -5.576E+01   -5.580E+01   -5.583E+01   -5.586E+01   -5.590E+01
    -5.593E+01   -5.596E+01   -5.598E+01   -5.601E+01   -5.603E+01   -5.605E+01   -5.606E+01   -5.607E+01   -5.607E+01   -5.607E+01
    -5.606E+01   -5.604E+01   -5.601E+01   -5.598E+01   -5.594E+01   -5.589E+01   -5.583E+01   -5.576E+01   -5.568E+01   -5.559E+01
    -5.549E+01   -5.538E+01   -5.525E+01   -5.511E+01   -5.497E+01   -5.481E+01   -5.464E+01   -5.447E+01   -5.428E+01   -5.408E+01
    -5.388E+01   -5.367E+01   -5.345E+01   -5.322E+01   -5.299E+01   -5.275E+01   -5.250E+01   -5.225E+01   -5.199E+01   -5.172E+01
    -5.145E+01   -5.118E+01   -5.090E+01   -5.061E+01   -5.033E+01   -5.003E+01   -4.974E+01   -4.944E+01   -4.915E+01   -4.884E+01
    -4.854E+01   -4.824E+01   -4.793E+01   -4.763E+01   -4.732E+01   -4.702E+01   -4.672E+01   -4.642E+01   -4.612E+01   -4.582E+01
    -4.553E+01   -4.524E+01   -4.496E+01   -4.468E+01   -4.441E+01   -4.414E+01   -4.389E+01   -4.363E+01   -4.339E+01   -4.315E+01
    -4.293E+01   -4.271E+01   -4.250E+01   -4.230E+01   -4.212E+01   -4.194E+01   -4.178E+01   -4.163E+01   -4.149E+01   -4.137E+01
    -4.126E+01   -4.116E+01   -4.108E+01   -4.101E+01   -4.096E+01   -4.091E+01   -4.088E+01   -4.087E+01   -4.086E+01   -4.086E+01
    -4.088E+01   -4.091E+01   -4.094E+01   -4.099E+01   -4.104E+01   -4.111E+01   -4.118E+01   -4.126E+01   -4.135E+01   -4.145E+01
    -4.155E+01   -4.167E+01   -4.179E+01   -4.191E+01   -4.204E+01   -4.218E+01   -4.232E+01   -4.247E+01   -4.262E+01   -4.277E+01
    -4.293E+01   -4.309E+01   -4.326E+01   -4.343E+01   -4.360E+01   -4.378E+01   -4.396E+01   -4.414E+01   -4.432E+01   -4.451E+01
    -4.469E+01   -4.488E+01   -4.508E+01   -4.527E+01   -4.546E+01   -4.566E+01   -4.586E+01   -4.606E+01   -4.626E+01   -4.646E+01
    -4.666E+01   -4.686E+01   -4.706E+01   -4.726E+01   -4.747E+01   -4.767E+01   -4.787E+01   -4.807E+01   -4.827E+01   -4.847E+01
    -4.867E+01   -4.886E+01   -4.906E+01   -4.925E+01   -4.945E+01   -4.964E+01   -4.983E+01   -5.002E+01   -5.021E+01   -5.039E+01
    -5.058E+01   -5.076E+01   -5.094E+01   -5.112E+01   -5.130E+01   -5.148E+01   -5.165E+01   -5.183E+01   -5.200E+01   -5.217E+01
    -5.233E+01   -5.250E+01   -5.266E+01   -5.282E+01   -5.298E+01   -5.314E+01   -5.329E+01   -5.344E+01   -5.359E+01   -5.374E+01
    -5.388E+01   -5.403E+01   -5.417E+01   -5.430E+01   -5.444E+01   -5.457E+01   -5.470E+01   -5.483E+01   -5.495E+01   -5.508E+01
    -5.520E+01   -5.531E+01   -5.543E+01   -5.554E+01   -5.565E+01   -5.576E+01   -5.587E+01   -5.597E+01   -5.607E+01   -5.617E+01
    -5.627E+01   -5.636E+01   -5.645E+01   -5.654E+01   -5.663E+01   -5.671E+01   -5.680E+01   -5.688E+01   -5.695E+01   -5.703E+01
    -5.710E+01   -5.717E+01   -5.724E+01   -5.731E+01   -5.737E+01   -5.744E+01   -5.750E+01   -5.756E+01   -5.762E+01   -5.767E+01
    -5.773E+01   -5.778E+01   -5.784E+01   -5.789E+01   -5.794E+01   -5.799E+01   -5.804E+01   -5.809E+01   -5.813E+01   -5.818E+01
    -5.823E+01   -5.828E+01   -5.832E+01   -5.837E+01   -5.841E+01   -5.846E+01   -5.851E+01   -5.855E+01   -5.860E+01   -5.865E+01
 Mac      Conc. = 2.95E-04
  -1.23053E+02 -1.23405E+02 -1.23795E+02 -1.24262E+02 -1.24849E+02 -1.25567E+02 -1.26363E+02 -1.27062E+02 -1.27464E+02 -1.27540E+02
  -1.27281E+02 -1.26660E+02 -1.25717E+02 -1.24452E+02 -1.22796E+02 -1.20623E+02 -1.17887E+02 -1.14640E+02 -1.11074E+02 -1.07503E+02
  -1.04186E+02 -1.01177E+02 -9.84168E+01 -9.59100E+01 -9.37226E+01 -9.18509E+01 -9.01619E+01 -8.85257E+01 -8.69058E+01 -8.53494E+01
  -8.39205E+01 -8.26018E+01 -8.13614E+01 -8.01510E+01 -7.88719E+01 -7.74759E+01 -7.59447E+01 -7.43557E+01 -7.28491E+01 -7.15755E+01
  -7.05560E+01 -6.96722E+01 -6.88539E+01 -6.81482E+01 -6.76905E+01 -6.75747E+01 -6.77324E+01 -6.79806E+01 -6.81979E+01 -6.83484E+01
  -6.83735E+01 -6.81976E+01 -6.77842E+01 -6.71032E+01 -6.61853E+01 -6.50795E+01 -6.38431E+01 -6.25571E+01 -6.13546E+01 -6.03460E+01
  -5.95484E+01 -5.89086E+01 -5.84038E+01 -5.80058E+01 -5.76066E+01 -5.71167E+01 -5.64348E+01 -5.55523E+01 -5.44904E+01 -5.32539E+01
  -5.18875E+01 -5.05176E+01 -4.93427E+01 -4.85016E+01 -4.80106E+01 -4.77767E+01 -4.76893E+01 -4.76642E+01 -4.76572E+01 -4.75783E+01
  -4.73266E+01 -4.68663E+01 -4.62141E+01 -4.54122E+01 -4.45328E+01 -4.36994E+01 -4.30151E+01 -4.25497E+01 -4.23454E+01 -4.24233E+01
  -4.27975E+01 -4.35159E+01 -4.46055E+01 -4.60726E+01 -4.79381E+01 -5.02018E+01 -5.28749E+01 -5.59001E+01 -5.91780E+01 -6.26404E+01
  -6.62345E+01 -6.99366E+01 -7.36644E+01 -7.72970E+01 -8.06684E+01 -8.35484E+01 -8.56698E+01 -8.67635E+01 -8.66817E+01 -8.54973E+01
