 
 $NMID
 ID=''
 FMTDAT='(2E13.5)'
 TRAMP=   1.00000E+0
 VOLUME=   1.00000E+0
 $END
   1.76384E+4  -2.55583E+4
  -1.35201E+4  -3.16324E+4
  -2.44876E+4  -1.37225E+3
  -5.76878E+3   2.29987E+4
   1.24349E+4   1.53059E+4
   1.52611E+4  -7.40020E+3
   3.83089E+3  -1.58768E+4
  -9.88858E+3  -5.85074E+3
  -9.14951E+3   8.52206E+3
   3.17045E+3   1.22219E+4
   7.94300E+3   3.58313E+3
   2.90132E+3  -6.20525E+3
  -2.72533E+3  -5.82858E+3
  -6.28329E+3   9.00320E+2
  -3.92547E+3   3.60488E+3
   3.64067E+3   1.27072E+3
   5.32652E+3  -9.76029E+2
   8.14360E+1  -1.68112E+3
  -2.85946E+3  -1.38876E+3
  -1.04732E+3   1.19837E+3
   6.70727E+2   2.18790E+3
   2.12605E+3  -4.24764E+1
   1.82385E+3  -1.20260E+3
  -1.45009E+3  -4.20319E+2
  -2.52314E+3  -3.18238E+2
   4.66954E+2   2.03613E+2
   2.27473E+3   2.03398E+3
  -1.67994E+2   8.13904E+2
  -1.67147E+3  -2.35652E+3
  -5.20971E+2  -1.43328E+3
   1.25722E+2   1.66263E+3
  -3.19709E+2   1.95576E+3
  -1.01566E+3  -1.50713E+2
  -5.51388E+2  -1.86602E+3
   4.76759E+2  -1.96554E+3
   1.01132E+3  -2.30211E+2
  -1.71870E+2   1.25098E+3
  -8.62345E+2   1.19006E+3
   3.69297E+2  -1.17140E+2
   1.63517E+2  -3.41181E+2
  -1.11345E+3  -3.70644E+2
  -2.93756E+2  -1.06808E+3
   1.20270E+3  -2.94624E+2
   6.90623E+2   5.23744E+2
   2.62083E+2   3.08193E+2
   6.19024E+2   3.09282E+2
  -3.92018E+2   1.30322E+3
  -2.06835E+3   5.13210E+2
  -1.34530E+3  -1.49154E+3
   7.08476E+2  -1.11245E+3
   8.53333E+2   1.53151E+2
   2.27681E+2  -2.24301E+2
   4.30169E+2  -5.94614E+2
   3.63545E+2   5.65275E+2
   2.27825E+2   7.44313E+2
  -6.67268E+2   2.13474E+2
  -5.68487E+2  -9.38944E+2
   3.76667E+2  -1.06102E+3
   6.54098E+2  -4.35894E+2
   1.77670E+2   1.26388E+2
   1.32343E+2   3.43068E+2
   7.15743E+2   7.75720E+2
   2.94561E+1   1.09291E+3
  -1.52744E+3   2.67138E+2
  -1.56724E+3  -1.36258E+3
  -2.51842E+2  -1.16271E+3
   5.11123E+2  -2.64694E+2
   5.48934E+2  -1.08411E+1
   1.03518E+3  -1.16038E+2
   4.92060E+2   2.55261E+2
  -1.09449E+2  -3.15058E+1
   1.77378E+2  -2.55383E+2
   4.92040E+2   3.96367E+2
   2.34663E+2   8.34128E+2
  -4.42386E+2   5.81824E+1
   1.69368E+1  -5.54536E+2
   1.11738E+2  -2.21033E+2
  -2.16532E+2   4.24772E+2
  -5.94219E+2   3.61097E+2
  -2.43171E+2  -3.61920E+2
   1.43551E+2  -7.81049E+2
   3.30654E+2  -2.21711E+2
   2.56822E+2   2.21169E+2
  -6.76026E+1  -1.89646E+2
   3.29287E+2  -5.74661E+2
   5.68050E+2  -2.77584E+2
   6.40453E+2   2.70746E+2
   6.37888E+1   5.27840E+2
  -7.14010E+1  -3.79523E+1
   4.30008E+2   4.09334E+1
   3.94745E+2   4.66627E+2
  -1.42614E+2   3.47273E+2
  -6.35049E+2  -2.50656E+2
  -3.78805E+2  -3.82624E+2
   1.69090E+2  -4.34337E+2
   5.02650E+2  -3.70265E+2
   5.52450E+2   1.48928E+0
   2.46913E+2   6.98784E+1
   7.92181E+1  -1.44642E+2
   3.96883E+2  -1.94330E+2
   2.62776E+2   5.77960E+2
  -3.75024E+2   6.40386E+2
  -3.06359E+2  -6.01951E+2
   2.94316E+2  -7.75539E+2
   6.77757E+2  -1.25347E+2
  -2.39195E+2   9.05020E+2
  -7.91299E+2   5.61210E+2
  -5.14733E+2  -3.91312E+2
   2.89662E+2  -9.33850E+2
   5.70749E+2  -1.71905E+2
   6.08443E+2   3.17081E+2
  -9.03861E+1   2.33356E+2
  -3.93633E+2   2.66780E+2
  -1.09383E+2   1.74767E+2
  -5.91042E+1   9.93628E+1
  -4.01650E+2  -3.26987E+2
  -4.30589E+2  -4.67277E+1
  -2.13045E+2  -6.84965E+2
   5.41568E+2  -4.68381E+2
   8.96210E+2   1.84462E+2
   3.17386E+2   3.67205E+2
  -6.19844E+1   2.52655E+2
  -2.78533E+2   3.64218E+2
  -2.43851E+2   3.41022E+2
  -4.39047E+2  -4.13211E+1
  -3.66353E+2  -4.54989E+2
   2.00947E+2  -2.20636E+2
   1.70302E+2   1.78723E+1
  -4.18389E+1   2.42921E+2
  -1.77458E+2   2.02079E+2
  -3.77491E+2  -1.19367E+2
  -1.03699E+2  -4.72620E+2
   7.19151E+1  -1.22938E+2
   2.70410E+2   1.69734E+2
   9.64216E+1   8.53554E+1
   8.72037E+1  -2.39421E+2
   4.60275E+2  -3.49768E+1
   1.50921E+2   5.72811E+2
  -1.46091E+2   3.03896E+2
  -2.69352E+2  -6.22135E+1
  -1.17833E+2  -3.64912E+2
   4.72134E+2  -1.52515E+2
   2.17751E+2   4.78137E+2
  -5.55309E+1   5.31442E+2
  -5.76705E+2   2.32420E+1
  -1.47754E+2  -3.23665E+2
   1.01586E+2  -4.12766E+2
  -6.35372E+1  -2.30806E+2
   2.91277E+2  -4.23598E+2
   1.70239E+2  -2.50653E+2
   3.21407E+2  -1.47626E+2
   4.97036E+2   3.53394E+2
   2.11063E+1   4.46233E+2
  -1.45951E+2   1.95994E+2
  -2.93184E+2   1.05327E+2
   9.99029E+1  -1.24440E+2
  -3.07181E+2   3.67513E+1
  -2.96888E+2  -3.85074E+1
  -1.88451E+2  -2.01634E+2
  -2.30341E+2  -2.49830E+2
  -3.11805E+2   3.00339E+1
  -1.70328E+2  -4.38710E+1
  -9.03376E+1  -2.38055E+2
   1.18696E+2  -2.76080E+2
   3.15487E+2   1.37595E+2
   1.42014E+2   8.69026E+1
  -1.62356E+2   1.65054E+2
  -2.17041E+2   4.66197E+1
  -9.54489E+1  -2.03035E+2
   2.20629E+2  -2.16557E+2
  -3.62034E+0   2.53736E+2
  -1.38605E+2   1.72679E+2
  -2.13358E+2  -3.89962E+1
   7.37858E+1  -6.85564E+1
  -7.94079E+1  -2.35888E+1
  -2.82318E+2   7.59770E+1
  -5.00031E+2  -1.84669E+1
  -2.17790E+2  -4.05806E+2
   3.82244E+2  -1.69998E+2
   1.32550E+1   4.14633E+2
  -3.58235E+2   1.80655E+2
  -5.09159E+2  -1.83138E+1
  -1.26226E+2  -4.09934E+2
  -2.95229E+1   5.82436E+1
   2.62962E+2  -1.81392E+2
  -2.25145E+2  -1.20599E+2
   2.75919E+2  -4.99898E+1
   5.11974E+2   2.10221E+2
   1.93289E+2   4.63158E+2
  -2.05776E+2   4.90418E+2
  -5.14441E+2  -3.36843E+1
  -2.60292E+2  -7.00460E+2
   5.00714E+1  -5.82602E+2
  -2.81738E+1  -3.19333E+1
   2.33240E+1   1.29049E+2
  -1.09580E+1   7.53162E+1
  -1.24871E+2  -9.24064E+1
  -5.08805E+1   1.92361E+2
  -1.03116E+2   1.63351E+1
  -2.51714E+2  -2.94825E+2
  -1.20757E+2  -3.92896E+2
   3.37708E+2  -9.36668E+1
   3.66963E+2   2.51206E+2
   2.80128E+1   3.47757E+2
  -3.42008E+2   6.95038E+1
  -1.20305E+2  -2.21402E+2
  -1.32503E+2  -2.55070E+2
  -1.79822E+2  -1.41228E+2
  -2.27410E+2  -1.31491E+1
  -1.11125E+2  -2.22672E+2
   3.21316E+1  -8.73321E+1
   1.86682E+2   2.67923E+1
   1.02187E+2   2.46565E+2
  -4.62249E+2   4.82825E+1
  -3.50514E+2  -5.16505E+2
   2.94208E+2  -4.00267E+2
   2.72623E+2  -2.56612E+2
   2.38539E+1   1.47301E+2
   1.03730E+2   3.64236E+1
   5.41374E+1  -1.74163E+2
   9.27594E+1   2.42041E+2
  -2.22669E+2   1.75498E+2
  -3.55690E+2   1.13739E+2
  -3.24216E+2  -1.04604E+2
   1.52394E+2  -4.11583E+2
   1.55058E+2   6.71860E+1
   3.68980E+1   1.33901E+2
  -1.97821E+2  -1.16989E+0
  -2.20810E+2  -2.15650E+2
  -9.20517E+1  -1.45663E+2
   9.87688E+1   8.19629E+1
   1.03543E+2  -2.89237E+1
  -2.65180E+2  -1.24092E+2
  -1.84152E+2  -1.52145E+2
  -1.70013E+1   1.15467E+2
   4.56069E+0  -3.35485E+1
  -1.61562E+2  -1.19060E+2
  -7.09751E+1   1.30170E+2
   1.59769E+1  -3.49320E+1
   1.05018E+2   1.83897E+1
  -9.47617E+1   2.25059E+2
  -9.85687E+1   9.94762E+0
  -1.69313E+2  -3.92412E+1
  -1.69425E+0   1.52866E+1
   1.71101E+2   6.02168E+0
   1.86471E+1   2.26691E+2
  -3.98387E+0  -1.54501E+2
   1.01937E+2  -1.15939E+2
   1.70063E+2  -1.70099E+2
  -3.38582E+1   1.82754E+2
  -3.42302E+1   9.72639E+1
  -2.49890E+2  -1.61865E+2
  -3.43778E+1   1.43908E+1
   1.43805E+2  -1.15398E+2
   3.48331E+2   2.19037E+2
  -3.42431E+1   4.26414E+2
  -7.94570E+1  -4.48079E+1
  -7.01149E+1   1.79533E+2
  -1.19416E+2   1.51001E+1
  -4.28248E+1   8.33558E+1
  -9.92004E+1  -9.49580E+1
   8.15363E+1  -3.90526E+2
   3.33018E+2  -1.70355E+2
   1.47432E+2   8.76930E+1
  -1.02365E+2   1.91617E+2
  -1.32600E+2  -6.79907E+1
  -2.47168E+2  -1.32171E+2
  -1.03095E+2  -2.29545E+2
   2.24724E+1   3.38545E+2
   5.49100E+1  -6.81704E+1
   2.72378E+2   1.64044E+0
   1.98104E+2   3.36619E+1
   6.06730E+1  -4.23821E+1
   2.57286E+1  -5.21922E+1
  -9.74370E+0  -2.04138E+2
   7.75504E+0  -1.31483E+2
   1.24017E+2  -1.81605E+2
   1.50292E+2  -2.11580E+2
   2.51573E+2  -2.04991E+1
   1.93728E+2  -1.25924E+2
   2.45969E+2   2.52788E+1
   1.22092E+1   2.19156E+2
   9.47946E+1  -1.33931E+2
  -1.77196E+2   5.04280E+1
  -8.71255E+1  -1.88826E+2
  -2.67067E+1  -8.97547E+1
   4.79812E+1  -2.00828E+2
   5.49913E+1   1.33979E+2
  -1.80073E+2   2.77654E+2
  -1.65342E+1   1.81176E+2
  -2.64727E+2  -1.72789E+2
   9.09770E+0  -9.40745E+1
  -3.48152E+1   6.13897E+1
   2.08640E+2  -1.27474E+2
   8.61152E+1  -1.83356E+2
   7.29748E+1   4.18152E+1
  -1.21310E+2   1.31484E+2
  -2.70987E+2  -1.95332E+2
   3.72458E+1  -1.81244E+2
   1.43879E+2  -2.51792E+2
   1.07469E+2   1.07748E+1
   8.48267E+1   1.40879E+2
  -1.60577E+2   5.51204E+1
  -6.23374E+1  -9.07237E+1
   2.05692E+2   1.03997E+2
   1.28739E+2  -1.33247E+2
   2.44046E+2   5.64488E+1
  -3.06262E+2   4.77682E+1
   9.29101E+0  -1.43242E+2
  -2.07502E+2   1.25119E+2
  -4.96857E+1  -1.73603E+2
  -1.05347E+2  -6.44306E+1
   5.28928E+1  -8.41993E+1
  -1.04744E+2   1.38861E+2
  -1.09355E+1  -1.37393E+0
  -7.80596E+1   2.13260E+2
  -2.35511E+1   1.66956E+2
  -3.80344E+1   1.79975E+2
   1.72291E+2  -3.45048E+1
   7.97958E+1  -3.96705E+1
  -8.88977E+1   7.25467E+1
   6.58040E+1   2.00642E+2
   1.78293E+2  -9.54181E+1
  -5.21646E+1   5.85422E+0
  -1.14052E+1   2.61244E+2
  -2.78462E+1   1.99180E+2
  -9.95614E+1   9.56067E+1
   4.51427E+1  -1.02568E+2
   1.43401E+2  -1.13876E+2
  -7.33051E+0   1.40947E+2
   1.08116E+2   2.26066E+2
   1.68820E+2  -2.85364E+1
  -7.25956E+1   4.02794E+1
   7.86536E+1  -5.09596E+1
  -5.73552E-1   5.93557E+1
  -1.48775E+2   6.28602E+1
  -2.41975E+2  -2.91510E+2
   3.94524E+2  -3.00409E+2
   1.68146E+2  -2.17464E+1
   3.43393E+1   1.82679E+2
  -1.04805E+2   1.23582E+2
   8.24686E+1   2.14863E+2
   1.54512E+2   4.35926E+1
   8.24779E+1   9.71877E+1
  -2.68290E+2  -4.73796E+1
  -2.04099E+2  -7.91112E+1
   1.30525E+2   4.21299E+1
   6.05951E+1   1.00782E+2
   3.79817E+1   1.22414E+2
   6.68687E+1   9.36221E+1
  -7.87401E+1   1.12799E+1
  -1.53682E+0   5.53175E+1
  -7.38510E+1  -4.20878E+1
   3.51462E+1  -5.72444E+1
  -6.68053E+1   2.72456E+1
   1.86527E+2  -5.79784E+1
   1.06457E+2   1.30268E+2
   1.70087E+2   2.56998E+2
  -5.70983E+1   8.97363E+1
   4.74063E+1  -6.40182E+0
  -1.01712E+2  -2.78488E+1
   6.46426E+1   2.33048E+2
   1.58486E+2   1.47169E+2
  -1.34574E+2  -8.61475E+1
  -6.09727E+1  -1.07378E+2
  -1.40892E+2  -2.12805E+2
  -3.29899E+0  -2.02945E+2
