 
 $NMID
 ID=''
 FMTDAT='(2E13.5)'
 TRAMP=   1.00000E+0
 VOLUME=   1.00000E+0
 $END
  -8.08372E+3   1.52648E+4
   2.00147E+3   3.25549E+4
   3.01700E+4   7.01687E+3
   1.43106E+4  -2.90095E+4
  -2.48018E+4  -1.80039E+4
  -2.59466E+4   1.49975E+4
   4.95547E+3   2.05185E+4
   2.14083E+4   2.06238E+2
   9.81099E+3  -1.79575E+4
  -9.72720E+3  -1.43427E+4
  -1.46910E+4   5.75424E+3
  -9.40570E+2   1.51511E+4
   1.28243E+4   3.71908E+3
   9.85025E+3  -7.62747E+3
  -4.83053E+3  -7.34101E+3
  -1.15871E+4  -7.47864E+2
  -2.84486E+3   6.88993E+3
   8.29342E+3   7.69518E+3
   7.15426E+3  -1.71947E+3
  -1.52128E+3  -8.04814E+3
  -7.54167E+3  -2.14880E+3
  -5.15675E+3   6.10161E+3
   2.91091E+3   5.32541E+3
   6.51844E+3  -1.79655E+3
  -2.50709E+2  -5.49256E+3
  -6.19740E+3  -2.99061E+3
  -2.08455E+3   2.25410E+3
   3.64705E+3   4.19320E+3
   3.21578E+3   2.28306E+2
  -4.68687E+2  -3.62190E+3
  -2.06789E+3  -1.93946E+3
  -4.05061E+2   2.34641E+3
   2.17786E+3   2.42397E+3
   1.01558E+3   2.78839E+2
  -1.73558E+3  -5.79964E+2
  -1.83493E+3  -6.35222E+2
   1.26774E+3  -2.97458E+2
   1.48070E+3   3.00591E+2
  -5.63421E+2  -1.89295E+2
  -8.79100E+2  -2.32894E+2
   5.48064E+2   1.03172E+3
   4.74745E+2   7.78494E+2
  -8.96808E+2  -1.12453E+3
  -1.35702E+3  -1.22989E+3
  -8.34416E+2  -6.36449E+0
   6.27634E+2  -1.31856E+1
   1.95891E+3  -7.94851E+2
   1.32930E+3   1.03819E+2
  -1.00038E+3   6.86122E+2
  -1.18335E+3   2.57953E+2
   2.59709E+2   1.52910E+2
   5.70318E+2   2.74932E+2
  -3.66415E+2  -5.01217E+2
  -6.28476E+2  -7.30034E+2
  -9.12250E+1  -5.70132E+2
   1.88903E+2   3.04883E+2
   3.55248E+2   7.71761E+2
   3.62972E+2   5.31916E+2
  -5.53704E+2  -3.85765E+2
  -9.38297E+2  -8.64293E+2
  -7.94266E+2  -3.69127E+2
   1.36663E+2  -1.07631E+2
   7.39069E+2  -2.81576E+2
   8.71604E+2  -3.85231E+2
   3.97952E+2  -4.59797E+1
  -1.54709E+2   1.12870E+3
  -5.19661E+2   1.26633E+3
  -4.42276E+2   4.86946E+2
  -9.44368E+1  -1.07209E+3
   1.83534E+2  -9.28994E+2
  -1.41972E+2   5.49857E+2
  -9.37029E+2   7.82519E+2
  -4.70039E+2  -4.37104E+2
   3.45951E+2  -9.10151E+2
   4.45755E+2   8.69970E+0
  -1.23609E+2   5.01108E+2
  -1.85287E+2   1.41633E+2
   2.40430E+2  -3.32400E+2
   4.43358E+2  -7.11998E+1
   1.37145E+2   1.67123E+2
   1.06401E+2   2.41023E+2
  -1.37091E+2  -1.78519E+1
  -3.61176E+2   1.75177E+2
  -5.74961E+0   3.24655E+2
   3.79255E+2   4.01178E+2
  -6.50377E+1   5.14928E+1
  -7.01194E+2  -4.79662E+2
  -5.51730E+2  -1.71966E+2
   2.61783E+2   2.91275E+2
   2.60263E+2   4.46008E+2
  -2.77545E+2  -2.74366E+2
  -3.64218E+2  -6.85771E+2
  -2.98777E+1  -2.18707E+2
   6.59862E+2   5.09762E+2
   5.75466E+2   6.49843E+2
  -1.79858E+2   3.63225E+2
  -4.46416E+2  -4.95271E+2
  -1.97166E+2  -1.91260E+2
  -1.70714E+2   8.34774E+2
  -7.97313E+1   1.88356E+2
   4.63712E+1  -4.40347E+2
   2.08248E+2  -6.66194E+2
   2.26774E+2   2.11786E+2
  -2.09370E+1   7.91964E+2
  -5.12858E+2   7.18005E+2
  -4.58263E+2  -3.98226E+2
   2.12931E-1  -6.94122E+2
   5.95199E+2  -4.41324E+0
   2.89238E+2   6.16439E+2
  -2.17581E+2   7.50983E+2
  -3.87992E+2  -7.70923E+1
  -1.52423E+2  -4.47086E+2
  -6.27406E+1  -4.03609E+2
  -1.50355E+2  -1.03447E+1
  -3.75664E+1   1.41741E+2
   1.44456E+2  -7.45603E+1
   4.82563E+2  -2.93055E+2
   3.95333E+2   1.89839E+2
  -1.69194E+2   4.32777E+2
  -4.40670E+2   4.15853E+2
   2.10555E+1   2.80983E+2
   4.72370E+1  -7.37896E+0
  -2.69299E+2  -1.28494E+2
  -3.23050E+2  -8.83434E+1
   8.28056E+1  -2.20258E+2
   3.56807E+2   7.57058E+1
   3.84090E+2   1.95468E+2
   1.51739E+2   1.14512E+2
  -1.87582E+2   9.57810E+1
  -1.12242E+2  -4.69197E+1
   1.36307E+2  -1.18481E+2
   4.16399E+2  -1.90507E+2
   4.81721E+2   1.78492E+2
   7.36627E+1   1.97829E+2
   5.77570E+1   1.60621E+2
   8.57456E+1   1.60215E+2
  -1.51121E+1   2.84216E+2
  -3.93759E+2   1.54314E+2
  -2.66911E+2  -2.48414E+2
  -3.76332E+1  -1.56740E+2
   4.18518E+2  -1.43763E+1
   1.73940E+2   7.28386E+2
  -3.28061E+2   2.99517E+2
  -5.89341E+1  -1.55250E+2
   6.94719E+1  -1.82675E+2
   3.36107E+2  -2.39399E+2
   9.02678E+1   1.93523E+2
   1.07803E+2  -7.56702E+1
   3.57696E+2  -2.85446E+2
   2.16965E+2  -2.29271E+2
   6.09821E+1   1.64956E+2
   1.03688E+2   4.44474E+1
  -1.94552E+2   1.30202E+2
  -1.44161E+2  -2.42409E+2
  -1.57773E+2  -4.50729E+2
   8.33483E+1   1.02967E+2
  -7.94328E+1  -1.03345E+2
  -7.38743E+1  -5.88037E+1
   1.19167E+2  -4.70624E+2
  -2.90655E+2  -4.59008E+2
  -3.12521E+0  -6.03756E+1
  -4.41072E+1  -1.23894E+1
  -1.73286E+2  -1.74394E+2
   1.79330E+2  -2.41660E+2
   4.25302E+2  -6.64574E+1
   8.91306E+0   2.69747E+2
  -3.48958E+2   2.70309E+1
  -2.34273E+2  -3.35571E+2
   1.83524E+2  -1.08509E+2
   1.54675E+2   5.49053E+1
  -3.31785E+2   7.63156E+0
  -1.50430E+2  -2.40906E+2
  -1.23761E+2  -1.90096E+2
  -6.08149E+1  -2.57035E+2
   1.54167E+2   9.29505E+0
  -2.27366E+2   1.05750E+2
  -3.86942E+2  -1.94541E+2
  -1.02794E+2  -3.30751E+2
   2.63382E+2   2.08114E+1
   1.76675E+2   2.02673E+2
  -5.06595E+2  -1.62729E+2
  -2.17609E+2  -1.59428E+2
  -1.33900E+2  -1.82457E+2
  -7.43532E+1   1.76882E+2
  -1.65563E+2  -1.46163E+2
  -1.69885E+2  -1.66412E+2
  -3.87620E+1  -2.37089E+2
   5.98251E+1   1.53077E+2
   1.50755E+2   3.55024E+2
  -3.91944E+2   2.52938E+2
  -3.71353E+2  -7.84530E+1
  -5.07098E+2  -3.75493E+2
  -1.33231E+2  -3.66874E+2
   1.37449E+2  -6.70940E+1
   1.29068E+1   8.78992E+1
  -7.18632E+1  -1.31813E+2
  -9.88342E+1   1.82942E+2
  -2.34488E+2   4.88989E+1
  -1.58628E+2   1.19299E+1
  -2.03284E+2  -1.24273E+2
  -1.57351E+2   7.31014E+1
   1.20446E+2  -1.57763E+2
   2.83767E+1  -8.15967E+1
  -1.46442E+1   1.46183E+2
  -3.01778E+2   1.22813E+2
  -2.61729E+2   1.03722E+2
   4.73717E+1  -1.83441E+2
  -1.14379E+2   2.75713E+2
   9.29022E+1  -9.73973E+1
  -4.46388E+1   3.78825E+1
  -7.92490E+1  -3.98980E+1
   1.28946E+2   8.52607E+0
   2.95718E+1   1.26609E+2
   5.37831E+0   1.79549E+1
  -1.49010E+2  -5.32415E+1
   2.90887E+1  -1.98988E+2
   2.59185E+2  -1.65559E+0
   1.38838E+2   2.44677E+2
   5.14231E+1   3.76411E+1
   1.12207E+2  -1.52555E+1
  -4.19546E+1  -1.82791E+1
   5.29663E+1   2.69684E+1
   3.11364E+1   4.87365E+1
  -1.59042E+2  -7.97060E+1
   1.91409E+1  -3.79979E+1
   1.39747E+2  -3.07310E+2
   1.22277E+2   1.30731E+2
  -1.30750E+2  -5.00614E+0
  -3.86146E+2  -1.31425E+2
  -5.67118E+1  -4.28508E+1
   8.06857E+1   8.51717E+1
   8.62378E+1  -1.59882E+2
   7.57649E+1   1.60374E+2
  -4.37681E+0  -2.26431E+2
  -8.70032E+1  -7.33533E+1
   9.36552E+1  -1.63199E+0
  -8.92155E+1  -6.01602E+1
  -2.09505E+1   3.73791E+1
  -1.43441E+2   2.48284E+0
  -8.42480E+1   2.23787E+1
   1.83830E+2  -1.72089E+2
   1.44893E+2  -2.61686E+1
  -1.59987E+2  -1.89892E+2
   3.88625E+1  -1.84107E+2
  -6.29306E+1  -1.55631E+2
  -6.39718E+1   1.16290E+2
  -1.91351E+1  -2.83853E+1
  -7.44710E+1  -3.44292E+2
   3.09332E+1  -2.39153E+2
   1.83273E+2   1.60766E+2
  -4.25025E+1  -1.13471E+2
  -1.09608E+2  -1.43684E+1
  -2.46105E+2  -2.05431E+2
   9.77272E+1  -2.46233E+2
   2.21945E+2  -1.78167E+2
   7.90868E+0   7.00757E+1
  -2.77385E+2  -6.19728E+1
  -1.75644E+2  -1.51383E+2
  -3.25524E+1  -1.12311E+2
  -1.00544E+2   1.15994E+2
  -2.42488E+2   2.82310E+1
  -1.66226E+2  -1.95018E+2
   1.32630E+1  -1.05627E+2
   1.57920E+2  -2.16901E+0
  -2.06899E+2  -1.91955E+1
  -1.93047E+2   6.79394E+0
  -2.69581E+2   1.74938E+2
  -8.20452E+1  -7.09052E+0
  -5.05642E+1  -1.49709E+2
   1.11672E+1  -1.31380E+2
  -2.31539E+1  -1.65782E+2
  -1.45104E+2   8.05354E+0
  -9.60379E+1  -1.30294E+2
  -1.75093E+1  -1.17145E+2
   1.14687E+2   8.60021E+1
  -3.99473E+2   1.76646E+1
  -3.40663E+1  -8.84290E+1
   1.17495E+2  -6.91568E+1
  -4.02430E+1   1.16172E+2
  -5.95797E+1  -5.99875E+1
  -2.45897E+2   5.38324E+1
  -1.20238E+2  -1.34740E+2
   3.13787E+2  -2.07417E+2
  -2.56507E+2   1.01791E+2
  -1.60976E+2  -7.83467E+1
  -2.01870E+2  -1.38446E+2
  -7.12892E+1   1.18578E+1
   4.16812E+2   3.13666E+1
   1.83696E+2   1.41576E+2
   2.59497E+2   6.26702E+1
  -1.40502E+2   1.66501E+2
   4.44031E+1   1.16016E+1
  -2.62402E+1  -2.46092E+2
  -1.12316E+2   1.08990E+2
  -4.80287E+1   1.07728E+1
   7.48301E+1   2.05897E+1
  -1.25891E+2   1.26837E+2
  -9.15631E+1   1.94845E+2
  -2.17289E+2   1.70715E+2
  -3.09521E+2  -2.17954E+1
   1.88262E+0  -1.86480E+2
   2.48180E+2   3.29172E+2
   3.12541E+2   4.89036E+1
  -1.11147E+2   2.33454E+2
  -3.68436E+1   1.12181E+2
   2.85892E+2  -3.46506E+1
   7.94306E+1   1.79016E+2
   8.89155E+1  -4.97553E+1
   1.39339E+2   2.78275E+1
  -1.29624E+2   7.31340E+1
   9.98314E+1   3.59818E+1
  -9.00553E+1   1.22237E+2
  -8.11067E+1   1.20736E+2
  -2.44551E+2   8.77668E+1
   9.42271E+1  -1.04430E+2
   1.55165E+1   2.59781E+1
   5.07390E+1   1.32640E+2
  -1.27894E+1   1.12327E+2
   1.52249E+1  -7.14217E+1
   1.98997E+1  -3.60147E+1
   5.51186E+1   3.04437E+1
  -8.67507E+0   1.55660E+2
  -1.98993E+2  -4.29006E+1
  -1.12450E+2  -6.11118E+1
   8.13109E+1   1.90085E+2
  -4.23272E+1   2.00062E+2
  -1.19564E+2   3.13774E+2
  -1.12093E+2  -1.12108E+2
  -1.72307E+2   1.46855E+2
  -3.59104E+1  -1.76782E+1
   2.49097E+2   6.38308E+1
   7.68324E+0   2.43548E+2
  -1.24059E+2   1.44652E+2
  -8.96658E+0  -2.14014E+2
   1.24442E+2   2.34928E+2
  -2.15904E+1   2.16771E+2
  -1.35540E+2   1.01097E+2
  -8.08558E+1   1.36472E+2
  -3.11093E+1   9.17748E+1
   1.82414E+2   1.13094E+2
  -9.53850E+1   3.51757E+0
   4.09897E+1  -1.14640E+2
  -1.13690E+2   1.08383E+2
   1.33852E+1   2.36255E+0
   2.14786E+2  -1.39587E+1
  -1.08781E+2   2.47562E+1
   7.18043E+1  -2.11776E+2
   1.59786E+2  -1.30745E+2
   9.64368E+1   1.21680E+2
   1.67665E+2   1.78365E+2
   2.72908E+1   2.69365E+2
   5.27218E+1   3.77519E+1
   1.14807E+2  -1.65102E+2
   6.97201E-1  -4.86348E+1
   1.63754E+2  -5.70900E+1
   6.83431E+1   1.22717E+2
   1.84588E+2  -2.27876E+2
   1.50130E+2   2.22432E+2
   1.25897E+2   3.87056E+1
   1.43502E+2   6.45490E+1
   3.34909E+0   1.50831E+2
   1.49005E+1  -1.36594E+2
   2.39908E+1   1.34625E+2
   3.41706E+1  -1.19003E+2
  -2.54938E+1   9.36570E+1
   5.48763E+1  -1.52053E+2
   1.12455E+2  -2.06816E+2
