 
 $NMID
 ID=''
 FMTDAT='(2E13.5)'
 TRAMP=   1.00000E+0
 VOLUME=   1.00000E+0
 $END
  -1.69447E+4  -2.00277E+4
  -2.69271E+4   4.84759E+3
   9.46211E+3   2.36786E+4
   2.50067E+4  -8.80629E+3
  -1.58483E+4  -1.48041E+4
  -1.29418E+4   1.50767E+4
   2.13373E+4   3.69191E+3
   2.55912E+3  -1.56347E+4
  -1.46270E+4   6.58331E+3
   9.46486E+3   1.23641E+4
   5.97553E+3  -8.11507E+3
  -1.31300E+4  -2.31926E+3
  -6.46592E+2   8.98177E+3
   6.38892E+3  -4.90701E+2
  -5.49311E+3  -3.54080E+3
  -2.26449E+3   1.41550E+3
   4.70499E+3  -8.80147E+2
  -5.26082E+2  -4.13777E+2
  -9.70953E+2   2.01891E+3
   1.92942E+3  -5.82465E+2
  -7.27230E+2  -2.05139E+3
  -9.97382E+2  -4.98802E+2
   2.25523E+3   8.43337E+2
   2.54369E+2   1.45125E+3
  -2.25816E+3  -2.71760E+2
   1.14866E+3  -1.55886E+3
   3.06588E+3   1.37064E+3
  -1.20516E+3   1.94655E+3
  -2.43688E+3  -9.42082E+2
   2.11101E+3  -1.17904E+3
   1.85299E+3   1.14002E+3
  -2.30842E+3   1.34396E+3
  -1.67859E+3  -5.96841E+2
   3.03221E+2  -1.91357E+3
  -7.66463E+2  -1.60856E+3
   6.80657E+2  -9.45082E+2
   2.41680E+3   1.23346E+2
   2.72093E+2   9.52856E+2
  -7.54028E+2   8.12928E+2
   2.38634E+2  -2.95642E+2
  -5.97482E+2  -5.50748E+2
  -1.25649E+3  -6.99710E+1
   2.57123E+2  -9.43613E+2
   1.42612E+3  -1.56019E+3
   1.34890E+3  -6.51218E+2
   1.14674E+3   1.52166E+3
  -3.93547E+2   1.77969E+3
  -2.23445E+3   6.73606E+1
  -1.84794E+3  -1.07149E+3
  -2.49290E+2  -7.78969E+2
  -2.57599E+1  -1.09724E+3
  -6.53860E+2  -1.23095E+3
   4.21286E+2  -2.02298E+2
   1.16370E+3   4.17101E+2
   3.80609E+2   1.69074E+2
  -4.45805E+2   2.09514E+2
  -4.49824E+2   3.45157E+2
  -9.75634E+2  -9.55380E+2
  -1.04187E+2  -1.44412E+3
   1.37951E+3  -6.89656E+2
   9.98975E+2   2.84759E+2
   1.70040E+2   2.70578E+2
   2.33758E+2   1.24818E+3
  -3.16711E+2   1.39862E+3
  -1.51662E+3   5.92049E+2
  -1.54190E+3  -7.33036E+2
  -2.04039E+2  -1.56086E+3
   6.66225E+2  -1.41047E+3
   8.68641E+2  -3.08940E+2
   3.88388E+2   4.67697E+2
  -2.61537E+2  -1.26912E+2
   1.07583E+2  -1.04562E+3
   9.22667E+2  -2.27063E+2
   6.08203E+2   8.05070E+2
  -3.32420E+2   4.96579E+2
  -3.92110E+2  -1.66760E+1
   5.66329E+1  -2.28276E+2
   1.75197E+2   3.02701E+2
  -1.15195E+2   6.86955E+2
  -4.04534E+2   3.26729E+2
  -6.35098E+2  -3.87206E+2
  -4.60295E+2  -3.65417E+2
  -7.76733E+0  -3.12785E+2
  -2.94662E+2  -2.76727E+1
  -2.15626E+2  -1.94340E+2
   1.68214E+2  -4.69137E+2
   5.39236E+2  -4.53950E+2
   1.38706E+2   3.13650E+2
  -1.47406E+2   3.45877E+2
   4.90132E+2   1.67070E+2
   6.38277E+2  -1.96441E+2
   2.30753E+2   5.07972E+2
  -4.45739E+2   7.76460E+2
  -1.14339E+3   5.11450E+2
  -6.91457E+2  -5.84003E+2
   1.08353E+2  -4.74648E+2
   4.01266E+2  -1.51773E+2
  -1.17384E+2  -2.13166E+1
  -1.49204E+2  -2.97910E+2
   4.98004E+2  -1.38213E+2
   7.29431E+2   2.32805E+2
  -7.81421E+1   7.18002E+2
  -5.23750E+2   4.13429E+2
  -2.77833E+2  -9.91459E+1
  -3.72727E+1  -3.20638E+2
   7.49744E+2   3.48466E+2
   4.83425E+2   7.03757E+2
  -4.63730E+2   6.21070E+2
  -1.19235E+3  -4.47407E+2
   1.45906E+2  -6.80313E+2
   1.31628E+3  -3.12442E+2
   7.34620E+2   5.54703E+2
  -2.37486E+2   7.90660E+2
  -4.37070E+1   3.25618E+2
   3.55502E+2   2.34418E+2
   6.83135E+1   8.28817E+2
  -6.00513E+2   4.62823E+2
  -5.33984E+2  -2.54591E+2
   1.87114E+1  -8.57378E+2
   4.03998E+2  -4.70084E+2
   8.66057E+2  -1.39587E+2
   6.53861E+2   2.44412E+2
   4.64448E+2   3.63179E+2
   3.19713E+2   4.35997E+2
  -6.11883E+1   4.08915E+2
  -1.26026E+2  -1.46995E+2
   2.08036E+2  -2.67767E+2
   2.29455E+2  -1.84698E+2
   4.23290E+2  -8.86293E+1
   4.16016E+2   1.76573E+2
   7.17773E+1   4.15550E+2
  -3.67847E+2   6.36028E+1
  -1.59806E+2  -3.58398E+2
   2.18928E+2  -2.93173E+2
   4.29772E+1   1.62855E+2
   9.27657E+1  -1.27996E+2
   2.35898E+2  -2.89024E+2
   6.27208E+2  -9.21577E-1
   5.92297E+2   5.46638E+2
  -2.29794E+2   3.91902E+2
  -1.42241E+2  -2.87355E+2
   3.19523E+1  -4.62925E+2
   4.61820E+2  -4.77849E+2
   5.17790E+2   1.29109E+2
  -1.15298E+2   5.44275E+2
  -2.81092E+2   4.90720E+2
  -1.85490E+1  -2.11039E+2
  -3.11632E+2   1.15690E+2
  -5.71738E+1  -2.13356E+1
  -3.95794E+2  -1.92377E+2
   5.30453E+1  -3.91376E+2
   8.52788E+1  -3.38132E+2
   5.60882E+2  -2.15840E+2
   1.64476E+2   4.08369E+2
  -1.62689E+2   2.30719E+2
   3.54873E+1  -2.15861E+2
   2.89177E+2  -1.68185E+2
  -7.23265E+1   1.96697E+2
  -2.16238E+2   4.51790E+2
  -1.36486E+2  -2.87248E+1
   9.57357E+1   1.02279E+2
  -2.39987E+2   6.15851E+0
  -2.99687E+2   1.59887E+2
  -2.49668E+2  -2.76370E+2
   8.74688E+1  -2.99447E+2
   1.33486E+2  -1.75667E+2
   1.47096E+2   1.61108E+2
  -5.97647E+0   2.22802E+2
   1.55760E+2   1.46508E+2
  -5.43905E+1  -8.77494E+1
   1.00246E+2   4.24075E+1
   2.52028E+2   2.22510E+2
  -8.37278E+1   2.19035E+2
  -2.17058E+2   1.14132E+2
   4.31572E+1  -1.00503E+2
  -1.11872E+2   2.75931E+2
   5.81085E+1   3.86030E+2
  -5.51715E+2   1.02195E+2
  -2.99520E+2  -5.17294E+2
   1.58212E+2  -2.16791E+2
   3.25443E+2   3.83990E+2
  -9.88893E+1   4.17246E+2
  -4.27524E+2   1.29892E+2
  -3.15274E+1  -1.07893E+2
  -6.87469E+0  -1.13803E+2
  -2.02127E+2   2.86937E+1
  -2.41525E+1  -3.20859E+2
   1.09082E+2  -1.98355E+2
   4.74916E+2  -1.50032E+2
   3.55338E+2   3.20000E+2
   5.73250E+1   4.10609E+2
  -3.14137E+2   2.73791E+1
  -2.14185E+2  -2.16615E+2
  -2.00778E+2  -2.13567E+2
   1.56860E+2  -2.66609E+2
   9.56934E+1  -6.65614E+1
   4.17721E+1   8.93894E+1
  -4.52927E+1  -1.84633E+1
  -1.11202E+2  -1.19593E+2
   3.41711E+0   4.87831E+1
  -3.54862E+2   2.32570E+2
  -8.98065E+1  -1.07613E+2
   1.43891E+2  -3.72986E+2
  -9.51043E+0  -1.19424E+2
  -4.58283E+1   1.81846E+2
  -9.87507E+1   2.84901E+2
  -2.51084E+1   6.43543E+1
  -1.04716E+2   2.01456E+2
  -1.49997E+1   1.98912E+2
  -1.58855E+1  -6.13215E+1
  -3.29975E+0  -2.25642E+2
   6.95292E+1  -5.94917E+1
   2.09913E+2   3.99066E+0
   1.70241E+2   3.08817E+2
   2.31348E+1   4.93870E+2
  -5.16780E+2  -2.36735E+2
  -1.08117E+2  -3.04740E+2
   4.48876E+1  -2.35298E+2
  -6.60805E+1   8.67534E+1
   1.84892E+2  -1.52770E+2
   1.38133E+2  -1.63559E+2
   2.06076E+1  -3.34390E+1
  -5.26679E+1  -1.41100E+2
  -3.79482E+1   3.36147E+2
  -3.39679E+2  -1.20021E+2
   4.35381E+1  -3.62519E+2
   1.87269E+2   1.98218E+1
   1.81540E+2   1.93433E+2
   5.63399E+1   2.48234E+2
  -1.36407E+2  -6.54409E+1
   1.12006E+1  -2.36133E+2
   8.53724E+1   1.07967E+2
  -1.59854E+1   1.73365E+2
  -3.85243E+1  -1.62616E+1
  -2.76913E+2  -1.54947E+2
  -1.69460E+2  -8.19236E+1
  -7.98987E+1  -8.62359E+1
   1.53753E+1   1.85385E+2
  -1.66672E+2  -1.22450E+1
   1.39361E+1  -9.93855E+1
   6.72011E+1   9.38684E+1
  -3.45852E+1  -3.62345E+1
   1.86906E+2   1.50974E+1
  -2.70877E+2  -1.20820E+2
  -2.82091E+2  -5.18087E+1
   9.04098E+1  -1.08090E+2
  -1.33182E+2  -3.36003E+0
  -1.83144E+2   3.48802E+1
  -2.19958E+2  -1.35365E+2
  -6.75852E+1  -8.24683E+1
  -3.66946E+0   2.01047E+2
  -1.67156E+2  -9.59464E+1
  -1.18378E+2  -1.54609E+2
  -2.41867E+2  -3.07761E+2
   1.86321E+2  -1.63715E+2
   3.04451E+2  -2.70258E+2
  -1.90945E+1  -1.04092E+2
  -1.57714E+2  -1.20291E+2
  -7.80263E+1  -4.55594E+1
  -5.02462E+1   8.40135E+1
  -1.38642E+2   5.58525E+1
  -1.68871E+2  -6.32401E+1
  -1.73285E+2  -2.05382E+2
   3.74621E+2  -2.50716E+2
   2.20309E+2  -1.83784E+2
  -7.71717E+1   3.14913E+2
  -3.38799E+2   8.57768E+1
  -2.54697E+2  -6.00662E+1
  -8.11117E+1  -2.92255E+2
  -1.87990E+2  -7.79978E+1
  -6.11527E+1   8.37777E+1
   1.52551E+2  -2.75649E+2
   1.27720E+2  -1.82247E+2
   1.33223E+2   7.89392E-1
   7.60424E+1  -1.48076E+2
  -4.91118E+2   6.33478E+1
  -2.29171E+2  -2.36881E+2
  -2.55558E+1  -3.37037E+2
   3.95689E+1  -2.70494E+2
   4.55910E+1  -2.38780E+2
  -2.12197E+2  -3.12925E+1
   2.37732E+1   5.95243E+1
  -3.28772E+0  -2.82951E+2
  -3.88014E+1  -1.19161E+1
  -5.50774E+1   2.86970E+0
  -3.35060E+2   1.59321E+1
   8.37289E+1  -3.11581E+2
   2.35035E+2  -2.36122E+2
   2.13133E+2   8.18946E+1
   6.88298E+1   1.47496E+2
  -1.16122E+1  -4.54550E+1
  -2.01263E+2   1.72492E+2
  -2.62683E+2  -4.08500E+1
  -1.18240E+2   3.42110E+1
  -2.26094E+2  -1.14030E+2
  -1.02550E+2  -5.55170E+1
  -1.56590E+2  -6.82742E+1
  -5.38645E+1   1.36243E+1
  -2.16719E+2   1.91299E+2
  -1.62942E+2  -6.85659E+1
  -2.72047E+1  -1.71773E+2
  -1.15032E+2  -3.21585E+2
  -1.20592E+2  -1.52797E+2
  -1.46739E+2  -1.45171E+1
  -8.72255E+1  -4.95819E+1
  -1.99063E+2  -3.70183E+2
  -2.24922E+2  -1.53685E+2
   1.93946E+1  -3.12654E+2
   3.11147E+0   4.18423E+1
  -6.93060E+1  -5.34089E+1
  -6.61410E+1  -3.64392E+1
  -3.99465E+1   8.71167E+0
   1.27177E+1   1.26217E+2
   9.57483E+0  -9.60617E+1
  -2.62753E+2  -1.17310E+2
  -2.36928E+2  -6.84282E+1
  -6.57172E+1  -1.05948E+2
  -7.79387E+1   8.53815E+0
  -4.05314E+2   7.43932E+1
  -1.11821E+2  -1.71228E+2
  -1.54832E+2  -2.19628E+2
  -1.44331E+2   3.96352E+1
  -2.78124E+2  -2.62182E+2
  -5.64606E+1  -1.58997E+2
  -3.02982E+1  -1.86191E+2
  -1.54596E+2   4.23248E+1
   3.31714E+1   1.01511E+2
  -1.63428E+2   4.09499E+0
  -9.54575E+1  -1.81871E+2
  -5.80906E+1  -3.20588E+2
   1.25655E+2   1.03847E+2
   8.30704E+1   1.21998E+2
  -2.09060E+2  -2.36638E+2
   1.41012E+2  -5.81878E+1
   2.77318E+1   1.04714E+2
  -1.33639E+2   1.54338E+2
  -5.23126E+1   6.15751E+1
  -2.18330E+2  -4.15254E+1
  -1.18705E+2  -1.27144E+2
   2.32915E+2   5.06581E+1
  -1.19759E+2  -1.65403E+2
   3.27420E+2   8.51415E+1
  -1.26650E+2  -9.56585E+1
  -1.63488E+2  -6.66887E+1
   1.58618E+2  -1.45326E+2
  -2.06355E+2   3.96415E+1
  -9.77336E+1  -3.27750E+2
   4.09718E+2  -7.14827E+1
   6.09783E+1  -1.06389E+2
   7.82630E+1   1.72217E+2
  -1.83990E+2   1.32691E+2
  -1.42455E+2  -2.18054E+2
   4.74663E+1  -1.53460E+2
  -3.08822E+1  -7.90785E+1
  -2.34463E+2   5.47413E-1
  -3.34754E+1   7.27417E+0
  -1.16291E+2  -1.02964E+2
  -2.84583E+1  -1.41739E+2
   4.48859E+1  -5.82820E+1
   1.31911E+2   4.68108E+1
  -2.18799E+2   8.82701E+1
  -3.56533E+2  -2.45671E+2
  -6.76972E+1  -1.68969E+2
   3.20467E+2  -1.47561E+2
   1.55627E+2   1.69676E+2
  -8.43791E+1  -1.28984E+2
   1.34194E+2  -6.54581E+1
