 
 $NMID
 ID=''
 FMTDAT='(2E13.5)'
 TRAMP=   1.00000E+0
 VOLUME=   1.00000E+0
 $END
  -1.71353E+4   1.93841E+2
  -3.60812E+4   8.42104E+3
  -9.17689E+3   3.39224E+4
   3.07441E+4   1.83015E+4
   2.52175E+4  -2.09744E+4
  -9.60032E+3  -3.40213E+4
  -2.73988E+4  -8.89296E+3
  -1.45519E+4   2.16739E+4
   1.46881E+4   2.34960E+4
   2.76792E+4  -2.67259E+3
   7.42982E+3  -2.09627E+4
  -1.70110E+4  -1.30810E+4
  -1.66418E+4   7.86299E+3
  -3.59239E+2   1.94345E+4
   1.25569E+4   9.34046E+3
   1.14903E+4  -1.05787E+4
  -2.68553E+3  -1.52501E+4
  -1.33748E+4  -1.73014E+3
  -9.11243E+3   9.70557E+3
   4.27103E+3   9.04213E+3
   1.04981E+4  -9.93173E+2
   4.91534E+3  -1.06528E+4
  -4.46501E+3  -7.79407E+3
  -8.10281E+3   3.49765E+3
  -1.83623E+3   8.23983E+3
   7.25434E+3   3.83549E+3
   8.29642E+3  -1.41948E+3
  -1.27300E+3  -4.71081E+3
  -7.93835E+3  -3.47896E+3
  -4.33962E+3   2.53683E+3
   2.57334E+3   6.02529E+3
   4.11215E+3   2.46718E+3
   1.99395E+3  -3.64876E+3
  -2.43072E+3  -5.57108E+3
  -4.09488E+3  -1.75928E+3
  -8.28874E+2   2.96809E+3
   2.94552E+3   3.50917E+3
   2.97697E+3   1.06511E+2
   1.10620E+3  -3.13816E+3
  -1.64640E+3  -2.01126E+3
  -3.01250E+3   1.27498E+3
  -1.06547E+3   2.23513E+3
   2.50453E+3   7.57205E+2
   2.43211E+3  -8.99830E+2
   1.63872E+2  -1.92724E+3
  -1.35350E+3  -5.99629E+2
  -1.40520E+3   1.95825E+3
  -1.16910E+3   1.94929E+3
   5.50152E+2  -3.20276E+2
   1.42178E+3  -2.09564E+3
   6.49133E+2  -1.39607E+3
  -8.31194E+2  -3.13315E+2
  -5.57173E+2   2.73608E+2
   6.14087E+2   1.27539E+3
   1.60396E+3   8.13987E+2
   5.44543E+2  -2.78838E+2
  -1.21747E+3  -1.18387E+3
  -1.25716E+3  -7.20181E+2
  -1.96265E+1   4.78420E+2
   9.71152E+2   1.39807E+3
   1.10759E+3   6.23987E+2
   1.77345E+2  -5.42169E+2
  -5.12801E+2  -4.78156E+2
  -1.82483E+3   2.63860E+2
  -1.57508E+3   6.64657E+2
  -2.10857E+1  -1.40367E+1
   1.37164E+3  -8.53240E+2
   1.03711E+3  -1.22122E+3
  -2.36344E+2  -2.58582E+2
  -9.52683E+2   6.58676E+2
  -6.12604E+2   9.49811E+2
   1.02401E+3   2.23295E+2
   1.38735E+3  -1.53677E+1
  -1.86863E+2  -4.11109E+2
  -1.21587E+3  -2.99247E+2
  -8.56478E+2   3.75883E+2
   6.55748E+1   8.89064E+2
   6.20040E+2   6.93796E+2
   3.48805E+2  -5.15426E+2
  -4.72839E+2  -8.70771E+2
  -8.53471E+2  -2.65333E+2
  -4.70316E+2   4.40769E+2
   3.29143E+2   8.12958E+2
   8.98697E+2   1.32442E+2
   2.76568E+2  -1.11434E+3
  -1.80194E+2  -6.15756E+2
  -3.23104E+2   3.43351E+2
  -3.69415E+2   9.10205E+2
   2.52441E+2   3.71792E+2
   8.07191E+2  -3.56972E+2
   2.46315E+2  -4.84613E+2
  -7.10286E+2   2.56512E+2
  -8.87659E+2   4.50631E+2
  -2.43788E+2   3.71380E+2
   7.48346E+2  -3.28437E+2
   5.75754E+2  -6.21101E+2
  -2.24943E+2  -5.58313E+2
  -8.64250E+2   9.37759E+1
  -1.01233E+2   7.20775E+2
   4.52645E+2   6.99557E+2
   5.74837E+2  -6.29165E+1
  -3.41728E+2  -3.32687E+2
  -7.96602E+2  -3.81685E+2
  -6.01317E+2  -1.25866E+1
   2.50530E+2   6.24280E+2
   5.81936E+2   6.74332E+2
   2.63550E+2   2.34760E+2
  -6.69847E+2  -1.11700E+3
  -5.09539E+2  -1.05233E+3
   1.06798E+2   5.46653E+2
   5.35577E+2   1.25517E+3
   2.15145E+2   3.49024E+2
   5.88476E+1  -4.85779E+2
  -3.21025E+2  -3.81190E+2
  -5.60063E+2   9.02689E+1
  -5.76281E+2   5.16846E+2
  -2.79618E+1   2.26489E+2
   3.62815E+2  -3.93241E+2
   2.95831E+2  -5.77038E+2
  -1.96318E+2  -9.12504E+1
  -2.65091E+2   4.16573E+2
   1.25523E+1   7.28212E+2
   1.34081E+2   3.46417E+2
   2.31414E+2  -1.66855E+2
  -2.02151E+2  -4.24275E+2
  -1.95191E+2   1.88439E+1
   4.94075E+1   2.18919E+2
   4.61846E+2   5.54336E+2
   5.33579E+2   1.14614E+2
   3.62532E+1   3.02141E+1
  -2.58531E+2  -3.30021E+2
  -1.00306E+2  -1.70402E+2
   2.04594E+2   2.43617E+2
   3.06249E+2   3.95417E+2
   2.47602E+2  -4.49690E+1
   2.37920E+2  -5.00836E+2
   1.11625E+2  -8.79184E+0
  -9.88906E+1   1.67241E+2
   3.31488E+1   1.70280E+2
  -3.09298E+2   3.16409E+1
   3.05075E+2  -5.67267E+2
   3.04800E+2   2.15675E+1
  -7.53320E+0   3.84945E+2
  -2.09105E+1   4.73141E+2
  -7.95733E+1   2.20536E+2
   1.68228E+2  -5.11948E+2
   4.81176E+1  -3.83026E+2
   6.08298E+1  -1.41549E+1
  -2.83394E+2  -8.04456E+1
   1.77857E+2  -7.07299E+1
   5.29183E+2   4.64031E+1
   4.44171E+2  -4.61729E+1
  -1.20361E+1   1.08761E+2
  -2.58522E+2   4.05393E+1
  -1.43858E+2   8.47062E+1
   2.15604E+2   5.31766E+1
   1.58489E+2   9.68970E+1
   6.26717E+1  -1.23241E+2
   4.59156E+1  -3.59934E+2
  -9.06190E+1  -3.37563E+2
  -3.35958E+2  -2.14148E+2
   1.12168E+2  -3.09079E+1
   1.69895E+2   1.11772E+1
   2.63940E+2  -9.83728E+1
   3.65173E+2  -3.68344E+2
   2.84478E+2   2.05549E+2
  -3.81618E+2   3.79876E+2
  -2.13250E+1   1.14292E+2
   2.10376E+2  -2.85967E+2
   3.81157E+2  -2.98914E+2
  -2.82105E+1   1.95552E+1
  -3.69786E+2  -1.19088E+2
  -2.05486E+2   1.04338E+2
   2.55200E+2  -1.09088E+2
   2.72011E+2   4.53704E+1
   2.07433E+1   4.09656E+1
  -3.49808E+2  -2.59495E+2
  -1.21066E+2  -1.45122E+2
  -6.60455E+1   3.01913E+2
   1.80746E+2   3.64736E+2
   2.73132E+1  -3.41404E+1
  -1.65456E+2  -2.85812E+1
  -5.67602E+1  -2.38675E+2
  -3.32941E+1  -7.00135E+0
  -6.36016E+1  -6.08947E+1
   1.90824E+1  -2.02230E+1
   1.01444E+2  -1.73110E+2
   2.00714E+2   1.26652E+1
   3.53120E+2   3.21872E+2
  -3.26911E+1   6.38181E+2
  -3.30359E+2   2.28321E+2
   1.20946E+2  -2.78706E+2
   2.55386E+1  -1.50174E+2
   7.12011E+1   1.04756E+2
  -6.60230E+1   4.17612E+2
   7.21372E+1   9.15274E+1
   3.06681E+1   1.80529E+2
  -3.37216E+1   3.41237E+1
  -1.17500E+2   1.69220E+1
  -2.16368E+2  -2.79595E+2
  -9.11775E+1  -4.04255E+1
   3.77031E+2   8.00342E+1
   2.20086E+2   1.02584E+2
   6.68762E+1   3.29653E+2
  -1.39859E+2  -1.70043E+1
  -1.10997E+2  -9.73404E+1
  -1.94459E+1  -1.16119E+2
   1.73076E+2   2.37066E+2
   2.26246E+2  -7.04258E+1
   1.04787E+1  -3.98502E+1
   1.02607E+1  -2.11891E+0
   1.69217E+2   3.09516E+1
   1.82619E+1   1.37413E+2
  -4.41959E+1  -3.64438E+1
  -1.86141E+2  -1.60422E+2
   5.05040E+1  -3.37938E+2
   2.54545E+2   6.19385E+1
   8.21542E+1   8.23101E+1
  -3.15453E+1   1.54290E+2
   8.43345E+1   7.65706E+1
   1.55499E+2   2.59150E+2
   1.73708E+2  -1.09256E+2
  -1.53658E+2   7.51595E+1
   4.94903E+1  -6.68455E+1
   1.14472E+2  -1.34886E+2
   3.11508E+2   1.03410E+2
   1.38352E+2   2.33884E+2
  -1.14320E+2   6.35975E+1
  -1.42330E+2  -4.98609E+1
   1.24746E+2  -3.72935E+2
   1.41558E+2   4.84425E+1
   4.00753E+1  -1.02440E+2
  -2.10329E+2  -7.42019E+1
   8.39738E+1  -2.36222E+2
   9.41599E+1   9.40916E+1
   2.08654E+2  -5.52349E+1
   6.01358E+1  -2.60734E+1
  -1.93792E+2  -1.75996E+2
   1.82266E+1  -7.60501E+1
   1.33542E+1  -1.31583E+2
  -3.50912E+1   2.54152E+2
  -6.62650E+1   6.96448E+1
  -1.39874E+2  -2.82103E+2
  -5.25621E+1  -6.51210E+1
   1.01788E+2  -1.96473E+2
  -4.47894E+1   2.38085E+2
  -8.77305E+1   9.20520E+1
  -7.62679E+1   1.35605E+2
   1.43937E+2  -1.02274E+2
   2.04516E+2   2.54741E+1
  -1.80731E+2   2.38402E+1
  -1.70551E+2   1.44590E+2
  -1.95712E+2  -2.17315E+2
  -1.13275E+2  -2.98472E+1
   3.84248E+2   5.55384E+1
  -8.63919E+1  -1.14121E+1
   6.04503E+1  -1.63419E+2
   3.49521E+1   9.10371E+1
  -9.31601E+1  -3.00845E+1
  -2.33814E+2   2.72612E+2
  -4.86547E+0   5.52025E+1
   1.69573E+2   1.09428E+1
   1.41834E+2   1.11491E+2
   2.44013E+2  -1.61166E+2
  -1.62049E+2   1.51713E+2
   6.53858E+1  -3.23220E+1
   1.97281E+2   8.23476E+1
  -3.63709E+1   1.39317E+2
   4.24607E+1  -2.39545E+2
  -4.27389E+1  -2.46762E+1
   1.36377E+2   4.70450E+1
  -1.72390E+2   6.12566E+1
   6.26532E+1  -3.26264E+1
   2.44254E+1   1.44705E+2
   4.47670E+1   7.07695E+1
   5.06668E+1  -1.11779E+2
   2.38355E+2   5.05814E+1
  -1.07131E+2   1.19862E+2
  -1.32227E+2   5.91549E+1
  -9.09271E+0   1.61681E+2
  -4.15663E+1  -1.22326E+2
   2.55012E+1   1.07004E+2
   1.45768E+2   6.11168E+1
  -1.65156E+0  -1.10772E+2
  -1.08590E+2   3.81336E+0
   2.46313E+2   5.91006E+1
   1.23910E+2   1.89045E+2
   2.96714E+1  -2.21582E+1
  -4.64598E+1   1.07256E+2
  -5.40925E+1  -2.16809E+2
  -1.47272E+1  -1.13328E+2
   2.13105E+2  -8.00670E+1
   3.85342E+1   7.26983E+1
  -4.75501E+1   1.08309E+2
   2.43808E+1  -3.95501E+1
  -6.66560E+1  -7.04188E+1
   1.77928E+1   3.32063E+2
  -6.32621E+1  -2.67149E+2
  -1.59082E+1   8.15761E+0
   5.56156E-1  -7.28666E+1
   1.89343E+2  -1.11678E+2
   9.48372E+1  -6.40828E+0
  -9.05285E+1  -5.75182E+1
   1.73369E+1   7.18334E-1
   3.75987E+2  -1.40393E+2
   3.27708E+2  -2.98667E+2
  -6.08399E+1   1.34076E+2
  -2.16150E+2  -6.91583E+1
  -9.62676E+1  -2.38652E+2
   1.75966E+1   5.83218E+1
  -2.75763E+2   1.48333E+2
  -1.44815E+2  -1.64758E+2
  -2.21167E+2   2.92246E+2
  -2.20400E+2  -8.73788E+1
   1.03334E+2  -1.25773E+1
   2.81155E+1  -3.73165E+0
  -1.43511E+2   3.36517E+1
  -1.02615E+2  -6.91994E+1
  -1.21473E+2  -2.98071E+1
  -3.11396E+0  -8.08014E+1
   1.49967E+2   6.05512E+1
  -5.84767E+1   1.65856E+2
   9.99780E+1  -1.01792E+2
   1.52848E+2  -2.41846E+2
  -2.08372E+2   1.60172E+1
  -3.16754E+2   2.33879E+1
  -1.22272E+2   1.56598E+1
   8.88227E+1  -1.39233E+2
   2.06398E+2   2.41488E+1
   1.12461E+2   3.20643E+1
  -5.80554E+1  -2.05319E+1
  -1.15204E+2  -6.33943E+1
  -1.68502E+2   5.19558E+1
   6.69142E+1   1.73376E+2
   7.90860E+1  -6.06239E+1
  -2.44030E+2  -7.59215E+1
  -8.96554E+1  -1.60544E+2
   2.17526E+2  -1.01176E+2
  -1.47126E+2  -4.44673E+1
   9.50429E+1   4.10360E+1
  -1.18030E+2   7.77690E+1
   8.07336E+1  -6.97135E+1
   5.99891E+0  -1.05959E+2
  -3.65183E+1   7.69968E+1
   1.35459E+2   1.25080E+2
  -1.11549E+2  -8.96158E-1
  -3.01982E+1   7.38306E+1
   1.60727E+2   2.29893E+2
   4.29209E+1   7.66139E+1
  -4.24077E+1   8.85879E+1
  -7.50810E+0  -2.20997E+2
  -1.59757E+2   1.28770E+2
   1.10225E+2  -7.91189E+1
   1.11657E+1  -7.64526E+1
   2.92414E+1   1.48832E+1
   6.78168E+1   1.75575E+1
  -8.83525E+1  -1.37320E+2
  -3.66781E+2  -5.86683E+1
  -1.12468E+2  -1.22894E+2
   1.43607E+1  -9.78949E+1
   1.83637E+2  -8.42524E+1
  -1.09189E+2   4.72198E+1
   1.25789E+2  -2.25229E+2
  -1.09590E+2   1.41571E+2
  -1.10571E+2  -6.73224E+1
   5.24276E+1  -5.92947E+1
   1.33705E+2   1.05928E+1
