 
 $NMID
 ID=''
 FMTDAT='(2E13.5)'
 TRAMP=   1.00000E+0
 VOLUME=   1.00000E+0
 $END
  -5.57651E+5   3.25168E+5
  -1.63923E+6   3.31468E+5
  -1.49713E+6   5.05966E+5
  -1.41229E+6   3.12391E+5
  -1.54672E+6   2.14723E+5
  -1.55179E+6   2.46381E+5
  -1.50241E+6   2.13691E+5
  -1.50716E+6   1.91928E+5
  -1.45676E+6   1.65591E+5
  -1.45383E+6   7.91066E+4
  -1.50524E+6   6.28288E+4
  -1.47968E+6   8.64730E+4
  -1.43679E+6   5.30228E+4
  -1.42781E+6   2.33233E+4
  -1.40838E+6  -8.56431E+2
  -1.41103E+6  -3.34474E+4
  -1.42472E+6  -3.87581E+4
  -1.39070E+6  -5.41987E+4
  -1.36474E+6  -1.03681E+5
  -1.36616E+6  -1.36843E+5
  -1.35201E+6  -1.65784E+5
  -1.34202E+6  -1.95446E+5
  -1.33413E+6  -2.06647E+5
  -1.30857E+6  -2.29510E+5
  -1.28992E+6  -2.67048E+5
  -1.28411E+6  -2.77306E+5
  -1.27150E+6  -2.87313E+5
  -1.26028E+6  -3.04876E+5
  -1.24351E+6  -3.15427E+5
  -1.22374E+6  -3.27609E+5
  -1.21454E+6  -3.52524E+5
  -1.20255E+6  -3.69478E+5
  -1.18268E+6  -3.87167E+5
  -1.16733E+6  -4.06035E+5
  -1.15202E+6  -4.21319E+5
  -1.13464E+6  -4.41799E+5
  -1.12174E+6  -4.63966E+5
  -1.10577E+6  -4.79366E+5
  -1.08655E+6  -4.92387E+5
  -1.07279E+6  -5.05494E+5
  -1.05676E+6  -5.15345E+5
  -1.03972E+6  -5.25495E+5
  -1.02659E+6  -5.33640E+5
  -1.01327E+6  -5.40605E+5
  -9.97067E+5  -5.48046E+5
  -9.83894E+5  -5.57240E+5
  -9.67939E+5  -5.67467E+5
  -9.48882E+5  -5.80159E+5
  -9.30292E+5  -5.89591E+5
  -9.13308E+5  -5.98110E+5
  -8.95944E+5  -6.08862E+5
  -8.77958E+5  -6.19231E+5
  -8.60662E+5  -6.28836E+5
  -8.43921E+5  -6.38183E+5
  -8.27019E+5  -6.45772E+5
  -8.08750E+5  -6.52297E+5
  -7.90745E+5  -6.58477E+5
  -7.74100E+5  -6.63499E+5
  -7.58387E+5  -6.67230E+5
  -7.42564E+5  -6.71631E+5
  -7.26202E+5  -6.76305E+5
  -7.09290E+5  -6.81255E+5
  -6.91779E+5  -6.86587E+5
  -6.73825E+5  -6.91595E+5
  -6.55119E+5  -6.94416E+5
  -6.37052E+5  -6.97165E+5
  -6.18439E+5  -7.00112E+5
  -6.00630E+5  -7.02610E+5
  -5.84133E+5  -7.05491E+5
  -5.67164E+5  -7.08030E+5
  -5.48869E+5  -7.09459E+5
  -5.32172E+5  -7.09409E+5
  -5.17067E+5  -7.10143E+5
  -5.00659E+5  -7.12052E+5
  -4.83000E+5  -7.11902E+5
  -4.65888E+5  -7.10914E+5
  -4.49780E+5  -7.11047E+5
  -4.32763E+5  -7.11261E+5
  -4.14474E+5  -7.10899E+5
  -3.96603E+5  -7.09711E+5
  -3.78864E+5  -7.08371E+5
  -3.62026E+5  -7.07387E+5
  -3.45335E+5  -7.05677E+5
  -3.28297E+5  -7.04034E+5
  -3.11734E+5  -7.01144E+5
  -2.96407E+5  -6.97992E+5
  -2.81583E+5  -6.94872E+5
  -2.66572E+5  -6.91886E+5
  -2.52611E+5  -6.88018E+5
  -2.38896E+5  -6.83838E+5
  -2.25407E+5  -6.79675E+5
  -2.10906E+5  -6.76154E+5
  -1.96425E+5  -6.71946E+5
  -1.81672E+5  -6.66951E+5
  -1.67564E+5  -6.61851E+5
  -1.54101E+5  -6.56714E+5
  -1.40453E+5  -6.52267E+5
  -1.26550E+5  -6.47486E+5
  -1.12665E+5  -6.41966E+5
  -1.00322E+5  -6.36288E+5
  -8.83812E+4  -6.31215E+5
  -7.58683E+4  -6.26115E+5
  -6.37024E+4  -6.19241E+5
  -5.23548E+4  -6.12354E+5
  -4.23985E+4  -6.06434E+5
  -3.22418E+4  -6.00815E+5
  -2.13013E+4  -5.94919E+5
  -1.02537E+4  -5.88069E+5
  -5.39590E+2  -5.80778E+5
   8.49139E+3  -5.74004E+5
   1.80234E+4  -5.68031E+5
   2.83775E+4  -5.61657E+5
   3.87341E+4  -5.54644E+5
   4.83313E+4  -5.47503E+5
   5.74462E+4  -5.40571E+5
   6.68614E+4  -5.33472E+5
   7.62354E+4  -5.26532E+5
   8.51375E+4  -5.18370E+5
   9.23310E+4  -5.10421E+5
   9.94542E+4  -5.03196E+5
   1.06992E+5  -4.96206E+5
   1.14838E+5  -4.89099E+5
   1.22448E+5  -4.81559E+5
   1.29678E+5  -4.74106E+5
   1.36660E+5  -4.66256E+5
   1.43253E+5  -4.58216E+5
   1.49714E+5  -4.50115E+5
   1.56261E+5  -4.42020E+5
   1.62189E+5  -4.34556E+5
   1.68828E+5  -4.26836E+5
   1.75336E+5  -4.18698E+5
   1.81828E+5  -4.09945E+5
   1.87339E+5  -4.01548E+5
   1.92791E+5  -3.93589E+5
   1.98054E+5  -3.85430E+5
   2.03225E+5  -3.76743E+5
   2.07797E+5  -3.68689E+5
   2.12557E+5  -3.60829E+5
   2.17702E+5  -3.52936E+5
   2.22741E+5  -3.44588E+5
   2.26874E+5  -3.35989E+5
   2.30433E+5  -3.27433E+5
   2.34035E+5  -3.19728E+5
   2.38296E+5  -3.12086E+5
   2.41875E+5  -3.04055E+5
   2.45030E+5  -2.95673E+5
   2.47909E+5  -2.87644E+5
   2.50783E+5  -2.79785E+5
   2.53223E+5  -2.71832E+5
   2.55397E+5  -2.64524E+5
   2.57509E+5  -2.57035E+5
   2.59362E+5  -2.49614E+5
   2.61219E+5  -2.42590E+5
   2.63273E+5  -2.35394E+5
   2.65013E+5  -2.28086E+5
   2.66062E+5  -2.20659E+5
   2.67221E+5  -2.13854E+5
   2.68651E+5  -2.07296E+5
   2.69697E+5  -2.00314E+5
   2.70241E+5  -1.93349E+5
   2.71091E+5  -1.86809E+5
   2.71615E+5  -1.80242E+5
   2.72079E+5  -1.73455E+5
   2.72134E+5  -1.66927E+5
   2.71999E+5  -1.61174E+5
   2.71638E+5  -1.55189E+5
   2.72248E+5  -1.49302E+5
   2.72383E+5  -1.43245E+5
   2.71758E+5  -1.37210E+5
   2.71135E+5  -1.31799E+5
   2.70671E+5  -1.26452E+5
   2.70002E+5  -1.20673E+5
   2.69509E+5  -1.15243E+5
   2.68515E+5  -1.09974E+5
   2.67284E+5  -1.04546E+5
   2.66375E+5  -9.93393E+4
   2.65458E+5  -9.37419E+4
   2.64486E+5  -8.80480E+4
   2.62970E+5  -8.29909E+4
   2.61365E+5  -7.81422E+4
   2.60395E+5  -7.34135E+4
   2.59315E+5  -6.81905E+4
   2.57899E+5  -6.29418E+4
   2.56425E+5  -5.80411E+4
   2.54846E+5  -5.35138E+4
   2.53357E+5  -4.89856E+4
   2.51246E+5  -4.42464E+4
   2.49266E+5  -3.98055E+4
   2.47693E+5  -3.56312E+4
   2.45972E+5  -3.16535E+4
   2.44715E+5  -2.68528E+4
   2.42569E+5  -2.22617E+4
   2.40383E+5  -1.80891E+4
   2.38200E+5  -1.39036E+4
   2.36164E+5  -1.00697E+4
   2.34300E+5  -5.72195E+3
   2.32068E+5  -1.57989E+3
   2.30018E+5   2.38362E+3
   2.27930E+5   6.37499E+3
   2.25902E+5   1.04461E+4
   2.23206E+5   1.45044E+4
   2.20742E+5   1.79824E+4
   2.18318E+5   2.17025E+4
   2.16198E+5   2.52933E+4
   2.13886E+5   2.89956E+4
   2.11365E+5   3.26345E+4
   2.08920E+5   3.59047E+4
   2.06376E+5   3.91846E+4
   2.03659E+5   4.23269E+4
   2.00986E+5   4.54179E+4
   1.98172E+5   4.88335E+4
   1.95587E+5   5.16085E+4
   1.93215E+5   5.44848E+4
   1.91062E+5   5.76264E+4
   1.87873E+5   6.09016E+4
   1.84927E+5   6.32302E+4
   1.82059E+5   6.59872E+4
   1.79556E+5   6.80066E+4
   1.76778E+5   7.05303E+4
   1.74198E+5   7.27424E+4
   1.71276E+5   7.49429E+4
   1.68768E+5   7.71091E+4
   1.65965E+5   7.92679E+4
   1.63107E+5   8.12770E+4
   1.60187E+5   8.30722E+4
   1.57301E+5   8.48098E+4
   1.54696E+5   8.63388E+4
   1.51930E+5   8.80223E+4
   1.49346E+5   9.01080E+4
   1.46333E+5   9.15876E+4
   1.43543E+5   9.28527E+4
   1.41005E+5   9.40061E+4
   1.38222E+5   9.55939E+4
   1.35563E+5   9.68500E+4
   1.32886E+5   9.79759E+4
   1.30024E+5   9.89050E+4
   1.27694E+5   9.98743E+4
   1.24994E+5   1.01013E+5
   1.22390E+5   1.01754E+5
   1.19725E+5   1.02689E+5
   1.17457E+5   1.03229E+5
   1.14890E+5   1.04509E+5
   1.12328E+5   1.05107E+5
   1.09609E+5   1.05869E+5
   1.07139E+5   1.06344E+5
   1.04719E+5   1.07271E+5
   1.02202E+5   1.07776E+5
   9.97850E+4   1.08250E+5
   9.75415E+4   1.08448E+5
   9.51958E+4   1.08861E+5
   9.31053E+4   1.09578E+5
   9.05700E+4   1.09843E+5
   8.82398E+4   1.10369E+5
   8.58895E+4   1.10274E+5
   8.37238E+4   1.10388E+5
   8.15609E+4   1.10818E+5
   7.92297E+4   1.11279E+5
   7.71707E+4   1.11661E+5
   7.48384E+4   1.11695E+5
   7.24231E+4   1.12010E+5
   6.99508E+4   1.12131E+5
   6.77305E+4   1.12171E+5
   6.56012E+4   1.11826E+5
   6.35490E+4   1.11968E+5
   6.15718E+4   1.12050E+5
   5.92450E+4   1.12401E+5
   5.71632E+4   1.12173E+5
   5.49384E+4   1.12208E+5
   5.31087E+4   1.11813E+5
   5.10760E+4   1.11713E+5
   4.90396E+4   1.11412E+5
   4.70700E+4   1.11141E+5
   4.49238E+4   1.10762E+5
   4.32022E+4   1.10549E+5
   4.10272E+4   1.10537E+5
   3.88358E+4   1.10177E+5
   3.68385E+4   1.09528E+5
   3.52332E+4   1.08924E+5
   3.37137E+4   1.08545E+5
   3.18342E+4   1.08190E+5
   2.95594E+4   1.07710E+5
   2.79999E+4   1.07241E+5
   2.62883E+4   1.06528E+5
   2.44591E+4   1.06265E+5
   2.23483E+4   1.05496E+5
   2.10210E+4   1.04503E+5
   1.95057E+4   1.03993E+5
   1.79526E+4   1.03252E+5
   1.63230E+4   1.02762E+5
   1.45456E+4   1.02136E+5
   1.27708E+4   1.01268E+5
   1.12934E+4   1.00570E+5
   9.77389E+3   9.98973E+4
   8.34609E+3   9.89937E+4
   6.74994E+3   9.80604E+4
   5.72169E+3   9.72927E+4
   4.00205E+3   9.65611E+4
   2.78699E+3   9.56992E+4
   1.12335E+3   9.46806E+4
  -4.52535E+2   9.36143E+4
  -1.50131E+3   9.27194E+4
  -2.83626E+3   9.18326E+4
  -4.28765E+3   9.12585E+4
  -5.49073E+3   8.99625E+4
  -6.86276E+3   8.88223E+4
  -8.17591E+3   8.80561E+4
  -9.18447E+3   8.71086E+4
  -1.04562E+4   8.64650E+4
  -1.16562E+4   8.51533E+4
  -1.29776E+4   8.41994E+4
  -1.40058E+4   8.34535E+4
  -1.51311E+4   8.22808E+4
  -1.67273E+4   8.13851E+4
  -1.76801E+4   8.01596E+4
  -1.86540E+4   7.90172E+4
  -1.96070E+4   7.79059E+4
  -2.08551E+4   7.70080E+4
  -2.19795E+4   7.60420E+4
  -2.26459E+4   7.48897E+4
  -2.35993E+4   7.38564E+4
  -2.46066E+4   7.29560E+4
  -2.58342E+4   7.18750E+4
  -2.69412E+4   7.06054E+4
  -2.78026E+4   6.95947E+4
  -2.84028E+4   6.84720E+4
  -2.94749E+4   6.75815E+4
  -3.05154E+4   6.64452E+4
  -3.14699E+4   6.53960E+4
  -3.22647E+4   6.40922E+4
  -3.27845E+4   6.30710E+4
  -3.37194E+4   6.21495E+4
  -3.44570E+4   6.09273E+4
  -3.50741E+4   6.02557E+4
  -3.59207E+4   5.89558E+4
  -3.66713E+4   5.83764E+4
  -3.75133E+4   5.67556E+4
  -3.81093E+4   5.56863E+4
  -3.86871E+4   5.46428E+4
  -3.93092E+4   5.36457E+4
  -3.96703E+4   5.27244E+4
  -4.06353E+4   5.19163E+4
  -4.10910E+4   5.06361E+4
  -4.19612E+4   4.96097E+4
  -4.24387E+4   4.85167E+4
  -4.28092E+4   4.76203E+4
  -4.33074E+4   4.63289E+4
  -4.37375E+4   4.52867E+4
  -4.42864E+4   4.44350E+4
  -4.42939E+4   4.33880E+4
  -4.50819E+4   4.27645E+4
  -4.57582E+4   4.11386E+4
  -4.58762E+4   4.02742E+4
  -4.58826E+4   3.95440E+4
  -4.64495E+4   3.82872E+4
  -4.66300E+4   3.74073E+4
  -4.67309E+4   3.62590E+4
  -4.70185E+4   3.54806E+4
  -4.74884E+4   3.46289E+4
  -4.76122E+4   3.36514E+4
  -4.79430E+4   3.25988E+4
  -4.78963E+4   3.13196E+4
  -4.76866E+4   3.07521E+4
  -4.77556E+4   2.97914E+4
  -4.81929E+4   2.90824E+4
  -4.84374E+4   2.80587E+4
  -4.81961E+4   2.72243E+4
  -4.82720E+4   2.60212E+4
