 
 $NMID
 ID=''
 FMTDAT='(2E13.5)'
 TRAMP=   1.00000E+0
 VOLUME=   1.00000E+0
 $END
   4.07197E+5   5.50070E+5
   4.94550E+5   1.78541E+6
   7.10109E+5   1.66681E+6
   6.44718E+5   1.56467E+6
   7.06602E+5   1.61071E+6
   8.43965E+5   1.51482E+6
   8.62162E+5   1.43048E+6
   9.00383E+5   1.43927E+6
   9.55401E+5   1.37370E+6
   9.44068E+5   1.31975E+6
   9.70252E+5   1.31007E+6
   1.00879E+6   1.24908E+6
   1.00406E+6   1.20004E+6
   1.01838E+6   1.18593E+6
   1.03139E+6   1.13552E+6
   1.02226E+6   1.09267E+6
   1.04478E+6   1.06853E+6
   1.06951E+6   1.01243E+6
   1.06986E+6   9.58612E+5
   1.09305E+6   9.14073E+5
   1.10835E+6   8.56259E+5
   1.10390E+6   8.10830E+5
   1.11436E+6   7.72659E+5
   1.12025E+6   7.18944E+5
   1.10883E+6   6.77391E+5
   1.10972E+6   6.39263E+5
   1.10606E+6   6.00163E+5
   1.09035E+6   5.71634E+5
   1.08166E+6   5.42059E+5
   1.07382E+6   4.98985E+5
   1.06224E+6   4.64752E+5
   1.05604E+6   4.29286E+5
   1.04580E+6   3.86537E+5
   1.03305E+6   3.49365E+5
   1.02369E+6   3.10417E+5
   1.01158E+6   2.64860E+5
   9.98165E+5   2.26796E+5
   9.86360E+5   1.93571E+5
   9.66719E+5   1.60983E+5
   9.47199E+5   1.32234E+5
   9.29543E+5   1.06112E+5
   9.08846E+5   8.11274E+4
   8.86607E+5   5.84370E+4
   8.67988E+5   3.64559E+4
   8.47366E+5   1.62680E+4
   8.26908E+5  -9.88822E+2
   8.06946E+5  -1.96890E+4
   7.85076E+5  -3.82151E+4
   7.62275E+5  -5.62547E+4
   7.42088E+5  -7.46673E+4
   7.20196E+5  -9.25863E+4
   6.98720E+5  -1.08152E+5
   6.77166E+5  -1.22858E+5
   6.55662E+5  -1.36054E+5
   6.34123E+5  -1.46865E+5
   6.13236E+5  -1.56704E+5
   5.92404E+5  -1.64582E+5
   5.71406E+5  -1.71019E+5
   5.50074E+5  -1.76961E+5
   5.30330E+5  -1.83045E+5
   5.11876E+5  -1.87868E+5
   4.93446E+5  -1.91559E+5
   4.73762E+5  -1.94509E+5
   4.54843E+5  -1.97282E+5
   4.36909E+5  -1.98982E+5
   4.18857E+5  -2.00120E+5
   4.00779E+5  -2.01144E+5
   3.82887E+5  -2.01553E+5
   3.66896E+5  -2.01046E+5
   3.51707E+5  -1.98925E+5
   3.36316E+5  -1.96451E+5
   3.21007E+5  -1.94124E+5
   3.06947E+5  -1.91589E+5
   2.93254E+5  -1.88123E+5
   2.79667E+5  -1.83674E+5
   2.66509E+5  -1.79527E+5
   2.54486E+5  -1.75224E+5
   2.42554E+5  -1.70061E+5
   2.31044E+5  -1.65439E+5
   2.20060E+5  -1.60191E+5
   2.09528E+5  -1.54047E+5
   1.99272E+5  -1.48146E+5
   1.89737E+5  -1.42111E+5
   1.81272E+5  -1.35845E+5
   1.72844E+5  -1.29178E+5
   1.64742E+5  -1.22692E+5
   1.57023E+5  -1.15982E+5
   1.50234E+5  -1.09629E+5
   1.43904E+5  -1.02996E+5
   1.37377E+5  -9.62369E+4
   1.31262E+5  -9.01549E+4
   1.25775E+5  -8.39374E+4
   1.20275E+5  -7.74400E+4
   1.15079E+5  -7.12042E+4
   1.10388E+5  -6.50302E+4
   1.05847E+5  -5.87873E+4
   1.01408E+5  -5.26173E+4
   9.73058E+4  -4.67322E+4
   9.39013E+4  -4.06815E+4
   9.06091E+4  -3.47495E+4
   8.73907E+4  -2.89299E+4
   8.42758E+4  -2.36334E+4
   8.14694E+4  -1.86441E+4
   7.89767E+4  -1.30325E+4
   7.64958E+4  -8.27605E+3
   7.42604E+4  -3.48660E+3
   7.25771E+4   1.10647E+3
   7.03868E+4   5.57116E+3
   6.87618E+4   1.01520E+4
   6.68263E+4   1.44251E+4
   6.56568E+4   1.81157E+4
   6.42125E+4   2.23536E+4
   6.24849E+4   2.62029E+4
   6.11899E+4   2.98022E+4
   5.99349E+4   3.34258E+4
   5.86351E+4   3.69862E+4
   5.73383E+4   4.03167E+4
   5.62201E+4   4.31501E+4
   5.49104E+4   4.56639E+4
   5.38426E+4   4.85451E+4
   5.27036E+4   5.15557E+4
   5.15798E+4   5.40283E+4
   5.04216E+4   5.58228E+4
   4.93289E+4   5.82262E+4
   4.81941E+4   6.03962E+4
   4.69172E+4   6.26876E+4
   4.57750E+4   6.46951E+4
   4.46753E+4   6.64064E+4
   4.34383E+4   6.85883E+4
   4.21054E+4   7.00582E+4
   4.05884E+4   7.16784E+4
   3.91343E+4   7.32899E+4
   3.77226E+4   7.44983E+4
   3.64288E+4   7.57599E+4
   3.49059E+4   7.70365E+4
   3.33912E+4   7.82262E+4
   3.16690E+4   7.93199E+4
   3.03880E+4   8.02757E+4
   2.91812E+4   8.14819E+4
   2.74795E+4   8.23387E+4
   2.58807E+4   8.29881E+4
   2.46058E+4   8.38350E+4
   2.31117E+4   8.46677E+4
   2.15369E+4   8.50756E+4
   2.00781E+4   8.57783E+4
   1.82121E+4   8.62130E+4
   1.69267E+4   8.61973E+4
   1.47413E+4   8.69101E+4
   1.30898E+4   8.69387E+4
   1.16762E+4   8.73147E+4
   1.01957E+4   8.73019E+4
   8.52102E+3   8.72668E+4
   6.98466E+3   8.76318E+4
   5.35295E+3   8.78967E+4
   4.04451E+3   8.76923E+4
   2.44473E+3   8.77490E+4
   1.00946E+3   8.73536E+4
  -3.07629E+2   8.73026E+4
  -1.77251E+3   8.74614E+4
  -3.04442E+3   8.72299E+4
  -4.59062E+3   8.69841E+4
  -5.93472E+3   8.65660E+4
  -7.33476E+3   8.61718E+4
  -8.51941E+3   8.58919E+4
  -9.99397E+3   8.52411E+4
  -1.09323E+4   8.52318E+4
  -1.22293E+4   8.47271E+4
  -1.32985E+4   8.42899E+4
  -1.47189E+4   8.36571E+4
  -1.53836E+4   8.29878E+4
  -1.65189E+4   8.25223E+4
  -1.78650E+4   8.20437E+4
  -1.87227E+4   8.16485E+4
  -1.98364E+4   8.08336E+4
  -2.07920E+4   8.00951E+4
  -2.16721E+4   7.96952E+4
  -2.28469E+4   7.90648E+4
  -2.38347E+4   7.83029E+4
  -2.48318E+4   7.75822E+4
  -2.53003E+4   7.70337E+4
  -2.62506E+4   7.62236E+4
  -2.71471E+4   7.56666E+4
  -2.79251E+4   7.47615E+4
  -2.86885E+4   7.40021E+4
  -2.93320E+4   7.31454E+4
  -2.98255E+4   7.22909E+4
  -2.99507E+4   7.13878E+4
  -3.06971E+4   7.09022E+4
  -3.08209E+4   6.97775E+4
  -3.13064E+4   6.92971E+4
  -3.16658E+4   6.84445E+4
  -3.19883E+4   6.79037E+4
  -3.26718E+4   6.66976E+4
  -3.26233E+4   6.53075E+4
  -3.30115E+4   6.44040E+4
  -3.31690E+4   6.34621E+4
  -3.34616E+4   6.24424E+4
  -3.37792E+4   6.16809E+4
  -3.35804E+4   6.03674E+4
  -3.37977E+4   5.97109E+4
  -3.38914E+4   5.83259E+4
  -3.39527E+4   5.68758E+4
  -3.36187E+4   5.59380E+4
  -3.37874E+4   5.51714E+4
  -3.36116E+4   5.41266E+4
  -3.35531E+4   5.29684E+4
  -3.32598E+4   5.18858E+4
  -3.32389E+4   5.05865E+4
  -3.30686E+4   4.94118E+4
  -3.29332E+4   4.81570E+4
  -3.24492E+4   4.69023E+4
  -3.21192E+4   4.56877E+4
  -3.16432E+4   4.46221E+4
  -3.13598E+4   4.37019E+4
  -3.14008E+4   4.21581E+4
  -3.09688E+4   4.09976E+4
  -3.06069E+4   3.96911E+4
  -3.00752E+4   3.82560E+4
  -2.95151E+4   3.71976E+4
  -2.90119E+4   3.60234E+4
  -2.87766E+4   3.46600E+4
  -2.79789E+4   3.34144E+4
  -2.76243E+4   3.25585E+4
  -2.70868E+4   3.13179E+4
  -2.68060E+4   2.98980E+4
  -2.61793E+4   2.87304E+4
  -2.58412E+4   2.77727E+4
  -2.51737E+4   2.66445E+4
  -2.46562E+4   2.53678E+4
  -2.46343E+4   2.42296E+4
  -2.39685E+4   2.31756E+4
  -2.35911E+4   2.20001E+4
  -2.33734E+4   2.07394E+4
  -2.26623E+4   1.97263E+4
  -2.23261E+4   1.87539E+4
  -2.17847E+4   1.75021E+4
  -2.14989E+4   1.64429E+4
  -2.11236E+4   1.55438E+4
  -2.07247E+4   1.44693E+4
  -2.03703E+4   1.34480E+4
  -2.00855E+4   1.24290E+4
  -1.95499E+4   1.16801E+4
  -1.91313E+4   1.07905E+4
  -1.89345E+4   9.92480E+3
  -1.84269E+4   9.31954E+3
  -1.80221E+4   8.26746E+3
  -1.77838E+4   7.78558E+3
  -1.76235E+4   6.61755E+3
  -1.73502E+4   5.97075E+3
  -1.65579E+4   5.17559E+3
  -1.64591E+4   4.47710E+3
  -1.62029E+4   3.51333E+3
  -1.59582E+4   3.02031E+3
  -1.57115E+4   2.61823E+3
  -1.50447E+4   1.70671E+3
  -1.49728E+4   1.16431E+3
  -1.49048E+4   6.11462E+2
  -1.44355E+4  -9.83889E+0
  -1.42073E+4  -3.29283E+2
  -1.38420E+4  -1.25607E+3
  -1.37759E+4  -1.67891E+3
  -1.31381E+4  -2.09003E+3
  -1.29012E+4  -2.70151E+3
  -1.28297E+4  -2.99105E+3
  -1.24878E+4  -3.10775E+3
  -1.22239E+4  -3.59489E+3
  -1.18697E+4  -3.91024E+3
  -1.18325E+4  -4.72983E+3
  -1.11983E+4  -4.91141E+3
  -1.09196E+4  -5.14148E+3
  -1.06385E+4  -5.52684E+3
  -1.03770E+4  -5.76728E+3
  -1.01364E+4  -6.08539E+3
  -9.46725E+3  -6.30049E+3
  -9.31332E+3  -6.55585E+3
  -9.08295E+3  -6.74806E+3
  -8.67763E+3  -6.97599E+3
  -8.34454E+3  -7.27294E+3
  -8.13040E+3  -7.45265E+3
  -7.96774E+3  -7.86132E+3
  -7.43071E+3  -7.82561E+3
  -7.10854E+3  -8.19685E+3
  -6.69908E+3  -8.22258E+3
  -6.28188E+3  -8.05941E+3
  -5.97600E+3  -8.47740E+3
  -5.98944E+3  -8.60219E+3
  -5.47836E+3  -8.71763E+3
  -5.09589E+3  -8.76542E+3
  -4.94207E+3  -8.60982E+3
  -4.64207E+3  -8.88324E+3
  -4.31379E+3  -8.97500E+3
  -4.14479E+3  -8.86159E+3
  -3.68660E+3  -9.24459E+3
  -3.44354E+3  -9.10065E+3
  -3.29774E+3  -9.47108E+3
  -2.92616E+3  -9.36934E+3
  -2.31356E+3  -9.27653E+3
  -2.28610E+3  -9.34216E+3
  -2.19619E+3  -9.54818E+3
  -1.84436E+3  -9.53374E+3
  -1.49867E+3  -9.65872E+3
  -1.40886E+3  -9.64544E+3
  -9.56668E+2  -9.69180E+3
  -7.24951E+2  -9.73488E+3
  -7.35030E+2  -9.59650E+3
  -4.94291E+2  -1.00809E+4
  -1.95028E+2  -9.89200E+3
  -2.23414E+2  -9.86097E+3
   1.09282E+2  -1.01052E+4
   2.63380E+2  -9.99609E+3
   5.42742E+2  -9.94209E+3
   4.67441E+2  -1.01154E+4
   6.78823E+2  -1.02046E+4
   7.78995E+2  -9.98818E+3
   9.63474E+2  -1.01394E+4
   1.03075E+3  -1.01220E+4
   1.26701E+3  -1.03714E+4
   1.13357E+3  -1.02324E+4
   1.35116E+3  -1.03898E+4
   1.44884E+3  -1.03798E+4
   1.41037E+3  -1.01485E+4
   1.59345E+3  -1.01539E+4
   1.59493E+3  -1.04470E+4
   1.83123E+3  -1.03733E+4
   1.79380E+3  -1.02874E+4
   1.72678E+3  -1.02902E+4
   1.78308E+3  -1.02947E+4
   1.44059E+3  -1.01951E+4
   1.95198E+3  -1.03759E+4
   1.60305E+3  -1.04457E+4
   1.73395E+3  -1.02521E+4
   1.68772E+3  -1.01327E+4
   1.65843E+3  -1.01710E+4
   1.63200E+3  -1.02207E+4
   1.61650E+3  -1.02860E+4
   1.44961E+3  -1.01260E+4
   1.73535E+3  -1.00555E+4
   1.55691E+3  -1.02139E+4
   1.78823E+3  -9.82157E+3
   1.55631E+3  -1.00051E+4
   1.45034E+3  -9.95521E+3
   1.41713E+3  -9.97051E+3
   1.58510E+3  -1.00535E+4
   1.52749E+3  -9.74039E+3
   1.45953E+3  -9.72058E+3
   1.51615E+3  -9.53766E+3
   1.56646E+3  -9.60558E+3
   1.42949E+3  -9.38636E+3
   1.18541E+3  -9.60115E+3
   1.31276E+3  -9.38429E+3
   1.65003E+3  -9.60191E+3
   1.48443E+3  -9.18314E+3
   1.36935E+3  -9.11297E+3
   1.41909E+3  -9.12821E+3
   1.42089E+3  -9.03063E+3
   1.28469E+3  -8.76238E+3
   1.11946E+3  -8.88292E+3
   1.21602E+3  -8.92602E+3
   1.06027E+3  -8.71886E+3
   1.16887E+3  -8.77781E+3
   1.11847E+3  -8.56687E+3
   1.18797E+3  -8.57409E+3
   1.11129E+3  -8.38153E+3
   1.14824E+3  -8.34867E+3
   7.71500E+2  -8.49538E+3
   9.48979E+2  -8.18677E+3
   5.77815E+2  -8.29079E+3
