 LCModel (Version 6.3-1N) Copyright: S.W. Provencher.          Ref.: Magn. Reson. Med. 30:672-679 (1993).                
 Slice_N1@20_17  28-Feb-2025 11:41:58
 27 lines in following concentration table = NCONC+1
    Conc.  %SD /Cr+PCr  Metabolite                                         
 2.34E-04   6% 2.5E-04 Mac                                                 
    3.621  41%   3.792 Cr                                                  
    4.019  36%   4.208 PCr                                                 
    5.912  18%   6.190 Ins                                                 
    7.663  12%   8.023 NAA                                                 
    4.312  24%   4.515 Tau                                                 
    2.006  14%   2.100 PCho                                                
    0.000 999%   0.000 GPC                                                 
    6.943  17%   7.269 Glu                                                 
    2.491  38%   2.608 Gln                                                 
    0.000 999%   0.000 Ala                                                 
    2.499  56%   2.617 Asc                                                 
    1.786  65%   1.870 Asp                                                 
    0.704  87%   0.738 GABA                                                
    0.796  98%   0.834 Glc                                                 
    1.819  32%   1.904 GSH                                                 
    2.976  28%   3.116 Lac                                                 
    2.680  28%   2.806 NAAG                                                
    0.000 999%   0.000 PE                                                  
    2.006  14%   2.100 GPC+PCho                                            
   10.342  10%  10.829 NAA+NAAG                                            
    9.433  16%   9.877 Glu+Gln                                             
    7.640  12%   8.000 Cr+PCr                                              
   10.342  10%  10.829 NAA+NAAG                                            
    7.640  12%   8.000 Cr+PCr                                              
    9.433  16%   9.877 Glu+Gln                                             
   6 lines in following misc. output table
  FWHM = 0.041 ppm    S/N =   3                                            
  Data shift = 0.008 ppm                                                   
  Ph: -84 deg       0.0 deg/ppm                                            
  alphaB,S = 9.9E-02,   3.1E-01                                            
   19 spline knots.   Ns = 5(1)                                            
   2 inflections.     1 extrema                                            
  480 points on ppm-axis = NY
      4.100000     4.091866     4.083733     4.075600     4.067466     4.059333     4.051199     4.043066     4.034933     4.026799
      4.018666     4.010532     4.002399     3.994265     3.986132     3.977998     3.969864     3.961731     3.953597     3.945463
      3.937330     3.929196     3.921062     3.912929     3.904795     3.896662     3.888528     3.880394     3.872261     3.864127
      3.855993     3.847860     3.839726     3.831592     3.823459     3.815325     3.807191     3.799058     3.790924     3.782790
      3.774657     3.766523     3.758389     3.750256     3.742122     3.733989     3.725855     3.717721     3.709588     3.701454
      3.693320     3.685187     3.677053     3.668919     3.660786     3.652652     3.644518     3.636385     3.628251     3.620117
      3.611984     3.603850     3.595716     3.587583     3.579449     3.571316     3.563182     3.555048     3.546915     3.538781
      3.530647     3.522514     3.514380     3.506246     3.498113     3.489979     3.481845     3.473712     3.465578     3.457444
      3.449311     3.441177     3.433043     3.424910     3.416776     3.408643     3.400509     3.392375     3.384242     3.376108
      3.367974     3.359841     3.351707     3.343573     3.335440     3.327306     3.319172     3.311039     3.302905     3.294771
      3.286638     3.278504     3.270370     3.262237     3.254103     3.245970     3.237836     3.229702     3.221569     3.213435
      3.205301     3.197168     3.189034     3.180900     3.172767     3.164633     3.156499     3.148366     3.140232     3.132098
      3.123965     3.115831     3.107697     3.099564     3.091430     3.083297     3.075163     3.067029     3.058896     3.050762
      3.042628     3.034495     3.026361     3.018227     3.010094     3.001960     2.993826     2.985693     2.977559     2.969425
      2.961292     2.953158     2.945024     2.936891     2.928757     2.920624     2.912490     2.904356     2.896223     2.888089
      2.879955     2.871822     2.863688     2.855554     2.847421     2.839287     2.831153     2.823020     2.814886     2.806752
      2.798619     2.790485     2.782351     2.774218     2.766084     2.757951     2.749817     2.741683     2.733550     2.725416
      2.717282     2.709149     2.701015     2.692881     2.684748     2.676614     2.668480     2.660347     2.652213     2.644079
      2.635946     2.627812     2.619678     2.611545     2.603411     2.595278     2.587144     2.579010     2.570877     2.562743
      2.554609     2.546476     2.538342     2.530208     2.522075     2.513941     2.505807     2.497674     2.489540     2.481406
      2.473273     2.465139     2.457006     2.448872     2.440738     2.432605     2.424471     2.416337     2.408204     2.400070
      2.391936     2.383803     2.375669     2.367535     2.359402     2.351268     2.343134     2.335001     2.326867     2.318733
      2.310600     2.302466     2.294333     2.286199     2.278065     2.269932     2.261798     2.253664     2.245531     2.237397
      2.229263     2.221130     2.212996     2.204862     2.196729     2.188595     2.180461     2.172328     2.164194     2.156060
      2.147927     2.139793     2.131660     2.123526     2.115392     2.107259     2.099125     2.090991     2.082858     2.074724
      2.066590     2.058457     2.050323     2.042189     2.034056     2.025922     2.017788     2.009655     2.001521     1.993387
      1.985254     1.977120     1.968987     1.960853     1.952719     1.944586     1.936452     1.928318     1.920185     1.912051
      1.903917     1.895784     1.887650     1.879516     1.871383     1.863249     1.855115     1.846982     1.838848     1.830714
      1.822581     1.814447     1.806314     1.798180     1.790046     1.781913     1.773779     1.765645     1.757512     1.749378
      1.741244     1.733111     1.724977     1.716843     1.708710     1.700576     1.692442     1.684309     1.676175     1.668041
      1.659908     1.651774     1.643641     1.635507     1.627373     1.619240     1.611106     1.602972     1.594839     1.586705
      1.578571     1.570438     1.562304     1.554170     1.546037     1.537903     1.529769     1.521636     1.513502     1.505368
      1.497235     1.489101     1.480968     1.472834     1.464700     1.456567     1.448433     1.440299     1.432166     1.424032
      1.415898     1.407765     1.399631     1.391497     1.383364     1.375230     1.367096     1.358963     1.350829     1.342695
      1.334562     1.326428     1.318295     1.310161     1.302027     1.293894     1.285760     1.277626     1.269493     1.261359
      1.253225     1.245092     1.236958     1.228824     1.220691     1.212557     1.204423     1.196290     1.188156     1.180022
      1.171889     1.163755     1.155622     1.147488     1.139354     1.131221     1.123087     1.114953     1.106820     1.098686
      1.090552     1.082419     1.074285     1.066151     1.058018     1.049884     1.041750     1.033617     1.025483     1.017349
      1.009216     1.001082     0.992949     0.984815     0.976681     0.968548     0.960414     0.952280     0.944147     0.936013
      0.927879     0.919746     0.911612     0.903478     0.895345     0.887211     0.879077     0.870944     0.862810     0.854676
      0.846543     0.838409     0.830276     0.822142     0.814008     0.805875     0.797741     0.789607     0.781474     0.773340
      0.765206     0.757073     0.748939     0.740805     0.732672     0.724538     0.716404     0.708271     0.700137     0.692003
      0.683870     0.675736     0.667603     0.659469     0.651335     0.643202     0.635068     0.626934     0.618801     0.610667
      0.602533     0.594400     0.586266     0.578132     0.569999     0.561865     0.553731     0.545598     0.537464     0.529330
      0.521197     0.513063     0.504930     0.496796     0.488662     0.480529     0.472395     0.464261     0.456128     0.447994
      0.439861     0.431727     0.423593     0.415460     0.407326     0.399192     0.391059     0.382925     0.374792     0.366658
      0.358524     0.350391     0.342257     0.334124     0.325990     0.317856     0.309723     0.301589     0.293455     0.285322
      0.277188     0.269055     0.260921     0.252787     0.244654     0.236520     0.228386     0.220253     0.212119     0.203986
 NY phased data points follow
   2.13274E+01  2.14632E+01  1.40552E+01  4.02571E+00  7.70674E+00  2.17940E+01  1.48558E+01  1.04313E+01  2.19851E+01  2.07520E+01
   1.71699E+01  6.04270E+00 -2.51886E+00 -1.55302E+01 -1.42237E+01 -3.61867E+00 -1.02173E+01 -1.67356E+01 -3.35101E+01 -4.15810E+01
  -3.64532E+01 -3.49121E+01 -3.28464E+01 -1.15776E+01  8.64655E-01  8.61439E+00  2.61304E+01  2.42745E+01  3.36733E+01  2.94778E+01
   3.50515E+01  4.16223E+01  2.02230E+01  2.37283E+01  2.41424E+01  3.58551E+01  2.86741E+01  1.54274E+01  1.63973E+01 -1.60082E+01
  -6.66853E+00 -1.57646E+01 -3.19348E+01 -3.70576E+00 -1.34824E+01  5.30753E+00  1.67966E+01  2.69321E+01  5.61936E+01  3.87596E+01
   4.94009E+01  5.16594E+01  4.98110E+01  5.56492E+01  3.22128E+01  1.85411E+01  2.73066E+01  3.14818E+01  5.10657E+00  9.80762E+00
   1.10407E+01  1.56193E+01  4.21497E+01  4.41599E+01  4.91314E+01  5.76031E+01  6.13726E+01  4.22297E+01  2.98577E+01  7.74115E+00
   6.23478E+00  9.67688E+00 -5.52193E+00  2.05516E+01  2.63911E+01  4.01386E+01  4.36952E+01  4.55780E+01  6.01916E+01  5.34730E+01
   5.56479E+01  4.91067E+01  4.76464E+01  3.43150E+01  3.42629E+01  3.84765E+01  3.39573E+01  3.03711E+01  3.68247E+01  5.73331E+01
   5.84923E+01  7.71821E+01  7.59216E+01  8.27579E+01  8.69356E+01  7.03651E+01  9.25364E+01  9.55805E+01  1.01314E+02  1.08507E+02
   9.12570E+01  8.54536E+01  7.37880E+01  6.49935E+01  6.47077E+01  4.70184E+01  4.84991E+01  3.96256E+01  4.57794E+00 -1.70837E+01
  -4.54969E+01 -6.85472E+01 -8.83872E+01 -6.90316E+01 -3.03804E+01 -2.04703E+01 -1.29938E+01 -2.45343E+00  7.99345E+00  1.60825E+01
   2.48207E+01  2.03999E+01  3.85662E+01  4.71345E+01  4.76341E+01  6.82408E+01  6.95781E+01  8.36619E+01  1.00485E+02  1.16195E+02
   1.20922E+02  1.16437E+02  9.95438E+01  6.28626E+01  1.54217E+01 -3.43041E+01 -4.09521E+01 -3.82810E+01 -2.94476E+01 -2.14549E+01
  -2.33628E+01 -1.77835E+01 -2.89912E+01 -3.77114E+01 -3.15283E+01 -3.31292E+01 -3.82560E+01 -3.61401E+01 -3.25508E+01 -2.39852E+01
  -3.81862E+01 -3.85042E+01 -2.10178E+01 -2.01051E+01 -1.62836E+01 -2.65739E+01 -1.78259E+01 -9.92337E+00 -3.48494E+00  1.26550E+01
  -4.92796E+00 -5.23202E+00  1.76255E+01  1.68633E+01  6.70799E+00  7.07028E+00  7.96495E+00  5.48368E+00  1.87133E+00  1.05285E+01
   1.22223E+01  9.58579E+00  2.31241E+01  2.67191E+01  2.71272E+01  2.31952E+01  2.11623E+01  1.86130E+01  1.64237E+01  1.82128E+01
   3.65224E+00 -3.71301E+00 -7.52035E+00 -9.28854E+00 -1.20225E+01 -3.04715E+01 -2.98533E+01 -2.18169E+01 -2.06691E+01 -1.27221E+01
  -3.61365E+00  1.75929E+00 -9.61889E+00  8.26489E-01  7.14359E+00 -1.48993E+01 -1.19345E+01 -7.39432E+00  6.74146E+00  1.49326E+01
   1.82260E+00  6.79306E+00  1.36135E+01  6.54189E+00  1.33624E+01  1.12442E+01 -1.04166E+01 -2.14030E+00 -1.36926E+01 -3.22951E+01
  -3.32731E+01 -3.36987E+01 -2.93326E+01 -2.82501E+01 -8.79364E+00  1.87286E+00  9.09521E+00  1.36616E+01  2.26478E+01  1.85746E+01
   4.93320E+00  2.86440E+00 -1.90886E+00  1.19595E+01  1.85323E+00  1.47385E-01  8.79943E+00  1.50677E+01  7.53738E+00 -6.18614E+00
   1.02857E+01 -9.36533E-01 -9.80648E+00 -1.18076E+01 -8.21985E+00 -1.73312E+01 -2.20669E+01 -2.77151E+01 -4.32872E+01 -2.41570E+01
  -3.54663E+01 -3.80070E+01 -3.25827E+01 -1.94168E+01 -1.50186E+01 -2.14247E+01 -1.00295E+01 -1.93003E+01 -4.49001E+00 -1.18329E+01
  -3.56173E+01 -5.78444E+01 -5.68626E+01 -4.29482E+01 -5.27878E+01 -5.15605E+01 -5.20928E+01 -1.00462E+01  3.95596E+01  9.88558E+01
   1.47069E+02  1.37792E+02  1.27366E+02  1.13476E+02  9.86606E+01  8.71995E+01  8.16281E+01  7.61931E+01  7.33308E+01  6.44333E+01
   6.76285E+01  7.25430E+01  7.54042E+01  8.29875E+01  7.18880E+01  7.94679E+01  7.17667E+01  7.28215E+01  8.54109E+01  7.96512E+01
   7.61313E+01  6.76867E+01  7.00570E+01  6.39409E+01  6.09360E+01  5.26262E+01  4.73051E+01  5.53674E+01  5.00340E+01  4.56706E+01
   3.57744E+01  2.24735E+01  2.36573E+01  2.19279E+01  8.16865E+00  1.18317E+01  6.44472E+00 -1.27872E+01 -1.39810E+01 -7.21960E+00
  -1.08061E+01 -6.47198E+00 -5.82970E+00 -2.21687E+01 -8.28940E+00 -1.58789E+01 -2.83146E+01 -1.89630E+01 -2.90376E+01 -3.13700E+01
  -3.04036E+01 -2.54033E+01 -2.43705E+01 -2.02607E+01 -8.88158E-01  1.59987E+00 -1.23976E+01  2.70129E-01  8.48956E+00 -6.31294E+00
   8.15466E-01  3.50565E+00 -5.91206E+00 -4.57771E+00  1.56759E+01  2.47407E+01  1.95418E+01  2.39629E+01  3.72131E+01  3.51359E+01
   3.33537E+01  6.35941E+01  5.48191E+01  4.31421E+01  4.92444E+01  4.35079E+01  4.94435E+01  5.75804E+01  7.02488E+01  6.25045E+01
   6.22516E+01  7.58494E+01  6.72764E+01  4.84541E+01  4.43090E+01  4.51635E+01  4.69947E+01  4.78274E+01  3.68418E+01  3.68424E+01
   2.49963E+01  2.73882E+01  2.51060E+01  1.05710E+01  2.09318E+01  1.12667E+01  7.00986E-01  1.35579E+00  7.84275E+00  3.64013E+00
   1.25951E+00  1.74950E+01  2.05659E+01  2.15236E+01  2.92556E+01  3.60512E+01  4.12370E+01  4.85184E+01  4.81568E+01  5.19760E+01
   5.84642E+01  6.41119E+01  6.91462E+01  6.87642E+01  7.20365E+01  7.56243E+01  8.67122E+01  8.37267E+01  8.77782E+01  9.66957E+01
   8.66824E+01  9.33528E+01  1.03957E+02  1.18523E+02  1.41164E+02  1.44960E+02  1.35959E+02  1.38093E+02  1.50275E+02  1.55470E+02
   1.45522E+02  1.34504E+02  1.23044E+02  1.12627E+02  1.13210E+02  1.07578E+02  1.01283E+02  9.58326E+01  8.88857E+01  7.64900E+01
   6.41008E+01  5.63918E+01  3.87100E+01  2.85988E+01  2.52606E+01  2.30818E+01  2.05101E+01  6.29961E+00  1.48365E-01  1.78967E+01
   2.09849E+01  5.05878E+00  1.01221E+01  2.14068E+01  1.33789E+01 -3.07280E+00  9.84357E-01  6.51079E-01 -2.99531E+00  7.96213E+00
   2.79731E+00  1.29234E+01  1.76991E+01  4.29060E+00  6.47281E+00 -5.17071E+00 -2.98381E+00  2.67975E+00 -6.91526E+00 -4.56240E+00
  -5.64881E+00  4.04334E+00  9.28903E+00  1.18854E+01  1.00598E+01  5.02557E-01  9.35980E+00  3.69413E-01 -7.66714E-01  8.83674E+00
   7.18371E+00 -3.08271E+00 -1.06006E+01  5.49006E+00 -5.98977E-01 -3.28922E+00  3.97299E-01 -2.05324E-01  6.52176E+00 -4.91925E+00
   6.95910E-01  5.83306E+00  3.40289E+00 -3.84259E-01 -1.04690E+01  1.36783E-01  3.64808E+00  1.56603E-01 -3.20275E+00 -2.76488E+00
   2.32229E+00  1.15099E+00  3.58906E+00  6.70822E+00  7.49530E+00  1.29103E-01  1.30098E+01  1.19916E+01 -3.76852E+00  4.77641E+00
   2.72221E+00  1.23862E+01  2.07858E+00 -3.90567E+00  1.03119E+01  9.99889E+00  1.77792E+01  5.46798E+00  6.92417E+00  6.79403E+00
 NY points of the fit to the data follow
  -1.01348E-01 -1.93214E+00 -4.83285E+00 -7.39795E+00 -6.28970E+00 -6.56417E-01  6.50150E+00  1.30691E+01  1.64956E+01  1.34142E+01
   7.03628E+00  2.79179E+00  5.84691E-01 -2.10957E-01 -4.77251E-01 -1.63636E+00 -9.07542E+00 -1.26833E+01 -2.40809E+01 -3.66395E+01
  -3.76952E+01 -3.73402E+01 -3.15785E+01 -1.49683E+01  6.17131E+00  1.63891E+01  3.05340E+01  4.26974E+01  4.33776E+01  4.36497E+01
   4.39702E+01  4.40837E+01  4.32103E+01  4.13675E+01  3.92903E+01  3.78518E+01  3.25058E+01  2.81444E+01  1.83329E+01  5.30944E+00
  -7.05234E+00 -1.53092E+01 -1.78195E+01 -1.29353E+01 -2.75829E-01  1.02604E+01  2.12176E+01  3.18943E+01  4.11196E+01  4.75679E+01
   5.04606E+01  5.15726E+01  4.90359E+01  4.51046E+01  3.73802E+01  2.72902E+01  2.14279E+01  1.37555E+01  9.00091E+00  1.06460E+01
   1.25240E+01  1.39032E+01  2.19520E+01  3.32582E+01  4.01197E+01  4.77431E+01  5.43318E+01  5.00477E+01  3.79415E+01  2.58309E+01
   1.59955E+01  9.24258E+00  1.14683E+01  2.17628E+01  3.03499E+01  3.86117E+01  4.94991E+01  5.62657E+01  6.16179E+01  6.08864E+01
   6.14969E+01  5.51145E+01  4.76951E+01  3.72573E+01  2.96698E+01  2.52965E+01  2.66136E+01  3.36993E+01  4.06889E+01  4.94365E+01
   5.56866E+01  6.03012E+01  6.45212E+01  6.83979E+01  7.25109E+01  7.49941E+01  7.88132E+01  8.15235E+01  8.19651E+01  8.29918E+01
   8.53932E+01  7.96915E+01  7.71087E+01  6.94354E+01  6.69319E+01  5.14360E+01  5.45367E+01  4.44297E+01  2.05950E+01 -1.07570E+01
  -4.13576E+01 -6.84047E+01 -7.75420E+01 -5.41380E+01 -3.44964E+01 -2.12624E+01 -1.11019E+01 -2.87430E+00  4.23948E+00  1.05410E+01
   1.65374E+01  2.22729E+01  2.81617E+01  3.48911E+01  4.24216E+01  5.01971E+01  6.02804E+01  7.70462E+01  9.22468E+01  1.10903E+02
   1.28699E+02  1.23781E+02  9.62330E+01  5.52243E+01  6.88365E+00 -3.44368E+01 -4.42923E+01 -3.73374E+01 -3.33583E+01 -2.97164E+01
  -2.80544E+01 -2.76187E+01 -2.80442E+01 -2.86491E+01 -2.95781E+01 -2.97061E+01 -2.87888E+01 -2.74958E+01 -2.52123E+01 -2.28587E+01
  -2.06358E+01 -1.86991E+01 -1.69169E+01 -1.49562E+01 -1.29581E+01 -1.09198E+01 -9.08481E+00 -7.54192E+00 -6.58614E+00 -5.78439E+00
  -4.71525E+00 -3.50811E+00 -2.55952E+00 -2.08813E+00 -2.02693E+00 -2.14634E+00 -2.19872E+00 -1.76426E+00 -1.09378E+00  3.11512E-01
   3.91313E+00  1.03292E+01  1.63284E+01  1.92621E+01  1.97562E+01  1.75599E+01  1.69138E+01  1.79387E+01  1.81096E+01  1.38619E+01
   5.95297E+00 -2.39932E+00 -8.17501E+00 -1.10140E+01 -1.32375E+01 -1.51047E+01 -1.56810E+01 -1.50055E+01 -1.48475E+01 -1.33285E+01
  -9.78769E+00 -7.91675E+00 -4.55208E+00  1.20144E+00  4.21121E+00  7.39531E+00  1.07407E+01  1.19748E+01  1.13850E+01  1.22686E+01
   1.30129E+01  1.26856E+01  1.28560E+01  1.15588E+01  1.12991E+01  9.07152E+00  3.88109E+00 -1.43531E+00 -7.43204E+00 -1.17238E+01
  -1.79597E+01 -2.24385E+01 -2.17378E+01 -2.20318E+01 -1.27001E+01 -1.57010E+00  1.26063E+01  2.39908E+01  3.31158E+01  3.41887E+01
   2.99405E+01  2.73954E+01  2.21160E+01  2.10648E+01  2.16088E+01  2.21029E+01  2.12060E+01  1.75547E+01  1.16127E+01  4.50151E+00
  -5.65205E+00 -1.53923E+01 -2.45463E+01 -3.48495E+01 -4.16250E+01 -4.66849E+01 -4.97401E+01 -5.06437E+01 -4.66833E+01 -4.44508E+01
  -3.95233E+01 -3.41717E+01 -3.00289E+01 -2.58761E+01 -2.14993E+01 -1.90143E+01 -1.70914E+01 -1.78780E+01 -2.35078E+01 -2.91103E+01
  -3.64388E+01 -4.43518E+01 -5.84954E+01 -5.09466E+01 -6.07267E+01 -6.09984E+01 -4.38248E+01 -1.24304E+01  2.06851E+01  6.97947E+01
   1.12154E+02  1.10506E+02  1.01086E+02  9.29951E+01  8.63014E+01  8.03030E+01  7.54481E+01  7.02002E+01  6.55353E+01  6.13340E+01
   5.80646E+01  5.60957E+01  5.50343E+01  5.50567E+01  5.51340E+01  5.56773E+01  5.56647E+01  5.55254E+01  5.50918E+01  5.41169E+01
   5.29348E+01  5.12187E+01  4.93982E+01  4.72573E+01  4.51779E+01  4.31057E+01  4.08969E+01  3.86097E+01  3.61827E+01  3.35012E+01
   3.04204E+01  2.71420E+01  2.34742E+01  1.99585E+01  1.69026E+01  1.45806E+01  1.33353E+01  1.34381E+01  1.43879E+01  1.59962E+01
   1.79271E+01  2.00277E+01  2.22037E+01  2.44591E+01  2.67288E+01  2.87632E+01  3.07893E+01  3.29314E+01  3.51277E+01  3.74204E+01
   3.97443E+01  4.18948E+01  4.37532E+01  4.56140E+01  4.71968E+01  4.86093E+01  4.97435E+01  5.03502E+01  5.02124E+01  4.98726E+01
   4.89030E+01  4.75775E+01  4.60270E+01  4.42453E+01  4.19454E+01  3.90843E+01  3.53451E+01  3.03793E+01  2.44289E+01  1.77200E+01
   1.12370E+01  5.71882E+00  1.88305E+00 -1.55405E-01  1.85272E-01  2.66011E+00  6.80568E+00  1.35011E+01  1.94155E+01  2.68452E+01
   3.36796E+01  3.52259E+01  3.43039E+01  2.79930E+01  1.83804E+01  9.16893E+00  6.64865E+00  7.20945E+00  1.13635E+01  1.81301E+01
   2.16824E+01  2.35234E+01  2.37308E+01  2.25134E+01  2.06753E+01  1.86452E+01  1.70180E+01  1.64543E+01  1.69636E+01  1.85678E+01
   2.08659E+01  2.39567E+01  2.74012E+01  3.10598E+01  3.47585E+01  3.83203E+01  4.16976E+01  4.48483E+01  4.80052E+01  5.10473E+01
   5.39693E+01  5.70262E+01  6.00074E+01  6.30469E+01  6.62992E+01  7.00023E+01  7.37999E+01  7.81736E+01  8.30526E+01  8.82490E+01
   9.38042E+01  1.00064E+02  1.06579E+02  1.13427E+02  1.20208E+02  1.26281E+02  1.30276E+02  1.31550E+02  1.29455E+02  1.24009E+02
   1.16408E+02  1.07727E+02  9.95470E+01  9.23058E+01  8.64101E+01  8.06434E+01  7.47120E+01  6.83301E+01  6.10811E+01  5.32847E+01
   4.58839E+01  3.92939E+01  3.36463E+01  2.91692E+01  2.59521E+01  2.34036E+01  2.14880E+01  2.00973E+01  1.89124E+01  1.78785E+01
   1.67708E+01  1.60093E+01  1.53037E+01  1.48581E+01  1.44585E+01  1.41715E+01  1.39327E+01  1.34915E+01  1.32481E+01  1.29186E+01
   1.26446E+01  1.23567E+01  1.23027E+01  1.20728E+01  1.16585E+01  1.14211E+01  1.10984E+01  1.08959E+01  1.06766E+01  1.05868E+01
   1.04267E+01  1.03239E+01  9.97226E+00  9.45928E+00  9.13637E+00  8.81366E+00  8.63819E+00  8.49354E+00  8.48206E+00  8.28340E+00
   8.20453E+00  8.05142E+00  7.84437E+00  7.58080E+00  7.17076E+00  6.78834E+00  6.46207E+00  6.16601E+00  6.03989E+00  5.99109E+00
   5.77355E+00  5.42291E+00  5.30020E+00  5.00641E+00  4.90161E+00  4.84494E+00  4.88858E+00  4.67441E+00  4.64881E+00  4.50630E+00
   4.35604E+00  4.17805E+00  3.87536E+00  3.56869E+00  3.20606E+00  3.03681E+00  2.96216E+00  3.11579E+00  3.26548E+00  3.34173E+00
   3.29649E+00  2.93930E+00  2.53335E+00  2.25252E+00  2.05153E+00  1.92511E+00  1.93561E+00  1.76707E+00  1.47850E+00  1.37182E+00
 NY background values follow
     2.348E+01    2.338E+01    2.328E+01    2.318E+01    2.309E+01    2.299E+01    2.289E+01    2.279E+01    2.270E+01    2.261E+01
     2.252E+01    2.243E+01    2.234E+01    2.226E+01    2.218E+01    2.211E+01    2.204E+01    2.197E+01    2.191E+01    2.185E+01
     2.180E+01    2.176E+01    2.172E+01    2.168E+01    2.166E+01    2.164E+01    2.162E+01    2.162E+01    2.162E+01    2.163E+01
     2.164E+01    2.167E+01    2.170E+01    2.175E+01    2.180E+01    2.185E+01    2.192E+01    2.199E+01    2.207E+01    2.216E+01
     2.225E+01    2.235E+01    2.246E+01    2.257E+01    2.269E+01    2.282E+01    2.295E+01    2.308E+01    2.322E+01    2.337E+01
     2.352E+01    2.368E+01    2.384E+01    2.400E+01    2.417E+01    2.434E+01    2.452E+01    2.470E+01    2.488E+01    2.507E+01
     2.526E+01    2.545E+01    2.564E+01    2.584E+01    2.604E+01    2.624E+01    2.644E+01    2.664E+01    2.685E+01    2.705E+01
     2.725E+01    2.746E+01    2.766E+01    2.787E+01    2.807E+01    2.828E+01    2.848E+01    2.868E+01    2.888E+01    2.907E+01
     2.927E+01    2.946E+01    2.965E+01    2.984E+01    3.002E+01    3.020E+01    3.038E+01    3.055E+01    3.072E+01    3.088E+01
     3.104E+01    3.119E+01    3.134E+01    3.148E+01    3.162E+01    3.175E+01    3.188E+01    3.200E+01    3.212E+01    3.223E+01
     3.234E+01    3.244E+01    3.253E+01    3.262E+01    3.270E+01    3.278E+01    3.285E+01    3.291E+01    3.297E+01    3.302E+01
     3.307E+01    3.310E+01    3.314E+01    3.316E+01    3.318E+01    3.320E+01    3.320E+01    3.320E+01    3.319E+01    3.318E+01
     3.316E+01    3.313E+01    3.309E+01    3.305E+01    3.300E+01    3.295E+01    3.289E+01    3.282E+01    3.274E+01    3.266E+01
     3.257E+01    3.248E+01    3.238E+01    3.228E+01    3.216E+01    3.205E+01    3.193E+01    3.180E+01    3.166E+01    3.153E+01
     3.138E+01    3.123E+01    3.108E+01    3.092E+01    3.076E+01    3.059E+01    3.042E+01    3.024E+01    3.006E+01    2.987E+01
     2.968E+01    2.949E+01    2.929E+01    2.909E+01    2.888E+01    2.867E+01    2.846E+01    2.824E+01    2.802E+01    2.780E+01
     2.757E+01    2.734E+01    2.711E+01    2.688E+01    2.664E+01    2.640E+01    2.616E+01    2.592E+01    2.568E+01    2.543E+01
     2.518E+01    2.493E+01    2.468E+01    2.443E+01    2.417E+01    2.392E+01    2.367E+01    2.341E+01    2.315E+01    2.290E+01
     2.264E+01    2.238E+01    2.212E+01    2.187E+01    2.161E+01    2.136E+01    2.110E+01    2.085E+01    2.059E+01    2.034E+01
     2.009E+01    1.985E+01    1.960E+01    1.936E+01    1.912E+01    1.888E+01    1.865E+01    1.842E+01    1.819E+01    1.797E+01
     1.775E+01    1.753E+01    1.732E+01    1.711E+01    1.691E+01    1.671E+01    1.652E+01    1.633E+01    1.615E+01    1.597E+01
     1.581E+01    1.564E+01    1.548E+01    1.533E+01    1.518E+01    1.504E+01    1.490E+01    1.476E+01    1.462E+01    1.449E+01
     1.436E+01    1.423E+01    1.410E+01    1.397E+01    1.384E+01    1.371E+01    1.358E+01    1.345E+01    1.331E+01    1.318E+01
     1.304E+01    1.289E+01    1.275E+01    1.259E+01    1.244E+01    1.228E+01    1.211E+01    1.194E+01    1.176E+01    1.157E+01
     1.138E+01    1.117E+01    1.096E+01    1.075E+01    1.052E+01    1.029E+01    1.004E+01    9.793E+00    9.533E+00    9.265E+00
     8.989E+00    8.704E+00    8.410E+00    8.107E+00    7.795E+00    7.475E+00    7.145E+00    6.806E+00    6.457E+00    6.100E+00
     5.732E+00    5.356E+00    4.969E+00    4.573E+00    4.167E+00    3.752E+00    3.326E+00    2.890E+00    2.444E+00    1.988E+00
     1.522E+00    1.046E+00    5.621E-01    7.215E-02   -4.224E-01   -9.200E-01   -1.419E+00   -1.918E+00   -2.415E+00   -2.909E+00
    -3.397E+00   -3.880E+00   -4.354E+00   -4.818E+00   -5.270E+00   -5.710E+00   -6.135E+00   -6.544E+00   -6.936E+00   -7.307E+00
    -7.658E+00   -7.986E+00   -8.290E+00   -8.568E+00   -8.819E+00   -9.040E+00   -9.231E+00   -9.390E+00   -9.515E+00   -9.604E+00
    -9.657E+00   -9.672E+00   -9.651E+00   -9.595E+00   -9.504E+00   -9.379E+00   -9.221E+00   -9.032E+00   -8.810E+00   -8.559E+00
    -8.278E+00   -7.968E+00   -7.630E+00   -7.265E+00   -6.873E+00   -6.456E+00   -6.015E+00   -5.550E+00   -5.062E+00   -4.551E+00
    -4.020E+00   -3.468E+00   -2.896E+00   -2.306E+00   -1.698E+00   -1.072E+00   -4.307E-01    2.263E-01    8.980E-01    1.583E+00
     2.282E+00    2.992E+00    3.713E+00    4.445E+00    5.185E+00    5.933E+00    6.688E+00    7.449E+00    8.215E+00    8.985E+00
     9.758E+00    1.053E+01    1.131E+01    1.208E+01    1.286E+01    1.363E+01    1.440E+01    1.516E+01    1.592E+01    1.668E+01
     1.742E+01    1.816E+01    1.889E+01    1.961E+01    2.032E+01    2.101E+01    2.169E+01    2.236E+01    2.301E+01    2.365E+01
     2.427E+01    2.487E+01    2.546E+01    2.602E+01    2.657E+01    2.710E+01    2.761E+01    2.810E+01    2.857E+01    2.902E+01
     2.946E+01    2.987E+01    3.027E+01    3.064E+01    3.099E+01    3.133E+01    3.164E+01    3.193E+01    3.221E+01    3.246E+01
     3.269E+01    3.289E+01    3.308E+01    3.324E+01    3.338E+01    3.350E+01    3.360E+01    3.367E+01    3.373E+01    3.375E+01
     3.376E+01    3.374E+01    3.370E+01    3.364E+01    3.356E+01    3.346E+01    3.333E+01    3.319E+01    3.303E+01    3.286E+01
     3.266E+01    3.245E+01    3.223E+01    3.198E+01    3.173E+01    3.146E+01    3.118E+01    3.088E+01    3.057E+01    3.026E+01
     2.993E+01    2.959E+01    2.924E+01    2.888E+01    2.852E+01    2.814E+01    2.777E+01    2.738E+01    2.699E+01    2.659E+01
     2.619E+01    2.579E+01    2.538E+01    2.497E+01    2.456E+01    2.414E+01    2.372E+01    2.330E+01    2.288E+01    2.246E+01
     2.203E+01    2.160E+01    2.118E+01    2.075E+01    2.032E+01    1.989E+01    1.947E+01    1.904E+01    1.861E+01    1.819E+01
     1.777E+01    1.735E+01    1.693E+01    1.651E+01    1.610E+01    1.569E+01    1.529E+01    1.488E+01    1.448E+01    1.409E+01
     1.370E+01    1.331E+01    1.293E+01    1.255E+01    1.218E+01    1.181E+01    1.144E+01    1.108E+01    1.072E+01    1.036E+01
     1.001E+01    9.656E+00    9.307E+00    8.960E+00    8.614E+00    8.271E+00    7.930E+00    7.590E+00    7.251E+00    6.914E+00
     6.577E+00    6.242E+00    5.907E+00    5.572E+00    5.238E+00    4.904E+00    4.570E+00    4.236E+00    3.901E+00    3.565E+00
 Mac      Conc. = 2.34E-04
   7.30189E+00  6.70542E+00  6.25994E+00  5.98834E+00  5.58779E+00  4.94930E+00  3.88968E+00  2.58048E+00  9.68866E-01 -3.29457E-01
  -1.35216E+00 -1.92251E+00 -2.29960E+00 -2.86790E+00 -3.53971E+00 -4.90113E+00 -5.98110E+00 -6.06970E+00 -4.82947E+00 -2.37657E+00
   1.23362E+00  4.80456E+00  7.32690E+00  9.38788E+00  1.11097E+01  1.21419E+01  1.30507E+01  1.43112E+01  1.58363E+01  1.74411E+01
   1.89353E+01  2.02626E+01  2.11300E+01  2.15990E+01  2.17526E+01  2.17712E+01  2.19989E+01  2.27955E+01  2.42448E+01  2.57740E+01
   2.70582E+01  2.77394E+01  2.80019E+01  2.84338E+01  2.93187E+01  3.04608E+01  3.12873E+01  3.17352E+01  3.15008E+01  3.08329E+01
   2.99850E+01  2.90627E+01  2.82293E+01  2.75575E+01  2.72533E+01  2.69860E+01  2.71806E+01  2.78174E+01  2.86775E+01  2.99471E+01
   3.15023E+01  3.26850E+01  3.36365E+01  3.42435E+01  3.43527E+01  3.37781E+01  3.32913E+01  3.27822E+01  3.23762E+01  3.23987E+01
   3.30568E+01  3.43121E+01  3.61387E+01  3.82502E+01  3.99616E+01  4.08831E+01  4.12483E+01  4.12135E+01  4.08853E+01  4.04828E+01
   4.01130E+01  3.97610E+01  3.97884E+01  3.98818E+01  4.03480E+01  4.09516E+01  4.19214E+01  4.27018E+01  4.34905E+01  4.41964E+01
   4.48990E+01  4.53720E+01  4.58633E+01  4.61695E+01  4.60558E+01  4.53870E+01  4.42983E+01  4.26595E+01  4.07183E+01  3.90512E+01
   3.74881E+01  3.60122E+01  3.44985E+01  3.24756E+01  2.95215E+01  2.55901E+01  2.07491E+01  1.56704E+01  1.11543E+01  8.15129E+00
