 
 $NMID
 ID=''
 FMTDAT='(2E13.5)'
 TRAMP=   1.00000E+0
 VOLUME=   1.00000E+0
 $END
  -1.96004E+4   1.22033E+3
  -4.79462E+3   1.69354E+4
   1.40798E+4  -6.61850E+3
  -1.94401E+3  -1.50336E+4
  -6.53436E+3   1.13481E+4
   6.61401E+3   5.44211E+3
  -1.65352E+3  -1.21118E+4
  -4.56094E+3   7.66913E+2
   8.05190E+3   3.93660E+3
   1.82819E+3  -4.13939E+3
  -6.00010E+3   3.57255E+3
   2.10266E+3   2.41193E+3
   1.14834E+3  -3.52932E+3
  -2.99740E+3   5.80759E+3
   1.95182E+2   2.66869E+3
  -9.08491E+2  -8.06861E+3
  -9.92964E+2   1.50106E+2
   3.99769E+3   5.54166E+3
  -1.26819E+2  -3.12546E+3
  -2.18891E+3  -2.31886E+3
   2.61214E+3   2.10057E+3
   3.15981E+2  -1.38636E+3
  -1.57316E+3  -1.31909E+3
   1.82348E+3   1.11005E+3
  -3.80360E+2  -5.16966E+2
  -2.25975E+3  -1.67960E+3
   2.24404E+3  -8.53749E+2
   1.13955E+3   1.28982E+3
  -1.78355E+3   2.08902E+3
   2.06610E+2  -3.98517E+2
   5.66062E+2  -1.27243E+3
  -2.41316E+2   1.78364E+3
   7.05646E+1   2.13921E+3
  -1.85280E+3   5.99543E+2
  -2.69487E+3  -1.12600E+3
   4.64681E+2  -2.81105E+3
   2.34293E+3  -4.98987E+2
   7.12584E+2   2.47395E+3
  -1.04567E+2  -2.35912E+1
   2.08295E+1  -7.34241E+2
   4.00902E+1   1.68977E+3
  -8.38003E+2   6.80126E+2
  -1.00357E+3  -1.97226E+3
   5.00905E+2  -1.30542E+3
   1.44878E+3  -3.17733E+2
   9.72252E+2  -2.41886E+2
   1.17319E+3   1.22673E+3
   3.04954E+2   1.90863E+3
  -1.60556E+3   1.12923E+3
  -1.18199E+3  -8.85761E+1
  -1.88652E+2  -5.28547E+2
  -3.26868E+2  -6.15361E+2
   1.36242E+2  -5.55576E+2
   5.37465E+2  -3.00816E+2
   5.37924E+2  -6.95096E+1
   5.06462E+2   6.22599E+2
  -1.22786E+2   1.09874E+3
  -1.42570E+3   7.81843E+1
  -6.74493E+2  -1.26904E+3
   6.01658E+2  -1.44734E+3
   7.51584E+2  -3.49430E+2
   6.58273E+2   3.85571E+2
   1.02760E+3   4.06795E+2
   5.54825E+2   1.44154E+3
  -6.82275E+2   1.92882E+3
  -1.71973E+3   9.34254E+2
  -1.90056E+3  -9.03634E+2
  -8.41407E+2  -1.52514E+3
   6.78233E+2  -6.88141E+2
   2.76869E+2   2.05220E+2
  -8.01533E+2   1.87197E+2
  -4.05465E+2  -6.63704E+2
   9.09107E+2  -6.71541E+2
   7.01153E+2   2.87507E+2
   1.98856E+1   5.28070E+2
  -8.80869E+1   9.21812E+1
   8.86610E+1   1.62409E+2
   6.61065E+2   2.67654E+2
   4.96717E+0   2.52747E+2
  -3.54581E+2   8.27541E+2
  -5.22640E+2   6.00064E+2
  -3.31065E+2  -2.09558E+2
  -1.17497E+2  -3.36041E+1
   9.74608E+1   2.18695E+2
  -3.14389E+2   2.55974E+2
  -5.47606E+2  -7.11373E+2
   3.57383E+2  -5.75502E+2
   6.25131E+2   4.95933E+1
   7.20576E+1   5.17902E+1
   2.04383E+1  -1.01372E+2
   7.99971E+2  -1.67217E+2
   8.25842E+2   3.03886E+2
   2.41813E+2   1.03265E+3
  -5.90802E+2   1.35289E+3
  -7.16381E+2   1.41669E+2
  -7.50159E+2  -7.94378E+2
  -4.49984E+1  -4.67039E+2
   2.11109E+1   3.06676E+1
  -1.42111E+2  -1.41566E+2
   3.62765E+1  -4.01176E+2
   8.23144E+2  -2.06960E+2
   7.26831E+2   5.32891E+2
  -3.87730E+2   8.77138E+2
  -1.15005E+3   5.41436E+1
  -1.64150E+2  -8.27320E+2
   6.38494E+2  -1.75775E+2
   3.88833E+2   5.17537E+2
  -6.52496E+2   5.50108E+2
  -9.72725E+2  -5.00730E+2
  -1.41632E+2  -9.25631E+2
   5.97538E+2  -7.89281E+2
   7.29935E+2  -9.68394E+1
   4.02936E+2   2.23024E+2
   1.36999E+2   8.17286E+1
   1.19562E+2   2.54370E+2
   1.72847E+2   5.99414E+2
  -2.44438E+2   8.47731E+2
  -8.43888E+2   2.81316E+2
  -8.35849E+2  -6.66752E+2
  -1.49057E+2  -1.01253E+3
   9.96634E+2  -4.27070E+2
   6.98490E+2  -2.28361E+2
   5.98871E+2  -1.79302E+0
   3.63810E+2   2.31537E+2
   5.67572E+1   5.13986E+2
  -3.86188E+2   3.20087E+2
  -5.43296E+2  -2.65880E+2
  -1.95947E+1  -3.26941E+2
   4.14269E+2  -1.63472E+2
   6.05729E+2  -1.29573E+2
   2.63944E+2   5.82327E+2
  -3.67288E+2   2.03036E+2
  -4.61751E+2  -3.16189E+2
   3.26581E+2  -2.05703E+2
   1.66036E+2   5.74781E+1
  -2.55698E+2   1.28782E+2
  -1.21635E+2  -3.43451E+2
   5.50646E+2  -3.95004E+2
   2.10218E+2   1.62739E+2
   1.34855E+2   5.03189E+2
  -7.09606E+2   1.71538E+2
  -1.15632E+2  -4.64791E+2
   1.69503E+2  -7.63601E+2
   5.62750E+2   6.78505E+1
   4.65684E+2   6.79539E+2
   1.11929E+2   5.26591E+2
  -3.16038E+2   3.56488E+2
  -1.85448E+2   2.33200E+2
  -3.00121E+2  -4.65685E+0
  -5.00648E+2  -2.48339E+2
  -5.99777E+2  -5.17497E+2
  -1.48762E+2  -5.93485E+2
   4.59972E+2  -5.28644E+2
   2.63989E+2   2.53802E+1
  -7.70518E+0   2.98266E+2
  -1.18563E+2  -1.04067E+2
  -3.90355E+1  -1.64341E+1
   3.24607E+2   1.59268E+1
   1.06523E+1   1.35117E+2
   1.05552E+2   1.24418E+0
   3.19092E+1   2.66711E+2
  -2.53615E+0   1.70773E+2
  -2.27866E+2   1.42164E+2
  -2.79496E+2   2.76630E+2
  -4.83616E+2  -3.89362E+2
   2.27271E+2  -4.72281E+2
   5.86833E+2  -1.48511E+2
   3.54428E+2   4.02471E+2
  -1.27189E+1  -1.64446E+1
  -1.42538E+2  -2.32999E+2
   1.38306E+2  -1.95193E+2
   2.21859E+1  -3.65859E+1
   1.94571E+2   2.04881E+2
   2.00278E+2  -4.37770E-1
  -2.98200E+2  -4.44437E+1
   2.93626E+2  -3.39895E+2
   4.01621E+2   2.88518E+2
  -3.31022E+2   1.96367E+2
  -1.74044E+2  -2.18023E+2
   1.93914E+2  -5.64470E+2
   4.14354E+2  -7.24298E+1
   1.94715E+2   3.42564E+2
  -1.00113E+2   1.94963E+2
   1.36237E+2   1.36851E+2
  -2.50368E+2  -1.40598E+2
  -1.81449E+2  -7.43574E+1
  -5.14109E+1  -1.02836E+2
  -3.30317E+2  -2.66840E+2
   2.69042E+2  -6.57525E+2
   6.92602E+2  -3.71602E+2
   4.57499E+2   4.01619E+2
  -1.26095E+2   3.91124E+2
  -4.03551E+2   3.42860E+2
  -2.16356E+2  -1.04303E+2
  -9.43833E+1  -2.37993E+2
  -1.18225E+1  -2.66180E+1
   2.98192E+2   7.78209E+0
   2.74199E+2   4.51959E+0
   1.81985E+2  -1.06883E+2
   3.06326E+2   1.79577E+2
  -1.20396E+2   1.99901E+2
  -2.60273E+2  -1.62621E+2
  -1.93985E+2  -5.75360E+2
   2.27910E+2  -4.96656E+2
   2.62272E+2  -2.70905E+2
  -9.83551E+1   3.56727E+1
  -1.54030E+2   1.02436E+0
  -3.39583E+1  -1.21834E+2
   3.15240E+2  -1.29325E+2
  -2.25122E+1  -5.62189E+1
  -1.74906E+2  -2.31422E+2
  -7.56268E+1  -2.54941E+2
   4.64380E+2  -1.85293E+2
   4.18383E+2   3.62760E+2
   4.31117E+1   5.17031E+2
  -4.01768E+2   4.55255E+2
  -3.78035E+2  -3.10101E+2
  -3.11530E+1  -1.98697E+2
   3.46224E+2  -3.22305E+1
  -1.33918E+2  -7.83042E+1
  -1.28517E+2  -2.35165E+2
   1.03287E+2  -2.55100E+2
   1.25303E+2   1.18981E+2
   8.72865E+1   3.00750E+2
  -3.03064E+2   4.82499E+2
  -2.80598E+2  -1.25991E+2
  -3.21617E+1  -4.86261E+2
   1.54529E+2  -4.89858E+1
  -5.38607E+1   1.07649E+2
  -8.55604E+1   1.71765E+2
  -1.78800E+2  -5.88316E+1
   1.00956E+2   2.05956E+1
   1.13071E+2  -7.75348E+1
  -1.93346E+2  -4.04177E+1
  -2.92419E+2  -3.59273E+2
   5.86896E+1  -3.56518E+2
   1.53846E+2   7.74060E+1
  -2.71078E+1   4.27322E+1
  -1.54538E+2   8.16043E+1
  -1.71918E+2   5.78070E+1
   1.70325E+2  -2.08080E+2
   3.03275E+2   8.48670E+1
   5.33809E+1   3.50303E+2
  -8.34530E+1   1.97568E+2
  -2.79172E+2  -1.67134E+2
   1.85885E+1  -1.45840E+2
  -6.84532E+1   2.52163E+2
  -2.02731E+2   1.32210E+2
  -8.47904E+1  -9.66010E+1
   2.79816E+2  -1.51825E+2
   2.96229E+2  -1.38764E+2
  -1.17166E+2   1.79408E+2
  -1.08823E+2   1.41992E+2
  -1.23168E+2  -9.67008E+1
   4.31596E+1  -3.21052E+2
   2.83825E+2  -2.39749E+2
   5.82057E+1  -4.84169E+0
  -6.47273E+0   2.30185E+2
   2.61154E+1   1.02942E+2
   1.01723E+2   2.23363E+2
   1.68562E+1   2.14837E+2
  -4.92021E+2   1.26818E+2
  -3.49199E+2  -1.33908E+2
   1.51779E+2  -7.54509E+1
   5.13600E+2  -2.70012E+2
   1.92577E+2  -2.12400E+1
  -8.56278E+1   1.42590E+2
  -1.76088E+2   1.78320E+2
   4.83234E+1   1.43739E+2
  -2.75796E+1  -1.15436E+2
  -3.41697E+1   2.81950E+1
   2.07762E+2   4.91917E+1
   5.41923E+1  -1.34095E+2
   2.22540E+1   1.67505E+2
   1.95955E+2  -5.68544E+1
  -3.44636E+2   4.32304E+2
  -3.67018E+2   6.65243E+1
  -1.33888E+2  -1.72029E+2
   1.62218E+2  -3.40195E+2
   2.18860E+2   1.30484E+2
  -1.60831E+2   1.42992E+2
  -5.19018E+1  -9.05375E+1
   9.93028E+1  -2.01756E+1
   2.19594E+1   1.58816E+2
  -3.33910E+2   6.45517E+1
  -2.00785E+1   4.82566E+0
  -2.29293E+2  -4.44092E+2
   1.51481E+2  -1.38477E+2
   2.72478E+2   5.13164E+1
   1.58618E+2   4.44910E+2
  -1.42957E+2  -6.08822E+0
  -2.28900E+2   1.40431E+2
   1.64549E+2   2.80586E+1
  -3.21738E+2   1.27094E+2
  -1.19642E+1   7.12823E+1
   2.27863E+1  -8.82365E+1
   3.94438E+2   6.99150E+1
   9.70371E+1  -5.28940E+0
   1.30164E+2   1.35456E+2
  -1.95671E+2   2.02732E+2
  -3.31057E+2  -1.65443E+2
   1.21177E+2  -4.84563E+1
   2.58629E+2   3.32745E+2
  -2.40164E+2   2.69257E+2
  -1.73232E+2  -2.40131E+1
  -1.97697E+2  -2.56870E+2
  -7.56440E+1  -3.36760E+2
   1.88717E+1  -1.54966E+2
  -1.19446E+2   1.95514E+2
  -1.61322E+2   5.68061E+1
   1.69153E+2   1.31435E+2
   1.98641E+2  -5.40886E+1
  -3.87185E+1   3.63927E+2
  -6.45912E+1   4.86349E+1
  -3.05948E+1   6.31084E+1
  -1.05598E+2  -7.86906E+1
   1.51452E+2  -3.52419E+1
   4.29346E+1   1.75179E+2
  -1.65403E+2   5.01407E+1
   1.32235E+2   8.49852E+1
  -5.51111E+1   9.45713E+1
  -7.66420E+1   1.29725E+2
  -2.89458E+2   2.20056E+2
  -9.98491E+1  -7.55991E+1
  -4.86091E+1   1.40570E+1
   1.59112E+2   5.00755E+1
  -2.66654E+1   2.87590E+2
   8.19799E+1   7.09715E+1
  -2.79776E+2  -1.20085E+2
   4.35637E+1  -1.86167E+2
   1.46108E+2   7.51799E+1
  -8.17390E+1  -1.15390E+2
  -4.33343E+1  -5.96891E+1
  -5.23673E+0   2.45204E+1
   2.35265E+2   2.39599E+2
   1.38536E+2   4.11109E+2
  -1.33871E+2   2.29340E+2
  -1.97137E+2   7.49811E+1
  -1.87302E+2  -2.37761E+2
  -3.62635E+1  -4.43717E+2
   6.65104E+1   9.62522E+1
  -2.54405E+2  -1.45856E+2
  -1.30809E+2  -6.61503E+1
  -2.25738E+1  -5.86101E+0
   2.14137E+2  -8.30902E+1
   1.56026E+2   1.57454E+2
   9.94744E+0  -1.12441E+2
   1.08602E+2   7.12145E+1
  -5.42670E+1  -8.97688E+1
   1.63567E+2   2.66500E+2
  -6.36151E+1   2.83800E+2
  -2.24851E+2   1.45062E+1
  -1.51064E+1  -1.15706E+2
  -3.38877E+1   1.79357E+1
  -3.38185E+1   1.79531E-1
  -1.41536E+2  -9.17482E+1
  -1.09526E+2  -5.28770E+0
   3.11830E+2   3.43650E+1
  -1.45574E+2   1.07041E+2
  -1.02850E+2   2.32118E+2
  -2.60652E+2   6.04764E+1
  -2.72518E+2  -1.67416E+2
   1.59131E+2  -3.93866E+2
   1.18185E+2  -1.22861E+2
   4.25465E+1   9.57556E+1
  -1.84231E+2   5.57047E+1
   8.68156E+1   4.96321E+1
