 LCModel (Version 6.3-1N) Copyright: S.W. Provencher.          Ref.: Magn. Reson. Med. 30:672-679 (1993).                
 Slice_N1@15_20  28-Feb-2025 11:38:35
 27 lines in following concentration table = NCONC+1
    Conc.  %SD /Cr+PCr  Metabolite                                         
 2.55E-04   3% 2.6E-04 Mac                                                 
    4.016  16%   4.115 Cr                                                  
    3.791  16%   3.885 PCr                                                 
    6.241  11%   6.395 Ins                                                 
    9.104   6%   9.329 NAA                                                 
    5.702  11%   5.843 Tau                                                 
    0.648  75%   0.664 PCho                                                
    1.256  37%   1.287 GPC                                                 
    7.540  10%   7.727 Glu                                                 
    3.296  19%   3.377 Gln                                                 
    1.866  26%   1.912 Ala                                                 
    2.788  31%   2.857 Asc                                                 
    2.466  33%   2.527 Asp                                                 
    0.318 133%   0.326 GABA                                                
    1.078  57%   1.105 Glc                                                 
    1.431  26%   1.467 GSH                                                 
    1.596  30%   1.635 Lac                                                 
    1.468  26%   1.505 NAAG                                                
    0.659 121%   0.675 PE                                                  
    1.904  12%   1.951 GPC+PCho                                            
   10.572   6%  10.834 NAA+NAAG                                            
   10.836   9%  11.104 Glu+Gln                                             
    7.807   7%   8.000 Cr+PCr                                              
   10.572   6%  10.834 NAA+NAAG                                            
    7.807   7%   8.000 Cr+PCr                                              
   10.836   9%  11.104 Glu+Gln                                             
   6 lines in following misc. output table
  FWHM = 0.016 ppm    S/N =   5                                            
  Data shift = 0.024 ppm                                                   
  Ph: -87 deg       0.0 deg/ppm                                            
  alphaB,S = 6.1E-01,   3.5E-01                                            
   19 spline knots.   Ns = 5(1)                                            
   2 inflections.     2 extrema                                            
  480 points on ppm-axis = NY
      4.100000     4.091866     4.083733     4.075600     4.067466     4.059333     4.051199     4.043066     4.034933     4.026799
      4.018666     4.010532     4.002399     3.994265     3.986132     3.977998     3.969864     3.961731     3.953597     3.945463
      3.937330     3.929196     3.921062     3.912929     3.904795     3.896662     3.888528     3.880394     3.872261     3.864127
      3.855993     3.847860     3.839726     3.831592     3.823459     3.815325     3.807191     3.799058     3.790924     3.782790
      3.774657     3.766523     3.758389     3.750256     3.742122     3.733989     3.725855     3.717721     3.709588     3.701454
      3.693320     3.685187     3.677053     3.668919     3.660786     3.652652     3.644518     3.636385     3.628251     3.620117
      3.611984     3.603850     3.595716     3.587583     3.579449     3.571316     3.563182     3.555048     3.546915     3.538781
      3.530647     3.522514     3.514380     3.506246     3.498113     3.489979     3.481845     3.473712     3.465578     3.457444
      3.449311     3.441177     3.433043     3.424910     3.416776     3.408643     3.400509     3.392375     3.384242     3.376108
      3.367974     3.359841     3.351707     3.343573     3.335440     3.327306     3.319172     3.311039     3.302905     3.294771
      3.286638     3.278504     3.270370     3.262237     3.254103     3.245970     3.237836     3.229702     3.221569     3.213435
      3.205301     3.197168     3.189034     3.180900     3.172767     3.164633     3.156499     3.148366     3.140232     3.132098
      3.123965     3.115831     3.107697     3.099564     3.091430     3.083297     3.075163     3.067029     3.058896     3.050762
      3.042628     3.034495     3.026361     3.018227     3.010094     3.001960     2.993826     2.985693     2.977559     2.969425
      2.961292     2.953158     2.945024     2.936891     2.928757     2.920624     2.912490     2.904356     2.896223     2.888089
      2.879955     2.871822     2.863688     2.855554     2.847421     2.839287     2.831153     2.823020     2.814886     2.806752
      2.798619     2.790485     2.782351     2.774218     2.766084     2.757951     2.749817     2.741683     2.733550     2.725416
      2.717282     2.709149     2.701015     2.692881     2.684748     2.676614     2.668480     2.660347     2.652213     2.644079
      2.635946     2.627812     2.619678     2.611545     2.603411     2.595278     2.587144     2.579010     2.570877     2.562743
      2.554609     2.546476     2.538342     2.530208     2.522075     2.513941     2.505807     2.497674     2.489540     2.481406
      2.473273     2.465139     2.457006     2.448872     2.440738     2.432605     2.424471     2.416337     2.408204     2.400070
      2.391936     2.383803     2.375669     2.367535     2.359402     2.351268     2.343134     2.335001     2.326867     2.318733
      2.310600     2.302466     2.294333     2.286199     2.278065     2.269932     2.261798     2.253664     2.245531     2.237397
      2.229263     2.221130     2.212996     2.204862     2.196729     2.188595     2.180461     2.172328     2.164194     2.156060
      2.147927     2.139793     2.131660     2.123526     2.115392     2.107259     2.099125     2.090991     2.082858     2.074724
      2.066590     2.058457     2.050323     2.042189     2.034056     2.025922     2.017788     2.009655     2.001521     1.993387
      1.985254     1.977120     1.968987     1.960853     1.952719     1.944586     1.936452     1.928318     1.920185     1.912051
      1.903917     1.895784     1.887650     1.879516     1.871383     1.863249     1.855115     1.846982     1.838848     1.830714
      1.822581     1.814447     1.806314     1.798180     1.790046     1.781913     1.773779     1.765645     1.757512     1.749378
      1.741244     1.733111     1.724977     1.716843     1.708710     1.700576     1.692442     1.684309     1.676175     1.668041
      1.659908     1.651774     1.643641     1.635507     1.627373     1.619240     1.611106     1.602972     1.594839     1.586705
      1.578571     1.570438     1.562304     1.554170     1.546037     1.537903     1.529769     1.521636     1.513502     1.505368
      1.497235     1.489101     1.480968     1.472834     1.464700     1.456567     1.448433     1.440299     1.432166     1.424032
      1.415898     1.407765     1.399631     1.391497     1.383364     1.375230     1.367096     1.358963     1.350829     1.342695
      1.334562     1.326428     1.318295     1.310161     1.302027     1.293894     1.285760     1.277626     1.269493     1.261359
      1.253225     1.245092     1.236958     1.228824     1.220691     1.212557     1.204423     1.196290     1.188156     1.180022
      1.171889     1.163755     1.155622     1.147488     1.139354     1.131221     1.123087     1.114953     1.106820     1.098686
      1.090552     1.082419     1.074285     1.066151     1.058018     1.049884     1.041750     1.033617     1.025483     1.017349
      1.009216     1.001082     0.992949     0.984815     0.976681     0.968548     0.960414     0.952280     0.944147     0.936013
      0.927879     0.919746     0.911612     0.903478     0.895345     0.887211     0.879077     0.870944     0.862810     0.854676
      0.846543     0.838409     0.830276     0.822142     0.814008     0.805875     0.797741     0.789607     0.781474     0.773340
      0.765206     0.757073     0.748939     0.740805     0.732672     0.724538     0.716404     0.708271     0.700137     0.692003
      0.683870     0.675736     0.667603     0.659469     0.651335     0.643202     0.635068     0.626934     0.618801     0.610667
      0.602533     0.594400     0.586266     0.578132     0.569999     0.561865     0.553731     0.545598     0.537464     0.529330
      0.521197     0.513063     0.504930     0.496796     0.488662     0.480529     0.472395     0.464261     0.456128     0.447994
      0.439861     0.431727     0.423593     0.415460     0.407326     0.399192     0.391059     0.382925     0.374792     0.366658
      0.358524     0.350391     0.342257     0.334124     0.325990     0.317856     0.309723     0.301589     0.293455     0.285322
      0.277188     0.269055     0.260921     0.252787     0.244654     0.236520     0.228386     0.220253     0.212119     0.203986
 NY phased data points follow
  -7.23457E+01 -8.34571E+01 -8.50797E+01 -8.75297E+01 -9.99062E+01 -6.97154E+01 -7.60290E+01 -6.84940E+01 -6.66402E+01 -7.83419E+01
  -8.11543E+01 -8.97684E+01 -7.93442E+01 -1.01526E+02 -1.03414E+02 -9.97328E+01 -1.10559E+02 -1.10144E+02 -1.13555E+02 -1.38398E+02
  -1.74324E+02 -1.45538E+02 -1.18236E+02 -1.25259E+02 -7.88235E+01 -4.36795E+01 -5.53447E+01 -5.88692E+01 -5.48132E+01 -4.58956E+01
  -5.19272E+01 -5.19327E+01 -5.01773E+01 -5.45382E+01 -4.58567E+01 -4.80378E+01 -3.79599E+01 -4.06880E+01 -6.22237E+01 -8.31922E+01
  -9.36299E+01 -1.07705E+02 -1.03810E+02 -9.30290E+01 -1.00004E+02 -5.89119E+01 -3.75399E+01 -2.88887E+01 -2.86382E+01 -2.30229E+01
  -1.83166E+00 -2.47799E+01 -2.14899E+01 -2.21483E+01 -3.37015E+01 -4.63438E+01 -3.89312E+01 -4.18026E+01 -7.19793E+01 -8.40460E+01
  -7.77955E+01 -4.40083E+01 -5.85164E+01 -3.97870E+01 -8.10026E+00  3.81812E+00  2.26539E+01 -1.16238E+01 -3.50755E+01 -8.53998E+01
  -8.70836E+01 -4.89537E+01 -6.46609E+01 -5.60991E+01 -3.03526E+01 -4.79535E+00 -7.05226E+00 -2.03603E+01 -2.20440E+00 -6.90032E-01
  -9.74626E-01  5.67309E+00 -1.66110E+01 -3.10974E+01 -5.65643E+01 -6.79506E+01 -4.43636E+01 -3.80590E+01 -2.64677E+01 -1.82689E+01
   9.62247E-01  8.71191E+00  4.62975E+00  1.87858E+01  1.98559E+01  2.01515E+01  2.17502E+01  3.37373E+01  3.69607E+01  1.83499E+01
   2.81187E+01  2.50474E+01 -9.71140E+00 -8.52733E+00 -9.51423E+00 -2.58296E+01 -3.35372E+01 -4.33134E+01 -3.73756E+01 -7.66138E+01
  -1.66539E+02 -2.08537E+02 -1.82053E+02 -1.38187E+02 -1.03161E+02 -9.14606E+01 -8.21289E+01 -6.59299E+01 -5.84368E+01 -5.47092E+01
  -5.24144E+01 -4.13776E+01 -4.82678E+01 -4.80369E+01 -3.02760E+01 -2.00434E+01 -1.24350E+01 -9.12706E+00  1.00226E+01  5.02978E+01
   1.10795E+02  1.31601E+02  4.17440E+01 -9.92363E+01 -1.38269E+02 -1.13300E+02 -1.09866E+02 -1.07729E+02 -1.02928E+02 -9.09621E+01
  -1.03269E+02 -1.02302E+02 -9.68834E+01 -8.74895E+01 -8.47634E+01 -1.04199E+02 -1.01699E+02 -1.08980E+02 -8.60354E+01 -6.99634E+01
  -8.85626E+01 -7.84551E+01 -6.18719E+01 -7.87616E+01 -7.44997E+01 -6.79529E+01 -7.77472E+01 -5.57448E+01 -6.82489E+01 -5.80584E+01
  -4.52449E+01 -5.78810E+01 -5.57954E+01 -7.21515E+01 -6.50073E+01 -6.31851E+01 -6.31659E+01 -5.20765E+01 -6.17706E+01 -6.47399E+01
  -5.21780E+01 -5.41765E+01 -2.26780E+01 -7.45384E+00 -4.23321E+01 -4.28709E+01 -3.11454E+01 -7.90779E+00 -1.39333E+01 -3.37310E+01
  -5.22551E+01 -6.77109E+01 -5.71877E+01 -6.54797E+01 -7.27346E+01 -7.79627E+01 -7.21254E+01 -8.34314E+01 -8.69761E+01 -5.87647E+01
  -5.85414E+01 -6.66614E+01 -5.24826E+01 -4.92599E+01 -4.23039E+01 -3.71552E+01 -5.33496E+01 -3.80405E+01 -4.48542E+01 -4.11192E+01
  -4.01776E+01 -5.05136E+01 -3.24466E+01 -2.56583E+01 -1.43488E+01 -4.37873E+01 -4.22519E+01 -4.26594E+01 -5.58844E+01 -5.41787E+01
  -6.40836E+01 -6.22621E+01 -8.49725E+01 -6.07150E+01 -5.01207E+01 -2.76116E+01  1.41518E+01  8.84334E+00  2.25431E+01  3.78786E+00
  -2.59259E+01 -3.75223E+01 -3.60247E+01 -3.23854E+01 -4.34485E+01 -4.88334E+01 -4.11624E+01 -3.13847E+01 -2.91403E+01 -2.68945E+01
  -2.79921E+01 -3.81925E+01 -4.87261E+01 -5.05186E+01 -5.47939E+01 -6.05888E+01 -7.86692E+01 -8.22240E+01 -8.47559E+01 -9.07981E+01
  -7.55883E+01 -7.64791E+01 -7.08624E+01 -5.46971E+01 -5.20512E+01 -4.17780E+01 -1.85960E+01 -3.91158E+01 -4.03578E+01 -4.84564E+01
  -7.65225E+01 -5.67400E+01 -6.70422E+01 -6.33408E+01 -8.66871E+01 -1.15380E+02 -1.70671E+02 -1.50624E+02  6.54521E+01  1.28470E+02
   9.70380E+01  9.83413E+01  9.30381E+01  9.24490E+01  5.63937E+01  6.13348E+01  5.68393E+01  5.02282E+01  4.31315E+01  3.61876E+01
   5.39947E+01  4.49525E+01  4.66720E+01  4.43394E+01  3.90031E+01  4.32152E+01  4.57896E+01  3.72377E+01  3.06806E+01  4.60246E+01
   4.35755E+01  5.04294E+01  4.70081E+01  4.15180E+01  4.81849E+01  2.52243E+01  2.55556E+01  2.29669E+01  2.08097E+01  3.74496E+01
   3.80642E+01  2.65241E+01  2.51919E+01  2.16148E+01  7.42229E+00  2.19046E+01  4.93915E+00  5.69395E+00  9.01843E+00 -1.27327E+01
   1.29378E+01  6.68848E+00  1.08506E+01  1.72019E+01  1.60905E+01  2.60309E+01  1.77624E+01  2.45725E+01  2.28536E+01  3.37275E+01
   2.74391E+01  1.44568E+01  3.14962E+01  3.31266E+01  2.84791E+01  2.07842E+01  3.02749E+01  3.61189E+01  1.55725E+01  2.12143E+01
   6.27749E+00 -1.25714E+01  2.28792E-01 -2.67047E+01 -1.98409E+01 -4.38257E-01 -1.54661E+01 -1.51307E+01 -1.49283E+01 -2.35053E+01
  -4.21411E+01 -3.18226E+01 -2.89148E+01 -3.65225E+01 -3.78001E+01 -4.65454E+01 -4.04629E+01 -3.77358E+01 -2.64784E+01 -2.11764E+01
  -7.45495E+00 -2.15708E+00 -1.96330E+01 -1.64185E+01 -7.72354E+00 -6.84508E+00 -2.01039E+01 -1.71347E+01 -1.17408E+01 -1.66203E+01
  -5.60029E+00 -2.53680E+01 -4.66467E+01 -3.90800E+01 -4.51638E+01 -4.30172E+01 -4.00305E+01 -5.14667E+01 -5.98141E+01 -5.79295E+01
  -5.02829E+01 -4.35906E+01 -3.29637E+01 -3.39930E+01 -2.58215E+01 -2.31328E+01 -2.62259E+01 -2.56892E+01 -2.28403E+01 -1.44478E+01
  -2.81791E+01 -6.23447E+00  1.13934E+01 -7.52785E-01  3.37513E-01 -2.19243E+00  7.04760E+00  1.89710E+01  2.53493E+01  2.11459E+01
   2.48518E+01  3.66890E+01  3.96560E+01  2.35044E+01  3.37757E+01  6.80529E+01  6.52697E+01  8.14506E+01  9.43382E+01  8.99939E+01
   9.16619E+01  8.89061E+01  7.71826E+01  5.02364E+01  4.51775E+01  2.93168E+01  2.27257E+01  3.22389E+01  1.42097E+01  7.11113E+00
  -4.74979E+00 -1.32383E+01 -1.51002E+01 -2.91024E+01 -3.19741E+01 -4.04613E+01 -3.43327E+01 -4.00775E+01 -4.89227E+01 -3.76742E+01
  -5.31171E+01 -4.24483E+01 -4.45903E+01 -6.49966E+01 -4.59713E+01 -3.38527E+01 -4.27834E+01 -4.61341E+01 -2.89316E+01 -3.46744E+01
  -4.22459E+01 -3.32753E+01 -3.30744E+01 -3.81920E+01 -3.48957E+01 -3.05169E+01 -3.83468E+01 -3.95197E+01 -4.83944E+01 -3.91008E+01
  -3.60460E+01 -4.08244E+01 -3.30956E+01 -4.60043E+01 -4.19264E+01 -3.24352E+01 -3.17998E+01 -3.83005E+01 -3.14999E+01 -3.10223E+01
  -4.06321E+01 -2.90948E+01 -4.23454E+01 -4.38826E+01 -3.95146E+01 -3.80008E+01 -2.99518E+01 -3.88396E+01 -2.94763E+01 -3.44460E+01
  -3.40156E+01 -3.21514E+01 -4.39686E+01 -3.11639E+01 -3.70289E+01 -3.10692E+01 -3.65429E+01 -3.63206E+01 -1.40904E+01 -3.80579E+01
  -2.85772E+01 -3.09117E+01 -3.57320E+01 -1.84814E+01 -3.25648E+01 -2.73732E+01 -3.30317E+01 -2.61074E+01 -2.61298E+01 -3.11515E+01
  -1.72052E+01 -3.42801E+01 -3.24482E+01 -3.36344E+01 -3.88173E+01 -2.21580E+01 -2.33814E+01 -2.07087E+01 -1.37110E+01 -1.86632E+01
 NY points of the fit to the data follow
  -8.53731E+01 -8.97187E+01 -9.93029E+01 -1.08056E+02 -1.10119E+02 -9.19359E+01 -6.45905E+01 -5.92457E+01 -7.09339E+01 -8.07335E+01
  -8.72384E+01 -9.15844E+01 -9.26122E+01 -8.99730E+01 -8.90403E+01 -8.98888E+01 -9.12628E+01 -9.92628E+01 -1.12475E+02 -1.28751E+02
  -1.52009E+02 -1.45796E+02 -1.11308E+02 -1.09452E+02 -7.88654E+01 -3.67255E+01 -3.93675E+01 -3.93377E+01 -3.15220E+01 -2.86995E+01
  -2.75126E+01 -2.89783E+01 -2.99420E+01 -3.05504E+01 -3.35736E+01 -3.79240E+01 -4.01270E+01 -4.33192E+01 -5.47198E+01 -7.43684E+01
  -1.01026E+02 -1.18137E+02 -1.02901E+02 -8.87066E+01 -7.89138E+01 -6.02954E+01 -3.99194E+01 -2.84866E+01 -2.42288E+01 -1.83390E+01
  -1.77058E+01 -1.92202E+01 -2.25135E+01 -3.26632E+01 -4.36191E+01 -5.18952E+01 -5.65234E+01 -5.29684E+01 -6.44815E+01 -8.27987E+01
  -6.53826E+01 -5.20335E+01 -5.88635E+01 -4.02317E+01 -1.71062E+01 -8.92059E+00 -4.79523E+00 -1.07044E+01 -3.50598E+01 -7.03907E+01
  -7.80063E+01 -5.88518E+01 -5.93122E+01 -5.77299E+01 -3.39682E+01 -1.76866E+01 -1.22581E+01 -8.49921E+00 -4.45395E+00 -3.28053E-01
   1.00007E+00 -5.45136E+00 -1.91854E+01 -3.74480E+01 -6.02550E+01 -6.59691E+01 -6.14868E+01 -5.11515E+01 -3.30500E+01 -2.32335E+01
  -1.72538E+01 -1.10959E+01 -6.48789E+00 -2.07807E+00  2.35941E+00  7.75037E+00  1.20024E+01  1.47389E+01  1.52202E+01  1.11587E+01
   1.27246E+01  2.18736E+01  1.59353E+01  1.49110E+00 -1.03921E+01 -2.74445E+01 -3.79585E+01 -2.12198E+01 -1.87759E+01 -6.88569E+01
  -1.63200E+02 -1.96082E+02 -1.57474E+02 -1.29363E+02 -1.12386E+02 -9.65484E+01 -8.57323E+01 -7.72092E+01 -6.93719E+01 -6.23647E+01
  -5.63172E+01 -5.03808E+01 -4.41292E+01 -3.77513E+01 -3.02025E+01 -2.10435E+01 -1.08480E+01 -1.17432E+00  2.12516E+01  6.15204E+01
   1.03532E+02  1.26081E+02  4.77396E+01 -1.05554E+02 -1.41195E+02 -1.15001E+02 -1.15582E+02 -1.08552E+02 -9.97411E+01 -9.63971E+01
  -9.59765E+01 -9.56638E+01 -9.63691E+01 -9.71005E+01 -9.65624E+01 -9.76192E+01 -9.65961E+01 -9.32270E+01 -9.03268E+01 -8.70166E+01
  -8.43341E+01 -8.15316E+01 -7.93664E+01 -7.77950E+01 -7.46897E+01 -7.01758E+01 -6.65882E+01 -6.65068E+01 -6.79439E+01 -6.68690E+01
  -6.24436E+01 -5.69501E+01 -5.53893E+01 -6.04988E+01 -6.47716E+01 -6.35468E+01 -6.05612E+01 -5.92510E+01 -6.25319E+01 -6.62692E+01
  -6.13636E+01 -4.50106E+01 -2.54331E+01 -2.25258E+01 -3.96745E+01 -4.70595E+01 -3.17183E+01 -1.62224E+01 -1.67171E+01 -3.39899E+01
  -5.18144E+01 -5.53010E+01 -5.89838E+01 -6.42923E+01 -6.59324E+01 -6.70386E+01 -6.71181E+01 -6.67079E+01 -6.57840E+01 -6.34895E+01
  -6.29751E+01 -6.09450E+01 -5.75372E+01 -5.73247E+01 -4.55808E+01 -3.38558E+01 -4.39207E+01 -4.36772E+01 -3.27228E+01 -3.26613E+01
  -3.44833E+01 -3.85736E+01 -3.18236E+01 -2.02667E+01 -2.34940E+01 -3.05072E+01 -3.52278E+01 -3.90311E+01 -4.71406E+01 -5.76265E+01
  -6.30992E+01 -6.84037E+01 -7.24855E+01 -6.41487E+01 -5.26824E+01 -3.25445E+01  2.06126E+00  6.57611E+00  6.71067E+00  9.47948E+00
  -1.02009E+01 -1.93828E+01 -1.93289E+01 -1.97136E+01 -1.62470E+01 -1.48238E+01 -1.46114E+01 -1.65159E+01 -2.23002E+01 -2.97769E+01
  -3.82549E+01 -4.81848E+01 -5.86101E+01 -6.75366E+01 -7.58506E+01 -8.63104E+01 -9.15295E+01 -9.34694E+01 -9.75782E+01 -9.35302E+01
  -8.76607E+01 -8.61144E+01 -7.54063E+01 -6.51377E+01 -5.80712E+01 -4.67785E+01 -4.65057E+01 -4.65031E+01 -4.85462E+01 -5.49440E+01
  -5.80345E+01 -6.75082E+01 -6.84718E+01 -6.97181E+01 -8.36344E+01 -1.12587E+02 -1.81958E+02 -1.44163E+02  5.17627E+01  1.23599E+02
   9.35694E+01  9.07802E+01  8.08991E+01  6.81354E+01  6.21425E+01  5.83512E+01  5.43053E+01  4.99601E+01  4.58641E+01  4.27214E+01
   4.03483E+01  3.94142E+01  3.89684E+01  3.92669E+01  3.93792E+01  3.93843E+01  3.89795E+01  3.75601E+01  3.72268E+01  3.66101E+01
   3.53607E+01  3.36044E+01  3.15087E+01  2.97412E+01  2.85158E+01  2.66671E+01  2.43796E+01  2.28598E+01  2.10197E+01  1.86801E+01
   1.60549E+01  1.25048E+01  8.97742E+00  5.25098E+00  8.14720E-01 -2.15671E+00 -3.35082E+00 -3.02039E+00 -1.34063E+00  9.45556E-01
   3.00232E+00  5.22661E+00  8.22058E+00  1.10971E+01  1.35323E+01  1.56332E+01  1.74262E+01  1.91032E+01  2.12445E+01  2.42618E+01
   2.69645E+01  2.88742E+01  3.07217E+01  3.22179E+01  3.42547E+01  3.62017E+01  3.69269E+01  3.76808E+01  4.02320E+01  4.20672E+01
   4.22105E+01  3.93401E+01  2.34010E+01  3.75976E+00 -2.83392E+00 -1.34491E+01 -1.40755E+01 -8.47826E+00 -1.39099E+01 -2.10112E+01
  -2.74841E+01 -3.42392E+01 -4.03465E+01 -4.43582E+01 -4.52245E+01 -4.32194E+01 -3.82156E+01 -3.26073E+01 -2.64927E+01 -1.97620E+01
  -1.38989E+01 -9.60954E+00 -1.48319E+01 -2.50639E+01 -2.74923E+01 -3.26853E+01 -2.97082E+01 -2.14580E+01 -1.86540E+01 -1.58994E+01
  -1.39351E+01 -1.39739E+01 -1.54147E+01 -1.79754E+01 -2.23387E+01 -2.75889E+01 -3.11894E+01 -3.26745E+01 -3.35752E+01 -3.27281E+01
  -3.06851E+01 -2.83054E+01 -2.48761E+01 -2.14650E+01 -1.78484E+01 -1.40761E+01 -1.12632E+01 -8.38013E+00 -5.78948E+00 -3.21968E+00
   5.26808E-03  2.71812E+00  5.15030E+00  7.88560E+00  1.06167E+01  1.39017E+01  1.81884E+01  2.24316E+01  2.63440E+01  3.22178E+01
   3.85337E+01  4.38927E+01  5.02353E+01  5.82550E+01  6.64384E+01  7.40178E+01  8.08361E+01  8.43442E+01  8.28519E+01  7.60752E+01
   6.49326E+01  5.33779E+01  4.35888E+01  3.57537E+01  2.92409E+01  2.44104E+01  1.97286E+01  1.27687E+01  4.08072E+00 -4.55093E+00
  -1.34733E+01 -2.18188E+01 -2.74946E+01 -3.18046E+01 -3.52420E+01 -3.78332E+01 -3.89939E+01 -3.96772E+01 -4.05113E+01 -4.14671E+01
  -4.25041E+01 -4.32252E+01 -4.33916E+01 -4.31196E+01 -4.29699E+01 -4.31147E+01 -4.27958E+01 -4.22517E+01 -4.23772E+01 -4.29902E+01
  -4.24953E+01 -4.12110E+01 -4.12252E+01 -4.16410E+01 -4.11885E+01 -4.06075E+01 -4.05327E+01 -4.08586E+01 -4.07596E+01 -3.99041E+01
  -3.90674E+01 -3.88731E+01 -3.87902E+01 -3.88897E+01 -3.89927E+01 -3.88503E+01 -3.85306E+01 -3.78757E+01 -3.75219E+01 -3.69411E+01
  -3.66215E+01 -3.64316E+01 -3.60186E+01 -3.56149E+01 -3.57344E+01 -3.60847E+01 -3.58679E+01 -3.55796E+01 -3.50323E+01 -3.46166E+01
  -3.43916E+01 -3.40411E+01 -3.42355E+01 -3.41150E+01 -3.33656E+01 -3.29930E+01 -3.26222E+01 -3.21758E+01 -3.19624E+01 -3.16819E+01
  -3.12123E+01 -3.08607E+01 -3.05903E+01 -3.07595E+01 -3.07906E+01 -3.04534E+01 -3.03278E+01 -2.98926E+01 -2.88659E+01 -2.79516E+01
  -2.74541E+01 -2.76102E+01 -2.77765E+01 -2.79045E+01 -2.74589E+01 -2.69331E+01 -2.67459E+01 -2.62098E+01 -2.54888E+01 -2.55270E+01
 NY background values follow
    -6.022E+01   -6.000E+01   -5.979E+01   -5.958E+01   -5.937E+01   -5.916E+01   -5.894E+01   -5.873E+01   -5.852E+01   -5.831E+01
    -5.810E+01   -5.788E+01   -5.767E+01   -5.746E+01   -5.725E+01   -5.703E+01   -5.682E+01   -5.661E+01   -5.640E+01   -5.618E+01
    -5.597E+01   -5.576E+01   -5.554E+01   -5.533E+01   -5.512E+01   -5.490E+01   -5.469E+01   -5.448E+01   -5.426E+01   -5.405E+01
    -5.384E+01   -5.362E+01   -5.341E+01   -5.319E+01   -5.298E+01   -5.277E+01   -5.255E+01   -5.234E+01   -5.212E+01   -5.191E+01
    -5.170E+01   -5.148E+01   -5.127E+01   -5.106E+01   -5.084E+01   -5.063E+01   -5.042E+01   -5.020E+01   -4.999E+01   -4.978E+01
    -4.957E+01   -4.936E+01   -4.915E+01   -4.894E+01   -4.873E+01   -4.852E+01   -4.831E+01   -4.810E+01   -4.789E+01   -4.768E+01
    -4.748E+01   -4.727E+01   -4.707E+01   -4.686E+01   -4.666E+01   -4.645E+01   -4.625E+01   -4.605E+01   -4.585E+01   -4.564E+01
    -4.544E+01   -4.524E+01   -4.505E+01   -4.485E+01   -4.465E+01   -4.445E+01   -4.426E+01   -4.406E+01   -4.387E+01   -4.368E+01
    -4.349E+01   -4.330E+01   -4.310E+01   -4.292E+01   -4.273E+01   -4.254E+01   -4.235E+01   -4.217E+01   -4.198E+01   -4.180E+01
    -4.162E+01   -4.144E+01   -4.126E+01   -4.108E+01   -4.090E+01   -4.072E+01   -4.055E+01   -4.037E+01   -4.020E+01   -4.003E+01
    -3.985E+01   -3.968E+01   -3.951E+01   -3.934E+01   -3.918E+01   -3.901E+01   -3.884E+01   -3.868E+01   -3.852E+01   -3.835E+01
    -3.819E+01   -3.803E+01   -3.787E+01   -3.771E+01   -3.756E+01   -3.740E+01   -3.724E+01   -3.709E+01   -3.694E+01   -3.678E+01
    -3.663E+01   -3.648E+01   -3.633E+01   -3.618E+01   -3.604E+01   -3.589E+01   -3.574E+01   -3.560E+01   -3.546E+01   -3.531E+01
    -3.517E+01   -3.503E+01   -3.489E+01   -3.475E+01   -3.461E+01   -3.448E+01   -3.434E+01   -3.421E+01   -3.408E+01   -3.394E+01
    -3.381E+01   -3.368E+01   -3.355E+01   -3.342E+01   -3.330E+01   -3.317E+01   -3.304E+01   -3.292E+01   -3.280E+01   -3.268E+01
    -3.255E+01   -3.243E+01   -3.232E+01   -3.220E+01   -3.208E+01   -3.196E+01   -3.185E+01   -3.174E+01   -3.162E+01   -3.151E+01
    -3.140E+01   -3.129E+01   -3.118E+01   -3.107E+01   -3.097E+01   -3.086E+01   -3.076E+01   -3.065E+01   -3.055E+01   -3.045E+01
    -3.035E+01   -3.025E+01   -3.015E+01   -3.005E+01   -2.995E+01   -2.986E+01   -2.976E+01   -2.967E+01   -2.958E+01   -2.948E+01
    -2.939E+01   -2.930E+01   -2.921E+01   -2.912E+01   -2.904E+01   -2.895E+01   -2.886E+01   -2.878E+01   -2.869E+01   -2.861E+01
    -2.853E+01   -2.845E+01   -2.837E+01   -2.829E+01   -2.821E+01   -2.813E+01   -2.806E+01   -2.798E+01   -2.790E+01   -2.783E+01
    -2.776E+01   -2.769E+01   -2.761E+01   -2.754E+01   -2.747E+01   -2.741E+01   -2.734E+01   -2.727E+01   -2.721E+01   -2.714E+01
    -2.708E+01   -2.701E+01   -2.695E+01   -2.689E+01   -2.683E+01   -2.677E+01   -2.671E+01   -2.665E+01   -2.660E+01   -2.654E+01
    -2.649E+01   -2.643E+01   -2.638E+01   -2.633E+01   -2.628E+01   -2.623E+01   -2.618E+01   -2.613E+01   -2.608E+01   -2.604E+01
    -2.600E+01   -2.595E+01   -2.591E+01   -2.587E+01   -2.583E+01   -2.579E+01   -2.575E+01   -2.572E+01   -2.568E+01   -2.565E+01
    -2.562E+01   -2.559E+01   -2.556E+01   -2.553E+01   -2.550E+01   -2.547E+01   -2.545E+01   -2.543E+01   -2.540E+01   -2.538E+01
    -2.536E+01   -2.534E+01   -2.532E+01   -2.531E+01   -2.529E+01   -2.528E+01   -2.527E+01   -2.525E+01   -2.524E+01   -2.523E+01
    -2.523E+01   -2.522E+01   -2.521E+01   -2.521E+01   -2.521E+01   -2.521E+01   -2.520E+01   -2.521E+01   -2.521E+01   -2.521E+01
    -2.521E+01   -2.522E+01   -2.523E+01   -2.523E+01   -2.524E+01   -2.525E+01   -2.526E+01   -2.528E+01   -2.529E+01   -2.530E+01
    -2.532E+01   -2.533E+01   -2.535E+01   -2.537E+01   -2.539E+01   -2.541E+01   -2.543E+01   -2.545E+01   -2.547E+01   -2.549E+01
    -2.552E+01   -2.554E+01   -2.557E+01   -2.559E+01   -2.562E+01   -2.565E+01   -2.568E+01   -2.570E+01   -2.573E+01   -2.576E+01
    -2.579E+01   -2.582E+01   -2.586E+01   -2.589E+01   -2.592E+01   -2.595E+01   -2.598E+01   -2.602E+01   -2.605E+01   -2.609E+01
    -2.612E+01   -2.615E+01   -2.619E+01   -2.622E+01   -2.626E+01   -2.629E+01   -2.633E+01   -2.636E+01   -2.640E+01   -2.643E+01
    -2.647E+01   -2.650E+01   -2.653E+01   -2.657E+01   -2.660E+01   -2.664E+01   -2.667E+01   -2.670E+01   -2.674E+01   -2.677E+01
    -2.680E+01   -2.683E+01   -2.686E+01   -2.690E+01   -2.693E+01   -2.696E+01   -2.699E+01   -2.702E+01   -2.704E+01   -2.707E+01
    -2.710E+01   -2.713E+01   -2.715E+01   -2.718E+01   -2.720E+01   -2.723E+01   -2.725E+01   -2.727E+01   -2.730E+01   -2.732E+01
    -2.734E+01   -2.736E+01   -2.738E+01   -2.740E+01   -2.742E+01   -2.743E+01   -2.745E+01   -2.747E+01   -2.748E+01   -2.749E+01
    -2.751E+01   -2.752E+01   -2.753E+01   -2.754E+01   -2.755E+01   -2.756E+01   -2.757E+01   -2.757E+01   -2.758E+01   -2.758E+01
    -2.759E+01   -2.759E+01   -2.760E+01   -2.760E+01   -2.760E+01   -2.760E+01   -2.760E+01   -2.760E+01   -2.760E+01   -2.760E+01
    -2.760E+01   -2.759E+01   -2.759E+01   -2.759E+01   -2.758E+01   -2.758E+01   -2.757E+01   -2.756E+01   -2.756E+01   -2.755E+01
    -2.754E+01   -2.753E+01   -2.752E+01   -2.751E+01   -2.750E+01   -2.749E+01   -2.748E+01   -2.747E+01   -2.746E+01   -2.745E+01
    -2.744E+01   -2.742E+01   -2.741E+01   -2.740E+01   -2.738E+01   -2.737E+01   -2.736E+01   -2.734E+01   -2.733E+01   -2.731E+01
    -2.730E+01   -2.728E+01   -2.727E+01   -2.725E+01   -2.723E+01   -2.722E+01   -2.720E+01   -2.718E+01   -2.717E+01   -2.715E+01
    -2.713E+01   -2.711E+01   -2.710E+01   -2.708E+01   -2.706E+01   -2.704E+01   -2.703E+01   -2.701E+01   -2.699E+01   -2.697E+01
    -2.695E+01   -2.694E+01   -2.692E+01   -2.690E+01   -2.688E+01   -2.686E+01   -2.684E+01   -2.682E+01   -2.680E+01   -2.678E+01
    -2.676E+01   -2.675E+01   -2.673E+01   -2.671E+01   -2.669E+01   -2.667E+01   -2.665E+01   -2.663E+01   -2.661E+01   -2.659E+01
    -2.657E+01   -2.655E+01   -2.653E+01   -2.651E+01   -2.649E+01   -2.647E+01   -2.645E+01   -2.643E+01   -2.641E+01   -2.638E+01
    -2.636E+01   -2.634E+01   -2.632E+01   -2.630E+01   -2.628E+01   -2.626E+01   -2.624E+01   -2.622E+01   -2.620E+01   -2.618E+01
    -2.616E+01   -2.614E+01   -2.611E+01   -2.609E+01   -2.607E+01   -2.605E+01   -2.603E+01   -2.601E+01   -2.599E+01   -2.597E+01
 Mac      Conc. = 2.55E-04
  -7.81886E+01 -7.88548E+01 -7.86980E+01 -7.83742E+01 -7.80828E+01 -7.82149E+01 -7.88539E+01 -8.01699E+01 -8.20270E+01 -8.37354E+01
  -8.49463E+01 -8.51343E+01 -8.44907E+01 -8.38540E+01 -8.34231E+01 -8.51465E+01 -8.84464E+01 -9.08436E+01 -8.92809E+01 -8.29636E+01
  -7.79066E+01 -7.52100E+01 -7.06885E+01 -6.70268E+01 -6.61282E+01 -6.54974E+01 -6.43533E+01 -6.26249E+01 -6.09121E+01 -5.85593E+01
  -5.62449E+01 -5.47663E+01 -5.35819E+01 -5.23344E+01 -5.18509E+01 -5.28980E+01 -5.38241E+01 -5.32419E+01 -5.03688E+01 -4.65525E+01
  -4.45089E+01 -4.50833E+01 -4.61605E+01 -4.55641E+01 -4.40248E+01 -4.19231E+01 -4.02398E+01 -4.00388E+01 -4.02224E+01 -4.09073E+01
  -4.21200E+01 -4.37478E+01 -4.44631E+01 -4.47033E+01 -4.56339E+01 -4.60332E+01 -4.61467E+01 -4.57708E+01 -4.40413E+01 -4.22288E+01
  -4.14021E+01 -3.97484E+01 -3.73546E+01 -3.67200E+01 -3.72771E+01 -3.79065E+01 -3.90313E+01 -3.93799E+01 -3.95915E+01 -4.03983E+01
  -4.10704E+01 -3.97180E+01 -3.62314E+01 -3.30996E+01 -3.15083E+01 -3.01848E+01 -2.94228E+01 -2.99700E+01 -3.04312E+01 -3.13199E+01
  -3.19831E+01 -3.21564E+01 -3.27683E+01 -3.30254E+01 -3.22577E+01 -3.10952E+01 -3.02000E+01 -2.92372E+01 -2.84374E+01 -2.74826E+01
  -2.71359E+01 -2.64881E+01 -2.56746E+01 -2.53782E+01 -2.49170E+01 -2.48561E+01 -2.63463E+01 -2.85292E+01 -3.08692E+01 -3.33957E+01
  -3.49277E+01 -3.56219E+01 -3.69060E+01 -3.89818E+01 -4.09223E+01 -4.41755E+01 -4.98831E+01 -5.74033E+01 -6.48689E+01 -6.85795E+01
