 
 $NMID
 ID=''
 FMTDAT='(2E13.5)'
 TRAMP=   1.00000E+0
 VOLUME=   1.00000E+0
 $END
  -1.51303E+4   2.85611E+3
  -1.27722E+4   2.46266E+4
   1.45179E+4   1.56883E+4
  -3.15081E+3  -1.26950E+4
  -2.76378E+4  -1.55072E+2
  -4.41880E+2   9.41718E+3
   1.19014E+4  -1.17498E+4
  -1.02038E+4  -9.26767E+3
  -2.28363E+3   7.13563E+3
   9.85715E+3  -4.30833E+3
  -4.13978E+3  -7.98002E+3
  -8.30053E+2   4.60796E+3
   9.38101E+3   3.84933E+2
  -3.51507E+3  -4.18777E+3
  -3.18329E+3   4.57948E+3
   9.23902E+3   2.34268E+3
   2.44272E+2  -1.39032E+3
  -6.17666E+3   4.61566E+3
   1.04496E+3   2.39996E+3
  -2.18130E+2  -2.09254E+3
  -2.84866E+3   1.82640E+3
   2.11545E+3   4.78660E+2
   5.35241E+2  -1.86660E+3
  -2.65869E+3   7.55506E+2
   1.45052E+3  -1.09059E+3
   3.47734E+3  -2.13027E+3
   2.63163E+2   2.48704E+3
  -1.08924E+3   4.81717E+2
   4.71227E+2  -3.36903E+3
   1.38603E+3   2.89707E+2
  -1.12091E+2   2.58438E+3
  -1.93899E+3  -3.37955E+2
  -1.74225E+3  -1.52679E+3
  -7.56953E+2  -1.51093E+3
   2.18391E+2  -1.28913E+3
   1.45189E+3   4.14445E+2
   4.16450E+1   1.77457E+3
  -2.14589E+3   6.66864E+2
  -2.77531E+2  -3.27796E+2
   7.28422E+2  -1.51190E+2
  -9.93551E+2   9.92459E+1
   3.16699E+2  -4.50336E+2
   1.83499E+3  -2.95766E+2
   1.28731E+3   9.89350E+2
   6.22926E+2   9.92235E+2
  -3.07152E+1   1.47915E+3
  -1.79316E+3   1.69423E+3
  -2.02413E+3  -5.57483E+2
  -3.48626E+2  -2.69440E+3
   5.35759E+2  -1.15554E+3
   9.00101E+2   2.05625E+2
   2.73860E+2  -8.58115E+2
   5.44134E+2  -2.40616E+2
   7.33136E+2   8.32667E+2
   2.80014E+2   5.62250E+2
  -4.91080E+2   3.90254E+2
  -3.42676E+2  -4.57685E+2
   3.85180E+2  -8.30774E+2
   9.41101E+2  -1.69330E+2
   1.04209E+3   7.95088E+2
   1.66894E+2   6.68056E+2
  -1.63537E+2   8.41852E+2
  -9.40300E+2   1.09196E+3
  -1.76123E+3  -3.40160E+2
  -1.77148E+3  -1.55127E+3
  -2.30056E+1  -1.79671E+3
   1.27805E+3  -1.45884E+3
   1.63748E+3  -8.13497E+2
   1.14924E+3   5.23851E+2
  -1.10945E+2   4.38280E+2
  -7.70716E+2  -1.56027E+2
   9.05730E+2  -7.22072E+2
   1.13288E+3   4.55591E+2
  -8.02624E+2   9.16714E+2
  -8.24847E+2   1.88492E+2
  -1.46423E+2  -5.49813E+2
  -2.44938E+2   1.87591E+2
  -4.93796E+2   5.80568E+2
  -3.34151E+2  -5.04886E+2
  -5.25172E+2  -6.68644E+2
  -3.37479E+2  -5.76890E+2
   2.52393E+2  -4.53913E+2
   2.49707E+2  -4.00274E+2
  -1.36823E+2  -5.58903E+1
   1.20571E+2  -5.53356E+2
   4.35709E+2  -3.99366E+2
   6.15847E+2   5.18116E+2
  -5.52782E+1   4.55524E+2
  -5.59205E+2  -6.81311E+1
  -9.31365E+1   7.34579E+1
   3.65482E+2   4.84951E+2
  -5.84730E+2   3.09213E+2
  -1.46496E+3   2.03921E+2
  -1.06146E+3  -5.52383E+2
   5.45543E+1  -1.13055E+3
   3.15186E+2  -6.12841E+2
   3.72905E+2   1.13087E+2
  -2.58359E+1   2.43108E+2
  -4.75516E+1  -1.87508E+2
   5.51578E+2   4.50069E+1
   1.62010E+2   8.00720E+2
  -9.49468E+2   7.20316E+2
  -9.98704E+2   8.06784E+1
  -2.33489E+1  -6.56802E+2
   6.11979E+2  -2.26385E+2
   2.83319E+2   8.61466E+2
  -6.38677E+2   7.36511E+2
  -9.31754E+2  -3.65297E+2
  -3.07529E+2  -1.26761E+3
   1.17595E+3  -4.36204E+2
   8.84576E+2   8.62611E+2
   2.13149E+2   7.98029E+2
  -6.20492E+2   4.80453E+2
  -8.42770E+1   3.78552E+2
  -1.00589E+2   2.78598E+2
  -6.73244E+2   2.40050E+2
  -8.35483E+2  -1.99825E+2
  -2.64103E+2  -9.20352E+2
   3.69352E+2  -9.43435E+2
   1.10547E+3  -1.00512E+1
   7.76143E+2   4.36202E+2
   2.21053E+2   5.43891E+2
   9.56111E+1   4.68974E+2
  -8.97385E+1   5.41487E+2
  -6.71292E+2   1.38246E+1
  -1.63533E+2  -4.25101E+2
   3.29788E+2  -4.18923E+2
   3.62073E+2   5.97606E+1
   5.43584E+2   1.98061E+2
   6.31823E+1   5.15263E+2
  -6.17191E+2   2.44460E+2
  -4.42323E+2  -2.83462E+2
   1.64709E+2  -4.80045E+2
   3.11688E+2  -2.42061E+2
  -2.67104E+1   6.24114E+1
   7.72507E+1  -3.51455E+2
   2.55170E+2  -2.25113E+2
   3.62886E+2   4.47536E+2
   7.95010E+1   8.32219E+2
  -6.25303E+2   1.60223E+2
  -4.61369E+2  -4.02061E+2
   1.91480E+2  -6.68152E+2
   6.91311E+2   2.41014E+2
   7.34722E+1   6.28764E+2
  -5.20908E+2   3.83354E+2
  -8.42991E+2  -3.62030E+2
  -4.35583E+2  -3.48388E+2
  -2.16890E+2   5.78938E+0
  -2.22082E+2  -7.43614E+1
  -2.42940E+2  -4.41466E+2
   2.82628E+2  -3.49219E+2
   5.19542E+2  -1.48220E+2
   3.60157E+2   5.44085E+2
  -8.62771E+1   5.77314E+2
  -3.49065E+2   4.31709E+1
  -2.89768E+2  -2.20126E+2
   7.62150E+1   3.42223E+2
  -1.32331E+2   4.66478E+2
  -1.75465E+2   1.73665E+2
  -8.64346E+1   1.23157E+2
  -1.55132E+2   1.95001E+2
  -2.93542E+2   1.60441E+2
  -3.34964E+2   3.01266E+2
  -7.74351E+0  -3.66671E+2
   2.28863E+2  -3.48386E+2
   4.93882E+2   7.75173E+1
   1.80914E+2   3.52654E+2
  -1.93128E+2   3.64429E+2
  -2.45419E+2   1.07492E+2
   2.42510E+2  -1.15716E+2
   1.61788E+2   1.93760E+2
  -7.77209E+1   3.31188E+2
  -2.36372E+2   3.00313E+2
   3.87808E+1   6.47009E+1
   2.31566E+2   7.67820E+0
   1.11595E+2   5.04527E+2
  -2.90617E+2   3.83025E+2
  -4.04987E+2  -1.42462E+2
   1.50973E+2  -5.64451E+2
   4.41404E+2   1.78505E+2
   4.68916E+2   4.48323E+2
  -2.24841E+2   4.04359E+2
  -1.94804E+2   3.61335E+1
  -8.52420E+1   5.51112E+1
   7.27559E+1  -1.96763E+2
   2.02497E+2  -7.05615E+1
   1.06469E+2  -1.69255E+2
   1.86362E+2  -2.24938E+2
   3.74422E+2   7.22080E+0
   4.90821E+2   5.91932E+2
  -1.04771E+2   5.94029E+2
  -6.65226E+2   2.26967E+2
  -3.14896E+2  -1.99460E+2
   1.05018E+2  -2.28612E+2
   2.78613E+2  -4.36263E+1
   8.84673E+1   1.08193E+2
   5.17963E+1   2.87476E+1
   9.37220E+1   1.50941E+2
  -2.38715E+1   3.09561E+2
  -1.40248E+2   1.16087E+2
  -2.33965E+2   1.76960E+2
  -8.96928E+1  -5.45729E+2
   4.61117E+2   1.18184E+2
   4.78206E+2   1.36203E+2
   2.06476E+1   1.95270E+2
  -3.32825E+2   5.59739E+1
  -7.62105E+1   7.92134E+1
  -3.45084E+1  -1.76496E+2
  -4.27727E+1   1.34075E+2
   1.45080E+2  -5.31249E+1
  -1.27335E+2   1.02400E+2
   1.71879E+2  -7.26767E+1
   2.42493E+2   3.64665E+2
  -8.50222E+1   3.52900E+2
  -3.55125E+2   1.54359E+2
  -2.68393E+2  -3.32773E+2
   3.32298E+2  -3.66349E+2
   4.63109E+2  -1.92216E+2
   8.57632E+1  -1.57038E+1
  -1.44146E+2   9.13471E+0
   8.98172E+1  -1.70231E+0
   3.75996E+2   2.78854E+2
  -2.19855E+1   3.18283E+2
  -7.88674E+1   1.98522E+2
  -2.26723E+2  -2.51820E+2
   2.26631E+2  -7.43372E+1
   3.32736E+2  -1.21865E+1
   1.97090E+2   2.51411E+2
  -9.38124E+1  -5.73895E+0
  -4.65639E+2   5.34648E+1
  -4.51124E+0  -8.52255E+1
   6.10236E+1  -3.28774E+1
   2.39858E+0   3.19473E+2
  -1.00332E+2  -1.66598E+2
   2.25715E+1  -2.03723E+2
   2.75187E+2   3.23883E+1
  -3.33529E+1   1.59050E+2
  -1.36554E+2   2.01279E+2
  -1.52343E+2  -1.88269E+2
  -3.58401E+1  -1.30532E+2
   3.36719E+1  -2.01541E+1
  -9.05061E+1   1.50618E+2
  -1.36199E+2   2.73878E+2
  -1.29637E+2  -3.29731E+1
   6.51476E+1  -5.15319E+1
  -4.14680E+1  -1.02772E+2
  -5.16048E+1   2.38577E+2
  -1.09853E+2   1.50960E+2
   4.94887E+1  -3.77145E+2
   1.11864E+2   8.54587E+1
   2.00986E+2   3.00638E+2
  -1.25254E+2   2.69839E+2
  -3.79210E+2  -3.85955E+1
  -3.31867E+2  -2.63336E+2
   8.95224E+1   2.59144E+1
   2.63929E+2   3.70705E+1
   1.27504E+2   2.53591E+2
   1.10987E+2   4.36393E+1
  -4.54540E+1  -1.32371E+1
  -2.96770E+1   2.61930E+1
  -1.54607E+2   2.67401E+2
  -1.86031E+2  -3.48205E+2
  -7.45299E+1  -4.58456E+2
   3.11075E+2  -1.48732E+2
   3.39024E+2   7.62281E+1
   6.59570E+0   2.86326E+2
  -1.52012E+2   2.45363E+2
  -2.16221E+2  -1.19285E+2
  -5.97617E+1  -1.77495E+2
  -1.41404E+2  -2.25060E+2
  -1.65849E+1  -1.94834E+2
  -5.94155E+1   2.32603E+1
   6.27103E+1  -1.45484E+1
   2.66158E+2   6.80811E+1
   2.62693E+1   2.70618E+2
  -6.53346E+1   7.34668E+1
  -1.72572E+2  -2.22586E+2
   6.29368E+1  -3.76928E+2
   1.35969E+1   9.86778E+1
   5.79749E+1   2.25941E+2
   9.97305E+1  -1.47050E+2
   1.12363E+2  -2.51303E+2
  -5.86828E+1  -1.25691E+2
  -1.12553E+2   1.72324E+2
  -1.33805E+2   3.22096E+1
  -1.53124E+2  -1.39101E+2
   1.85392E+2  -1.51117E+2
  -2.38540E+1  -1.72949E+2
   2.25522E+2   1.45478E+2
   2.61647E+1   2.73693E+2
  -2.70604E+2  -1.61927E+2
   6.14889E+1  -6.43792E+1
  -2.18510E+2  -2.27147E+2
   6.04843E+1  -8.33009E+1
  -5.41953E+1  -1.61504E+2
   1.41277E+2   1.94735E+2
   2.41256E+2  -6.11165E+1
   1.00557E+1   2.15545E+2
   5.15705E+0   2.77137E+1
  -1.46575E+2  -1.53000E+2
   7.24577E+1  -9.00217E+1
   1.65773E+1  -1.39444E+2
   1.05400E+2   1.19583E+2
  -1.52195E+1   1.00456E+2
  -2.66141E+2  -2.02780E+2
  -8.79978E+1  -1.23191E+2
  -1.03960E+2  -1.44860E+2
   7.74893E+1  -6.63762E+1
  -2.55542E+2   2.27643E+2
  -1.00726E+2  -1.50054E+2
   1.75861E+2  -2.01709E+2
   8.67664E+1   1.92950E+1
  -1.21281E+2   2.01619E+2
  -1.51499E+2   1.30593E+1
  -6.17594E+1  -1.52019E+2
   6.18368E+1   2.05202E+1
   1.25984E+2   7.08238E+1
   7.85140E+1   1.18300E+2
  -1.58187E+2  -1.99936E+2
  -3.23294E+1  -1.38907E+2
   2.63745E+2  -5.15091E+1
   3.24312E+1   1.28663E+2
  -2.18877E+2  -5.00904E+1
  -1.13877E+2  -1.66252E+1
   1.13362E+2  -6.88454E+1
   1.05081E+2   1.88749E+1
  -1.35770E+1   2.63053E+2
  -1.23175E+2  -2.02478E+2
  -1.96770E+2  -3.18822E+2
   9.39289E+1  -1.88151E+2
   9.63370E+1  -1.18079E+2
   3.23057E+2  -6.78300E+1
  -7.87221E+0  -1.87811E+2
  -9.77396E+1  -6.29612E+1
   6.88344E+1   1.33601E+2
   3.81460E+1   1.64940E+1
  -1.74274E+2   6.83122E+1
  -1.33229E+2  -1.05550E+2
  -6.89638E+1  -3.52147E+2
   3.00641E+2   1.41091E+1
   1.19244E+2   1.16212E+2
   2.04871E+2   1.29029E+2
   1.60331E+1  -1.03889E+2
   1.26323E+2  -1.69977E+2
   2.19007E+2   3.71015E+1
   8.41728E+0  -1.75816E+2
   3.47267E+1  -1.35755E+2
   1.61564E+2  -2.75194E+1
   1.43046E+2   1.52755E+2
   1.49020E+2  -3.29102E+1
   7.33517E+1   6.72069E+1
  -1.34971E+2  -1.09002E+2
  -3.98695E+1  -5.94315E+1
  -2.01564E+1   2.41029E+1
   1.85549E+2   1.40324E+2
  -1.47290E+1  -2.07434E+2
   2.48165E+2  -1.18297E+2
   3.83887E+1  -1.25691E+1
  -8.83374E+1   7.74878E+1
  -2.78422E+2   1.88415E+2
  -2.18166E+2  -1.30211E+2
  -4.92716E+1  -2.18042E+2
   2.53660E+2  -1.43686E+2
   7.96483E+1   5.21138E+1
   1.67194E+2   2.77253E+1
  -1.36588E+1  -4.98763E+1
  -2.03497E+1  -1.59225E+2
