 LCModel (Version 6.3-1N) Copyright: S.W. Provencher.          Ref.: Magn. Reson. Med. 30:672-679 (1993).                
 Slice_N1@12_12  28-Feb-2025 11:37:19
 27 lines in following concentration table = NCONC+1
    Conc.  %SD /Cr+PCr  Metabolite                                         
 3.19E-04   3% 3.4E-04 Mac                                                 
    3.877  22%   4.125 Cr                                                  
    3.641  23%   3.875 PCr                                                 
    5.649  14%   6.012 Ins                                                 
    9.614   7%  10.231 NAA                                                 
    7.531  10%   8.014 Tau                                                 
    1.061  80%   1.129 PCho                                                
    0.286 281%   0.305 GPC                                                 
    9.195  10%   9.785 Glu                                                 
    5.587  13%   5.945 Gln                                                 
    2.622  23%   2.791 Ala                                                 
    1.640  64%   1.746 Asc                                                 
    2.012  41%   2.141 Asp                                                 
    0.349 127%   0.371 GABA                                                
    0.666  86%   0.708 Glc                                                 
    0.642  70%   0.683 GSH                                                 
    2.001  30%   2.129 Lac                                                 
    1.549  31%   1.649 NAAG                                                
    1.836  51%   1.954 PE                                                  
    1.347  18%   1.434 GPC+PCho                                            
   11.164   6%  11.880 NAA+NAAG                                            
   14.782   8%  15.730 Glu+Gln                                             
    7.518   8%   8.000 Cr+PCr                                              
   11.164   6%  11.880 NAA+NAAG                                            
    7.518   8%   8.000 Cr+PCr                                              
   14.782   8%  15.730 Glu+Gln                                             
   6 lines in following misc. output table
  FWHM = 0.024 ppm    S/N =   5                                            
  Data shift = 0.024 ppm                                                   
  Ph: 164 deg       0.0 deg/ppm                                            
  alphaB,S = 2.3E-01,   4.0E-01                                            
   19 spline knots.   Ns = 5(1)                                            
   2 inflections.     1 extrema                                            
  480 points on ppm-axis = NY
      4.100000     4.091866     4.083733     4.075600     4.067466     4.059333     4.051199     4.043066     4.034933     4.026799
      4.018666     4.010532     4.002399     3.994265     3.986132     3.977998     3.969864     3.961731     3.953597     3.945463
      3.937330     3.929196     3.921062     3.912929     3.904795     3.896662     3.888528     3.880394     3.872261     3.864127
      3.855993     3.847860     3.839726     3.831592     3.823459     3.815325     3.807191     3.799058     3.790924     3.782790
      3.774657     3.766523     3.758389     3.750256     3.742122     3.733989     3.725855     3.717721     3.709588     3.701454
      3.693320     3.685187     3.677053     3.668919     3.660786     3.652652     3.644518     3.636385     3.628251     3.620117
      3.611984     3.603850     3.595716     3.587583     3.579449     3.571316     3.563182     3.555048     3.546915     3.538781
      3.530647     3.522514     3.514380     3.506246     3.498113     3.489979     3.481845     3.473712     3.465578     3.457444
      3.449311     3.441177     3.433043     3.424910     3.416776     3.408643     3.400509     3.392375     3.384242     3.376108
      3.367974     3.359841     3.351707     3.343573     3.335440     3.327306     3.319172     3.311039     3.302905     3.294771
      3.286638     3.278504     3.270370     3.262237     3.254103     3.245970     3.237836     3.229702     3.221569     3.213435
      3.205301     3.197168     3.189034     3.180900     3.172767     3.164633     3.156499     3.148366     3.140232     3.132098
      3.123965     3.115831     3.107697     3.099564     3.091430     3.083297     3.075163     3.067029     3.058896     3.050762
      3.042628     3.034495     3.026361     3.018227     3.010094     3.001960     2.993826     2.985693     2.977559     2.969425
      2.961292     2.953158     2.945024     2.936891     2.928757     2.920624     2.912490     2.904356     2.896223     2.888089
      2.879955     2.871822     2.863688     2.855554     2.847421     2.839287     2.831153     2.823020     2.814886     2.806752
      2.798619     2.790485     2.782351     2.774218     2.766084     2.757951     2.749817     2.741683     2.733550     2.725416
      2.717282     2.709149     2.701015     2.692881     2.684748     2.676614     2.668480     2.660347     2.652213     2.644079
      2.635946     2.627812     2.619678     2.611545     2.603411     2.595278     2.587144     2.579010     2.570877     2.562743
      2.554609     2.546476     2.538342     2.530208     2.522075     2.513941     2.505807     2.497674     2.489540     2.481406
      2.473273     2.465139     2.457006     2.448872     2.440738     2.432605     2.424471     2.416337     2.408204     2.400070
      2.391936     2.383803     2.375669     2.367535     2.359402     2.351268     2.343134     2.335001     2.326867     2.318733
      2.310600     2.302466     2.294333     2.286199     2.278065     2.269932     2.261798     2.253664     2.245531     2.237397
      2.229263     2.221130     2.212996     2.204862     2.196729     2.188595     2.180461     2.172328     2.164194     2.156060
      2.147927     2.139793     2.131660     2.123526     2.115392     2.107259     2.099125     2.090991     2.082858     2.074724
      2.066590     2.058457     2.050323     2.042189     2.034056     2.025922     2.017788     2.009655     2.001521     1.993387
      1.985254     1.977120     1.968987     1.960853     1.952719     1.944586     1.936452     1.928318     1.920185     1.912051
      1.903917     1.895784     1.887650     1.879516     1.871383     1.863249     1.855115     1.846982     1.838848     1.830714
      1.822581     1.814447     1.806314     1.798180     1.790046     1.781913     1.773779     1.765645     1.757512     1.749378
      1.741244     1.733111     1.724977     1.716843     1.708710     1.700576     1.692442     1.684309     1.676175     1.668041
      1.659908     1.651774     1.643641     1.635507     1.627373     1.619240     1.611106     1.602972     1.594839     1.586705
      1.578571     1.570438     1.562304     1.554170     1.546037     1.537903     1.529769     1.521636     1.513502     1.505368
      1.497235     1.489101     1.480968     1.472834     1.464700     1.456567     1.448433     1.440299     1.432166     1.424032
      1.415898     1.407765     1.399631     1.391497     1.383364     1.375230     1.367096     1.358963     1.350829     1.342695
      1.334562     1.326428     1.318295     1.310161     1.302027     1.293894     1.285760     1.277626     1.269493     1.261359
      1.253225     1.245092     1.236958     1.228824     1.220691     1.212557     1.204423     1.196290     1.188156     1.180022
      1.171889     1.163755     1.155622     1.147488     1.139354     1.131221     1.123087     1.114953     1.106820     1.098686
      1.090552     1.082419     1.074285     1.066151     1.058018     1.049884     1.041750     1.033617     1.025483     1.017349
      1.009216     1.001082     0.992949     0.984815     0.976681     0.968548     0.960414     0.952280     0.944147     0.936013
      0.927879     0.919746     0.911612     0.903478     0.895345     0.887211     0.879077     0.870944     0.862810     0.854676
      0.846543     0.838409     0.830276     0.822142     0.814008     0.805875     0.797741     0.789607     0.781474     0.773340
      0.765206     0.757073     0.748939     0.740805     0.732672     0.724538     0.716404     0.708271     0.700137     0.692003
      0.683870     0.675736     0.667603     0.659469     0.651335     0.643202     0.635068     0.626934     0.618801     0.610667
      0.602533     0.594400     0.586266     0.578132     0.569999     0.561865     0.553731     0.545598     0.537464     0.529330
      0.521197     0.513063     0.504930     0.496796     0.488662     0.480529     0.472395     0.464261     0.456128     0.447994
      0.439861     0.431727     0.423593     0.415460     0.407326     0.399192     0.391059     0.382925     0.374792     0.366658
      0.358524     0.350391     0.342257     0.334124     0.325990     0.317856     0.309723     0.301589     0.293455     0.285322
      0.277188     0.269055     0.260921     0.252787     0.244654     0.236520     0.228386     0.220253     0.212119     0.203986
 NY phased data points follow
  -6.85204E+01 -8.15799E+01 -8.41408E+01 -6.82347E+01 -9.76352E+01 -7.82368E+01 -6.22498E+01 -8.23357E+01 -9.36696E+01 -9.31766E+01
  -9.87142E+01 -9.40601E+01 -9.47408E+01 -9.83944E+01 -1.10163E+02 -1.12765E+02 -9.14035E+01 -1.17857E+02 -1.05238E+02 -1.19453E+02
  -1.48689E+02 -1.05327E+02 -1.01092E+02 -8.30015E+01 -4.81923E+01 -3.02711E+01 -3.56693E+01 -4.23020E+01 -2.07546E+01 -3.06597E+01
  -4.15768E+01 -3.32566E+01 -3.85215E+01 -4.42670E+01 -5.00498E+01 -4.60528E+01 -4.76368E+01 -6.71611E+01 -7.48288E+01 -9.32793E+01
  -1.09975E+02 -9.36264E+01 -8.70550E+01 -9.51268E+01 -6.23729E+01 -3.08053E+01 -1.67101E+01  1.65992E+00 -5.89565E+00 -6.75464E+00
  -1.69109E+01 -1.24955E+01 -1.16895E+01 -2.90714E+01 -2.69467E+01 -5.01622E+01 -5.31708E+01 -3.80635E+01 -6.04868E+01 -7.04525E+01
  -3.69222E+01 -3.85278E+01 -4.57591E+01 -2.18330E+01 -4.77871E+00  3.43017E+00 -1.68381E+01 -2.05178E+01 -4.31209E+01 -7.71589E+01
  -7.35795E+01 -4.71264E+01 -3.59559E+01 -4.21655E+01 -1.22337E+01 -9.60576E+00 -8.59908E+00  1.55364E+00 -6.76926E+00  6.53766E+00
  -5.93620E+00 -2.88689E+01 -3.02038E+01 -5.63526E+01 -7.56617E+01 -6.65479E+01 -6.23882E+01 -4.32551E+01 -3.04278E+01 -1.27458E+01
  -7.01868E+00 -9.01916E+00  1.61656E+01  1.02509E+01  6.58895E+00  1.46021E+01  1.60359E+01  2.07518E+01  1.64131E+01  1.10835E+01
   1.03761E+01 -3.67811E+00 -3.05012E+01 -2.72289E+01 -3.97943E+01 -7.96461E+01 -9.10702E+01 -9.06156E+01 -9.31536E+01 -1.38693E+02
  -2.10144E+02 -2.03560E+02 -1.50539E+02 -1.12506E+02 -1.01925E+02 -9.75582E+01 -6.93646E+01 -5.99646E+01 -6.70227E+01 -6.12135E+01
  -4.79432E+01 -4.86635E+01 -3.27546E+01 -1.38068E+01 -1.69438E+01 -1.81266E+01 -1.04545E+01  2.40336E+01  2.12923E+01  4.01582E+01
   9.42794E+01  7.72330E+01 -3.52908E+01 -1.51858E+02 -1.50308E+02 -1.37062E+02 -1.32538E+02 -1.16814E+02 -1.20869E+02 -1.25124E+02
  -1.10365E+02 -9.91691E+01 -1.24829E+02 -1.02482E+02 -1.05469E+02 -1.15021E+02 -9.39620E+01 -1.03203E+02 -8.97265E+01 -9.70611E+01
  -9.66728E+01 -8.08839E+01 -7.11762E+01 -6.23229E+01 -7.67508E+01 -7.31551E+01 -7.41541E+01 -7.47546E+01 -6.91688E+01 -8.29509E+01
  -7.24974E+01 -5.25921E+01 -4.98990E+01 -4.49019E+01 -5.50349E+01 -6.32693E+01 -6.99639E+01 -7.09129E+01 -5.52536E+01 -5.46304E+01
  -4.06278E+01 -3.02421E+01 -1.92246E+01 -8.08768E+00 -3.42511E+01 -4.08208E+01 -1.90914E+01 -5.51953E+00 -3.18225E+01 -5.60026E+01
  -5.00998E+01 -7.19853E+01 -8.32847E+01 -7.65113E+01 -8.90787E+01 -9.40237E+01 -7.64998E+01 -6.06775E+01 -6.61047E+01 -5.96320E+01
  -5.89652E+01 -6.45487E+01 -5.82237E+01 -5.58627E+01 -3.32262E+01 -3.05529E+01 -4.01096E+01 -4.16249E+01 -3.64965E+01 -3.61263E+01
  -5.37685E+01 -3.16864E+01 -2.26341E+01 -1.61959E+01 -1.51954E+01 -1.24984E+01 -1.46157E+00 -4.58855E+01 -6.38218E+01 -7.90783E+01
  -6.84831E+01 -5.93840E+01 -7.04717E+01 -3.58044E+01 -1.89379E+01  2.21344E+01  3.10579E+01  1.67683E+01  2.61557E+01  1.48317E+01
  -5.85576E+00 -3.33368E+01 -2.17486E+01 -2.67879E+01 -4.30078E+01 -1.91948E+01 -2.50678E+01 -3.68493E+01 -2.52297E+01 -3.00893E+01
  -3.00070E+01 -3.26877E+01 -4.51294E+01 -5.99689E+01 -7.82134E+01 -7.66712E+01 -8.31728E+01 -8.73358E+01 -8.93686E+01 -9.85928E+01
  -1.03682E+02 -8.54196E+01 -7.57577E+01 -6.73425E+01 -3.38192E+01 -2.82275E+01 -2.04261E+01 -3.38549E+01 -3.11205E+01 -4.23608E+01
  -5.34907E+01 -2.96630E+01 -4.97068E+01 -5.17507E+01 -7.80630E+01 -8.89847E+01 -1.07788E+02 -2.89397E+01  1.39801E+02  1.54519E+02
   1.54627E+02  1.39366E+02  1.18370E+02  1.05117E+02  7.38269E+01  7.74355E+01  6.08784E+01  6.34683E+01  7.03685E+01  5.38512E+01
   5.64729E+01  5.84828E+01  4.49345E+01  6.25373E+01  6.17981E+01  6.00192E+01  6.41996E+01  4.02827E+01  5.20598E+01  5.86005E+01
   5.87449E+01  5.07582E+01  4.86915E+01  5.05743E+01  3.44478E+01  3.36146E+01  3.46573E+01  4.01571E+01  3.28678E+01  3.59157E+01
   4.49622E+01  2.97254E+01  2.46408E+01  3.21017E+01  2.75713E+01  2.03322E+01  2.64909E+01  2.80599E+01  1.80902E+01  3.20154E+01
   3.58372E+01  2.10095E+01  4.26608E+01  4.69093E+01  4.12636E+01  4.08704E+01  4.52086E+01  5.43384E+01  5.33054E+01  7.28679E+01
   7.76982E+01  6.28634E+01  6.69549E+01  9.36113E+01  7.88107E+01  6.27017E+01  6.75051E+01  6.48287E+01  8.90012E+01  7.95974E+01
   5.76782E+01  6.51343E+01  5.99795E+01  3.21713E+01  1.64902E+01  3.51655E+00  1.60027E+00 -4.26272E+00 -1.74237E+01 -4.51734E+00
  -1.11919E+01 -2.38910E+01 -4.05286E+01 -4.21298E+01 -5.94226E+01 -8.45381E+01 -8.66211E+01 -7.88199E+01 -7.19372E+01 -8.02214E+01
  -4.97952E+01 -5.89869E+01 -5.40166E+01 -3.14176E+01 -4.72475E+01 -4.70464E+01 -4.25353E+01 -2.93994E+01 -4.60709E+01 -5.54744E+01
  -5.21755E+01 -3.48208E+01 -4.28798E+01 -5.44499E+01 -4.43541E+01 -5.15688E+01 -3.90425E+01 -5.86915E+01 -5.52428E+01 -4.83566E+01
  -4.40551E+01 -3.28992E+01 -5.14153E+01 -4.70900E+01 -4.77143E+01 -3.41306E+01 -1.84174E+01 -8.44261E+00 -6.27540E+00 -1.79664E+01
  -1.45867E+01 -1.48532E+01 -1.25043E+01  6.51113E+00  7.48943E+00 -1.56956E+00  3.12369E+00  1.51053E+01  2.46591E+01  7.58815E+00
   2.66202E+01  4.16956E+01  4.32105E+01  6.03263E+01  5.49066E+01  7.49999E+01  7.83129E+01  7.68428E+01  8.67934E+01  8.62316E+01
   7.75063E+01  6.09367E+01  4.06564E+01  1.25743E+01  1.94345E+01  1.54178E+01  5.67323E-01  1.30572E+01  3.70930E+00 -1.98370E+01
  -1.38925E+01 -2.54717E+01 -5.11782E+01 -4.07015E+01 -4.38140E+01 -6.43802E+01 -6.62000E+01 -4.74376E+01 -6.02209E+01 -7.07874E+01
  -4.14435E+01 -5.12543E+01 -6.24043E+01 -4.35581E+01 -4.45550E+01 -6.40427E+01 -6.38612E+01 -4.99878E+01 -5.68298E+01 -5.75198E+01
  -5.35953E+01 -5.51955E+01 -6.28866E+01 -6.88876E+01 -5.36597E+01 -6.08710E+01 -6.36833E+01 -4.95330E+01 -4.65641E+01 -5.65301E+01
  -5.85417E+01 -5.15968E+01 -7.33149E+01 -6.04621E+01 -6.02621E+01 -4.74027E+01 -2.72993E+01 -5.35063E+01 -4.41502E+01 -5.58516E+01
  -4.27865E+01 -4.08181E+01 -4.25283E+01 -3.79483E+01 -5.34333E+01 -2.01447E+01 -4.09578E+01 -4.57332E+01 -4.32264E+01 -4.80218E+01
  -4.62455E+01 -5.84257E+01 -4.61134E+01 -6.19611E+01 -4.44974E+01 -4.11663E+01 -4.25180E+01 -5.01636E+01 -5.05403E+01 -1.95448E+01
  -4.39758E+01 -3.68293E+01 -4.06855E+01 -4.40239E+01 -2.62158E+01 -2.87279E+01 -3.85903E+01 -4.88071E+01 -3.33902E+01 -4.66402E+01
  -4.20628E+01 -3.50775E+01 -4.32184E+01 -4.53630E+01 -3.81622E+01 -3.00106E+01 -5.05396E+01 -3.93168E+01 -4.06555E+01 -3.94565E+01
 NY points of the fit to the data follow
  -8.48152E+01 -8.87041E+01 -9.34685E+01 -9.94216E+01 -9.94196E+01 -8.35162E+01 -6.67391E+01 -6.66158E+01 -7.62536E+01 -8.50495E+01
  -9.24883E+01 -9.87787E+01 -1.01577E+02 -1.01317E+02 -1.01152E+02 -1.01515E+02 -1.00666E+02 -1.07830E+02 -1.11666E+02 -1.23615E+02
  -1.37587E+02 -1.17440E+02 -9.52014E+01 -7.90783E+01 -4.32781E+01 -2.37013E+01 -3.06891E+01 -3.06791E+01 -2.87398E+01 -2.92862E+01
  -2.92177E+01 -3.11185E+01 -3.27211E+01 -3.48898E+01 -3.91885E+01 -4.48815E+01 -5.09473E+01 -5.87584E+01 -7.15444E+01 -9.11012E+01
  -1.10011E+02 -1.14331E+02 -9.91833E+01 -7.76250E+01 -5.62661E+01 -3.23214E+01 -1.65921E+01 -1.30614E+01 -1.16694E+01 -1.14750E+01
  -1.50749E+01 -1.81592E+01 -2.07421E+01 -2.75690E+01 -3.70759E+01 -4.74846E+01 -5.43257E+01 -5.23558E+01 -5.92178E+01 -6.54185E+01
  -4.92587E+01 -4.11281E+01 -4.32454E+01 -2.72479E+01 -1.20501E+01 -1.06182E+01 -1.16705E+01 -1.83758E+01 -4.06473E+01 -6.64242E+01
  -6.53431E+01 -5.03420E+01 -4.79489E+01 -3.96359E+01 -1.90051E+01 -6.85885E+00 -3.54451E+00  5.71130E-01  7.34438E-01  2.61633E+00
  -5.30423E+00 -2.02871E+01 -3.96077E+01 -6.68373E+01 -8.07759E+01 -7.73083E+01 -6.62858E+01 -4.56478E+01 -2.60230E+01 -1.78089E+01
  -1.05923E+01 -5.41842E+00 -1.70263E+00  2.12361E+00  6.10622E+00  1.05884E+01  1.31023E+01  1.53763E+01  1.44718E+01  1.12235E+01
   1.33856E+01  2.12525E+01  3.79740E+00 -1.63542E+01 -3.44585E+01 -6.60898E+01 -8.04794E+01 -7.83643E+01 -8.65836E+01 -1.32661E+02
  -1.85985E+02 -1.82046E+02 -1.43229E+02 -1.23129E+02 -1.05264E+02 -8.85428E+01 -8.11132E+01 -7.41358E+01 -6.70397E+01 -6.03864E+01
  -5.40462E+01 -4.71804E+01 -3.98391E+01 -3.13678E+01 -2.15517E+01 -9.29930E+00  5.09150E+00  1.45498E+01  3.74206E+01  5.45956E+01
   8.01163E+01  7.82389E+01 -3.26151E+01 -1.41629E+02 -1.46782E+02 -1.32531E+02 -1.32354E+02 -1.16683E+02 -1.08637E+02 -1.08966E+02
  -1.09246E+02 -1.08634E+02 -1.07932E+02 -1.06718E+02 -1.05973E+02 -1.04889E+02 -1.02024E+02 -9.85127E+01 -9.48475E+01 -9.09176E+01
  -8.73342E+01 -8.43343E+01 -8.22466E+01 -8.04460E+01 -7.73632E+01 -7.35489E+01 -7.10157E+01 -7.07207E+01 -7.04982E+01 -6.86843E+01
  -6.52951E+01 -6.20368E+01 -6.26698E+01 -6.58609E+01 -6.67480E+01 -6.47667E+01 -6.15484E+01 -5.98696E+01 -6.16565E+01 -6.22939E+01
  -5.52226E+01 -3.91974E+01 -2.42599E+01 -2.74959E+01 -4.25556E+01 -4.34642E+01 -3.07012E+01 -2.14707E+01 -2.77226E+01 -4.59838E+01
  -5.83569E+01 -6.19444E+01 -6.62266E+01 -6.93290E+01 -6.95244E+01 -6.97540E+01 -6.90800E+01 -6.80143E+01 -6.62960E+01 -6.45483E+01
  -6.39413E+01 -6.09655E+01 -6.07192E+01 -5.87557E+01 -4.54956E+01 -4.20753E+01 -4.85857E+01 -4.37106E+01 -3.62659E+01 -3.52609E+01
  -3.66161E+01 -3.34602E+01 -2.15822E+01 -1.10276E+01 -1.26895E+01 -2.01431E+01 -2.56323E+01 -3.35400E+01 -4.70989E+01 -5.76275E+01
  -5.98212E+01 -6.49284E+01 -5.66541E+01 -4.34203E+01 -2.87714E+01  6.46853E+00  2.74868E+01  2.59512E+01  2.80688E+01  1.68328E+01
  -3.38201E+00 -8.02014E+00 -8.63504E+00 -7.33731E+00 -3.76773E+00 -2.97176E+00 -4.26015E+00 -9.43915E+00 -1.80614E+01 -2.81515E+01
  -3.93126E+01 -5.16246E+01 -6.33371E+01 -7.25649E+01 -8.26168E+01 -9.18163E+01 -9.51425E+01 -9.90115E+01 -1.02179E+02 -9.60374E+01
  -9.33709E+01 -8.55556E+01 -6.98140E+01 -5.76281E+01 -4.25000E+01 -3.27427E+01 -3.20545E+01 -3.40062E+01 -4.07028E+01 -4.52899E+01
  -5.20061E+01 -6.06496E+01 -5.96505E+01 -6.58732E+01 -5.90478E+01 -8.81624E+01 -1.29361E+02 -2.71664E+01  1.22906E+02  1.49921E+02
   1.30450E+02  1.26325E+02  1.05077E+02  8.76937E+01  8.23074E+01  7.90760E+01  7.52630E+01  7.13948E+01  6.80394E+01  6.55001E+01
   6.40011E+01  6.34120E+01  6.37754E+01  6.38862E+01  6.40554E+01  6.38254E+01  6.24231E+01  6.08718E+01  5.99966E+01  5.86401E+01
   5.67084E+01  5.43464E+01  5.16346E+01  4.96117E+01  4.77494E+01  4.49927E+01  4.22789E+01  4.00211E+01  3.70335E+01  3.38244E+01
   2.98739E+01  2.53258E+01  2.10932E+01  1.65873E+01  1.22915E+01  9.91468E+00  9.51354E+00  1.08183E+01  1.36772E+01  1.67581E+01
   1.94555E+01  2.25049E+01  2.59844E+01  2.90595E+01  3.16779E+01  3.40139E+01  3.61194E+01  3.80456E+01  4.08006E+01  4.41328E+01
   4.68395E+01  4.89581E+01  5.06558E+01  5.22355E+01  5.42678E+01  5.55389E+01  5.58719E+01  5.62658E+01  5.54505E+01  5.54869E+01
   5.23488E+01  5.10294E+01  3.67757E+01  1.07050E+01 -4.87387E+00 -1.78541E+01 -2.76320E+01 -2.43199E+01 -2.42788E+01 -3.26408E+01
  -3.81446E+01 -4.49040E+01 -5.06928E+01 -5.29252E+01 -5.17519E+01 -4.70037E+01 -4.01590E+01 -3.24878E+01 -2.50619E+01 -1.94384E+01
  -1.51186E+01 -2.20674E+01 -3.22857E+01 -3.71396E+01 -4.26531E+01 -4.01836E+01 -2.93973E+01 -2.43115E+01 -2.25307E+01 -1.97130E+01
  -2.03128E+01 -2.24272E+01 -2.56500E+01 -2.99363E+01 -3.60063E+01 -4.17613E+01 -4.47498E+01 -4.60959E+01 -4.59461E+01 -4.37387E+01
  -4.07949E+01 -3.70648E+01 -3.28330E+01 -2.86178E+01 -2.40369E+01 -2.01313E+01 -1.67859E+01 -1.34800E+01 -1.05507E+01 -7.15266E+00
  -3.46170E+00 -2.22530E-01  3.00434E+00  6.67584E+00  1.04945E+01  1.53521E+01  2.11017E+01  2.63933E+01  3.25370E+01  4.05055E+01
   4.82845E+01  5.54288E+01  6.38834E+01  7.32131E+01  8.15567E+01  8.87554E+01  9.33398E+01  9.33476E+01  8.76892E+01  7.63033E+01
   6.16434E+01  4.76999E+01  3.63564E+01  2.70059E+01  1.94976E+01  1.34852E+01  6.82572E+00 -2.69911E+00 -1.30871E+01 -2.34509E+01
  -3.37339E+01 -4.23497E+01 -4.80133E+01 -5.20349E+01 -5.53187E+01 -5.72923E+01 -5.81455E+01 -5.87268E+01 -5.95362E+01 -6.04380E+01
  -6.13525E+01 -6.18521E+01 -6.17283E+01 -6.12172E+01 -6.11187E+01 -6.11064E+01 -6.05162E+01 -5.98623E+01 -6.01428E+01 -6.05102E+01
  -5.94467E+01 -5.83444E+01 -5.85213E+01 -5.86131E+01 -5.78837E+01 -5.73292E+01 -5.73121E+01 -5.73973E+01 -5.69033E+01 -5.58352E+01
  -5.51229E+01 -5.47127E+01 -5.46752E+01 -5.46413E+01 -5.45883E+01 -5.43204E+01 -5.35960E+01 -5.28524E+01 -5.22262E+01 -5.16166E+01
  -5.11950E+01 -5.09837E+01 -5.03548E+01 -4.99913E+01 -5.01491E+01 -5.00876E+01 -4.98401E+01 -4.93520E+01 -4.85899E+01 -4.81658E+01
  -4.76619E+01 -4.72985E+01 -4.73835E+01 -4.69508E+01 -4.60940E+01 -4.56089E+01 -4.50077E+01 -4.45036E+01 -4.41898E+01 -4.37707E+01
  -4.32587E+01 -4.27188E+01 -4.25824E+01 -4.26976E+01 -4.23499E+01 -4.20054E+01 -4.17085E+01 -4.09473E+01 -3.97575E+01 -3.87607E+01
  -3.84009E+01 -3.85305E+01 -3.88136E+01 -3.87451E+01 -3.81498E+01 -3.76288E+01 -3.72497E+01 -3.65008E+01 -3.58197E+01 -3.59791E+01
 NY background values follow
    -5.548E+01   -5.537E+01   -5.527E+01   -5.517E+01   -5.506E+01   -5.496E+01   -5.486E+01   -5.475E+01   -5.465E+01   -5.454E+01
    -5.444E+01   -5.433E+01   -5.422E+01   -5.412E+01   -5.401E+01   -5.390E+01   -5.380E+01   -5.369E+01   -5.358E+01   -5.347E+01
    -5.336E+01   -5.325E+01   -5.314E+01   -5.303E+01   -5.291E+01   -5.280E+01   -5.269E+01   -5.257E+01   -5.246E+01   -5.234E+01
    -5.222E+01   -5.210E+01   -5.199E+01   -5.187E+01   -5.175E+01   -5.163E+01   -5.150E+01   -5.138E+01   -5.126E+01   -5.114E+01
    -5.101E+01   -5.089E+01   -5.076E+01   -5.064E+01   -5.051E+01   -5.038E+01   -5.026E+01   -5.013E+01   -5.000E+01   -4.987E+01
    -4.974E+01   -4.961E+01   -4.948E+01   -4.935E+01   -4.922E+01   -4.909E+01   -4.896E+01   -4.883E+01   -4.870E+01   -4.857E+01
    -4.844E+01   -4.831E+01   -4.818E+01   -4.805E+01   -4.791E+01   -4.778E+01   -4.765E+01   -4.752E+01   -4.738E+01   -4.725E+01
    -4.712E+01   -4.698E+01   -4.685E+01   -4.671E+01   -4.657E+01   -4.644E+01   -4.630E+01   -4.616E+01   -4.602E+01   -4.588E+01
    -4.574E+01   -4.560E+01   -4.545E+01   -4.531E+01   -4.516E+01   -4.501E+01   -4.486E+01   -4.471E+01   -4.456E+01   -4.441E+01
    -4.426E+01   -4.410E+01   -4.394E+01   -4.379E+01   -4.362E+01   -4.346E+01   -4.330E+01   -4.313E+01   -4.297E+01   -4.280E+01
    -4.263E+01   -4.246E+01   -4.228E+01   -4.211E+01   -4.193E+01   -4.175E+01   -4.157E+01   -4.139E+01   -4.120E+01   -4.102E+01
    -4.083E+01   -4.064E+01   -4.044E+01   -4.025E+01   -4.005E+01   -3.985E+01   -3.965E+01   -3.945E+01   -3.924E+01   -3.903E+01
    -3.882E+01   -3.861E+01   -3.840E+01   -3.818E+01   -3.796E+01   -3.774E+01   -3.752E+01   -3.729E+01   -3.707E+01   -3.684E+01
    -3.661E+01   -3.638E+01   -3.615E+01   -3.591E+01   -3.568E+01   -3.544E+01   -3.520E+01   -3.496E+01   -3.472E+01   -3.448E+01
    -3.424E+01   -3.400E+01   -3.375E+01   -3.351E+01   -3.326E+01   -3.302E+01   -3.277E+01   -3.253E+01   -3.228E+01   -3.203E+01
    -3.178E+01   -3.154E+01   -3.129E+01   -3.104E+01   -3.079E+01   -3.054E+01   -3.030E+01   -3.005E+01   -2.980E+01   -2.955E+01
    -2.931E+01   -2.906E+01   -2.882E+01   -2.857E+01   -2.832E+01   -2.808E+01   -2.784E+01   -2.759E+01   -2.735E+01   -2.711E+01
    -2.687E+01   -2.663E+01   -2.639E+01   -2.615E+01   -2.591E+01   -2.568E+01   -2.544E+01   -2.521E+01   -2.498E+01   -2.475E+01
    -2.452E+01   -2.429E+01   -2.406E+01   -2.384E+01   -2.361E+01   -2.339E+01   -2.317E+01   -2.295E+01   -2.273E+01   -2.251E+01
    -2.230E+01   -2.208E+01   -2.187E+01   -2.166E+01   -2.145E+01   -2.124E+01   -2.103E+01   -2.082E+01   -2.062E+01   -2.042E+01
    -2.021E+01   -2.001E+01   -1.981E+01   -1.962E+01   -1.942E+01   -1.923E+01   -1.903E+01   -1.884E+01   -1.865E+01   -1.846E+01
    -1.827E+01   -1.808E+01   -1.790E+01   -1.771E+01   -1.753E+01   -1.735E+01   -1.717E+01   -1.700E+01   -1.682E+01   -1.665E+01
    -1.648E+01   -1.632E+01   -1.615E+01   -1.599E+01   -1.583E+01   -1.568E+01   -1.553E+01   -1.538E+01   -1.523E+01   -1.509E+01
    -1.495E+01   -1.482E+01   -1.469E+01   -1.456E+01   -1.444E+01   -1.432E+01   -1.420E+01   -1.409E+01   -1.398E+01   -1.388E+01
    -1.379E+01   -1.369E+01   -1.361E+01   -1.352E+01   -1.345E+01   -1.337E+01   -1.331E+01   -1.324E+01   -1.318E+01   -1.313E+01
    -1.308E+01   -1.304E+01   -1.300E+01   -1.297E+01   -1.294E+01   -1.292E+01   -1.290E+01   -1.289E+01   -1.289E+01   -1.288E+01
    -1.289E+01   -1.290E+01   -1.291E+01   -1.293E+01   -1.296E+01   -1.299E+01   -1.303E+01   -1.307E+01   -1.312E+01   -1.317E+01
    -1.323E+01   -1.330E+01   -1.337E+01   -1.344E+01   -1.352E+01   -1.361E+01   -1.371E+01   -1.381E+01   -1.392E+01   -1.403E+01
    -1.415E+01   -1.427E+01   -1.441E+01   -1.455E+01   -1.469E+01   -1.484E+01   -1.500E+01   -1.517E+01   -1.534E+01   -1.552E+01
    -1.571E+01   -1.590E+01   -1.610E+01   -1.631E+01   -1.653E+01   -1.675E+01   -1.698E+01   -1.722E+01   -1.746E+01   -1.772E+01
    -1.798E+01   -1.825E+01   -1.852E+01   -1.881E+01   -1.910E+01   -1.939E+01   -1.969E+01   -2.000E+01   -2.032E+01   -2.064E+01
    -2.096E+01   -2.130E+01   -2.163E+01   -2.197E+01   -2.232E+01   -2.266E+01   -2.302E+01   -2.337E+01   -2.373E+01   -2.410E+01
    -2.446E+01   -2.483E+01   -2.520E+01   -2.557E+01   -2.595E+01   -2.632E+01   -2.670E+01   -2.708E+01   -2.746E+01   -2.784E+01
    -2.822E+01   -2.860E+01   -2.898E+01   -2.936E+01   -2.974E+01   -3.012E+01   -3.049E+01   -3.087E+01   -3.124E+01   -3.161E+01
    -3.198E+01   -3.234E+01   -3.270E+01   -3.305E+01   -3.341E+01   -3.375E+01   -3.410E+01   -3.443E+01   -3.477E+01   -3.509E+01
    -3.541E+01   -3.573E+01   -3.603E+01   -3.633E+01   -3.662E+01   -3.691E+01   -3.718E+01   -3.745E+01   -3.771E+01   -3.796E+01
    -3.820E+01   -3.843E+01   -3.866E+01   -3.887E+01   -3.907E+01   -3.927E+01   -3.946E+01   -3.963E+01   -3.980E+01   -3.996E+01
    -4.011E+01   -4.026E+01   -4.039E+01   -4.052E+01   -4.064E+01   -4.075E+01   -4.086E+01   -4.095E+01   -4.104E+01   -4.112E+01
    -4.120E+01   -4.127E+01   -4.133E+01   -4.138E+01   -4.142E+01   -4.146E+01   -4.150E+01   -4.152E+01   -4.154E+01   -4.156E+01
    -4.156E+01   -4.157E+01   -4.156E+01   -4.155E+01   -4.153E+01   -4.151E+01   -4.149E+01   -4.146E+01   -4.142E+01   -4.138E+01
    -4.133E+01   -4.128E+01   -4.123E+01   -4.117E+01   -4.111E+01   -4.104E+01   -4.097E+01   -4.090E+01   -4.082E+01   -4.074E+01
    -4.066E+01   -4.057E+01   -4.048E+01   -4.039E+01   -4.030E+01   -4.020E+01   -4.011E+01   -4.001E+01   -3.991E+01   -3.980E+01
    -3.970E+01   -3.960E+01   -3.949E+01   -3.938E+01   -3.927E+01   -3.916E+01   -3.905E+01   -3.894E+01   -3.883E+01   -3.871E+01
    -3.860E+01   -3.848E+01   -3.837E+01   -3.825E+01   -3.814E+01   -3.802E+01   -3.790E+01   -3.778E+01   -3.766E+01   -3.754E+01
    -3.742E+01   -3.730E+01   -3.719E+01   -3.707E+01   -3.695E+01   -3.683E+01   -3.671E+01   -3.659E+01   -3.647E+01   -3.635E+01
    -3.623E+01   -3.611E+01   -3.599E+01   -3.588E+01   -3.576E+01   -3.564E+01   -3.553E+01   -3.541E+01   -3.529E+01   -3.518E+01
    -3.506E+01   -3.494E+01   -3.483E+01   -3.471E+01   -3.460E+01   -3.448E+01   -3.437E+01   -3.426E+01   -3.414E+01   -3.403E+01
    -3.391E+01   -3.380E+01   -3.369E+01   -3.357E+01   -3.346E+01   -3.334E+01   -3.323E+01   -3.312E+01   -3.300E+01   -3.289E+01
 Mac      Conc. = 3.19E-04
  -7.85448E+01 -7.91420E+01 -7.91841E+01 -7.91950E+01 -7.94706E+01 -8.00933E+01 -8.13428E+01 -8.34131E+01 -8.56667E+01 -8.76416E+01
  -8.87681E+01 -8.88071E+01 -8.85261E+01 -8.79952E+01 -8.81681E+01 -9.01876E+01 -9.30464E+01 -9.42702E+01 -9.01236E+01 -8.24774E+01
  -7.76222E+01 -7.37010E+01 -6.86167E+01 -6.56219E+01 -6.50212E+01 -6.41920E+01 -6.26590E+01 -6.09719E+01 -5.88332E+01 -5.61168E+01
  -5.38161E+01 -5.26857E+01 -5.15541E+01 -5.04422E+01 -5.04637E+01 -5.14198E+01 -5.19426E+01 -5.05825E+01 -4.70983E+01 -4.32787E+01
  -4.17888E+01 -4.27473E+01 -4.33326E+01 -4.26489E+01 -4.09883E+01 -3.89126E+01 -3.78177E+01 -3.80342E+01 -3.88285E+01 -4.00526E+01
  -4.20604E+01 -4.37356E+01 -4.43992E+01 -4.50854E+01 -4.57748E+01 -4.57711E+01 -4.56357E+01 -4.46422E+01 -4.23610E+01 -4.06375E+01
  -3.97073E+01 -3.75944E+01 -3.57652E+01 -3.58507E+01 -3.66982E+01 -3.79173E+01 -3.91638E+01 -3.94675E+01 -3.95337E+01 -4.01417E+01
  -4.00334E+01 -3.76518E+01 -3.34637E+01 -3.06237E+01 -2.90184E+01 -2.78394E+01 -2.80348E+01 -2.89021E+01 -2.99484E+01 -3.11601E+01
  -3.17161E+01 -3.18905E+01 -3.24629E+01 -3.21790E+01 -3.10443E+01 -2.96930E+01 -2.86335E+01 -2.76777E+01 -2.65179E+01 -2.58259E+01
  -2.54461E+01 -2.47614E+01 -2.43576E+01 -2.44430E+01 -2.43557E+01 -2.53566E+01 -2.77631E+01 -3.06625E+01 -3.37672E+01 -3.67555E+01
  -3.86621E+01 -4.00716E+01 -4.26953E+01 -4.58196E+01 -4.93906E+01 -5.45483E+01 -6.17664E+01 -7.04375E+01 -7.71118E+01 -7.95590E+01
