 
 $NMID
 ID=''
 FMTDAT='(2E13.5)'
 TRAMP=   1.00000E+0
 VOLUME=   1.00000E+0
 $END
   3.46364E+3  -2.60740E+4
  -1.76267E+4  -2.50813E+4
  -1.43808E+4   1.61684E+4
   2.82286E+4   1.49072E+4
   9.48894E+3  -2.40341E+4
  -2.73786E+4  -9.59494E+3
  -5.97205E+2   1.98388E+4
   2.00322E+4  -1.23284E+3
  -5.59303E+3  -1.23017E+4
  -8.39395E+3   1.11145E+4
   8.74958E+3   1.03353E+4
   1.32336E+3  -6.87942E+3
  -6.09919E+3  -2.08390E+3
  -4.22098E+2   6.53592E+3
  -1.29331E+2   8.49029E+2
  -4.47497E+2  -4.46259E+3
   2.39329E+3  -1.84932E+3
   2.91894E+2   2.22493E+3
  -1.20788E+3   1.09644E+3
   6.37356E+2  -8.12413E+2
   8.39932E+2   4.86154E+2
   7.94432E+2  -2.23826E+2
   1.19669E+3  -1.46871E+3
  -5.41845E+2   1.52772E+3
  -7.34357E+2   9.57890E+2
   1.72166E+3  -2.44772E+3
   2.36402E+3   3.66616E+2
   2.54858E+2   3.32838E+3
  -1.58471E+3  -5.54205E+2
  -2.81526E+2  -1.75467E+3
   1.60172E+3   1.21717E+3
   6.54016E+2   1.62793E+3
  -1.20604E+3   3.30805E+2
  -1.63818E+3  -8.15401E+2
  -7.15480E+2  -2.97706E+3
   1.71485E+3  -2.02472E+3
   2.71983E+3   1.36902E+3
   4.46757E+2   1.42883E+3
  -1.01308E+3  -7.30208E+2
   4.39449E+2  -1.53835E+2
  -2.46912E+2   8.32825E+2
  -1.38938E+3  -8.12382E+2
   1.79088E+2  -2.10710E+3
   1.77789E+3  -8.34780E+2
   1.08100E+3  -5.25095E+2
   1.11419E+3  -1.03369E+2
   1.09336E+3   1.78331E+3
  -9.52030E+2   1.97702E+3
  -2.26003E+3  -1.00536E+3
  -9.57520E+2  -1.79715E+3
   5.53094E+2  -7.68148E+2
   1.33762E+2  -7.70564E+2
  -1.31846E+2  -1.13859E+3
   6.08050E+2  -1.09831E+2
   8.43378E+2   4.08930E+2
   1.30213E+2   3.11635E+2
  -1.06136E+3   2.58248E+2
  -6.91979E+2  -1.36766E+3
   2.86112E+2  -1.80470E+3
   9.63368E+2  -8.33260E+2
   8.63117E+2   1.67498E+2
   1.36132E+3   7.44867E+0
   7.57505E+2   8.98082E+2
  -9.29264E+2   1.98344E+3
  -2.21630E+3   1.05334E+3
  -1.93382E+3  -9.12071E+2
  -9.76864E+2  -1.37116E+3
   2.60684E+2  -1.64541E+3
   8.35982E+2  -1.08915E+3
   2.88724E+2   5.61922E+1
  -4.52275E+2   5.06887E+2
  -9.86833E+1  -9.09104E+2
   1.07903E+3  -6.83853E+2
   9.77805E+2   8.48759E+2
  -1.90525E+2   8.94393E+2
  -4.61395E+2  -3.34990E+2
  -2.12178E+2  -2.65384E+2
   5.01463E+2   6.82966E+2
   8.76858E+1   6.73220E+2
  -7.85834E+2   1.09487E+2
  -1.17429E+3  -1.05525E+2
  -2.17517E+2  -3.86642E+2
   1.87821E+1   4.15974E+1
  -3.10881E+2   5.32179E+1
  -7.69961E+2  -3.98399E+2
   2.58989E+1  -9.18413E+2
   3.81271E+2  -1.48504E+2
   4.42539E+2   3.38638E+2
   2.07303E+2   1.76792E+2
   3.33738E+2  -2.22687E+2
   8.46885E+2   3.13135E+2
   5.91241E+2   8.14207E+2
  -9.18047E+1   1.47458E+3
  -1.00871E+3   1.10401E+3
  -1.01065E+3  -3.68799E+2
  -1.66114E+2  -1.28151E+3
   8.17796E+2  -6.01089E+2
   3.29408E+2   1.01468E+2
  -1.73946E+2   1.10233E+2
   3.37845E+2  -7.02503E+2
   1.20168E+3   7.19994E+1
   5.11610E+2   1.36965E+3
  -5.83265E+2   7.68233E+2
  -9.37688E+2  -6.04156E+2
   1.86172E+2  -1.03964E+3
   1.12288E+3   1.74689E+2
   4.59130E+2   7.92148E+2
  -8.58723E+2   1.16133E+2
  -9.91704E+2  -8.63881E+2
   4.62642E+2  -1.13027E+3
   1.12160E+3  -4.27084E+2
   1.13022E+3   2.24562E+2
   3.66960E+2   8.12136E+2
   2.15121E+2   2.87882E+2
   2.93077E+2   2.05655E+1
   6.85445E+1   7.91722E+2
  -6.54713E+2   7.15030E+2
  -1.23188E+3  -1.41391E+2
  -6.41550E+2  -1.44377E+3
   3.40173E+2  -1.33302E+3
   1.08457E+3  -4.12671E+2
   6.90578E+2   2.84455E+2
   2.57132E+2   2.56684E+2
   3.69487E+2   5.16135E+2
  -1.92642E+2   5.51192E+2
  -6.07378E+2   1.18523E+1
  -5.23585E+2  -2.83468E+2
   3.88599E+1  -4.93766E+2
   6.25101E+2   8.35683E+1
   4.46958E+2   3.38852E+2
  -2.50945E+2   5.28504E+2
  -7.41729E+2   2.28424E+2
  -2.34166E+2  -4.68394E+2
   3.36309E+2  -2.48207E+2
  -1.60329E+2  -6.60923E+1
  -4.54687E+2  -3.13911E+2
  -2.71852E+1  -3.87094E+2
   3.68315E+2  -2.36199E+1
   4.18522E+2   4.27951E+2
  -5.68257E+2   6.20246E+2
  -7.43232E+2  -1.61069E+2
  -3.01760E+2  -7.86173E+2
   6.54884E+2  -3.23699E+2
   9.47312E+2   5.80869E+2
  -1.68141E+2   1.02055E+3
  -5.43034E+2   3.97121E+2
  -6.97722E+2   5.89824E+0
  -4.42672E+2   7.92886E+1
  -6.58608E+2   1.28881E+2
  -4.66863E+2  -1.34985E+2
  -5.17097E+1  -6.55927E+2
   2.98222E+2  -6.69279E+2
   6.11593E+2   4.71475E+1
   4.03682E+2   7.37575E+2
  -3.32357E+2   3.11828E+2
  -1.60975E+2  -2.04863E+2
   4.67009E+2   1.44352E+2
   1.83035E+2   4.58442E+2
  -1.68976E+2   2.03474E+2
  -5.96197E+1   7.89760E+1
  -3.47999E+1  -5.97843E+0
  -1.61870E+2   5.47565E+2
  -5.62748E+2   4.17742E+2
  -5.78218E+2  -1.48665E+2
   2.67300E+1  -6.66787E+2
   3.76634E+2  -2.46169E+2
   3.09314E+2   1.26241E+2
   4.82204E+1   3.50826E+2
  -2.11773E+2   2.87577E+2
   1.60490E+1  -2.66916E+0
   2.36878E+2  -1.65647E+2
   1.09857E+2   2.14030E+2
  -1.26179E+2   5.97660E+2
  -1.58344E+2   1.05213E+2
   1.10145E+2  -4.70552E+2
   4.91396E+2   5.65261E+1
  -4.37657E+1   6.17603E+2
  -5.62436E+2   4.66008E+1
  -4.45818E+2  -6.47445E+2
   4.38985E+2  -5.10675E+2
   3.92276E+2   3.57070E+2
  -5.19129E+1   4.91521E+2
  -5.17404E+2   2.21214E+2
  -4.71054E+2   7.96615E+1
  -1.68827E+2  -1.72508E+2
  -3.78212E+1  -6.33054E+1
  -2.23693E+2  -2.75892E+2
   5.77972E+1  -8.04763E+2
   4.75166E+2  -5.44146E+2
   1.09941E+3   1.39669E+2
   5.73265E+2   7.47174E+2
  -3.92754E+2   6.06228E+2
  -7.63446E+2   2.27938E+2
  -2.01030E+2  -3.51704E+2
  -9.07904E+1  -3.20877E+2
   2.30195E+2  -2.39627E+2
   1.40903E+2   1.46678E+2
  -6.67769E+1  -1.62048E+2
   6.29589E+1   1.85744E+2
  -2.49063E+2   5.05797E+2
  -4.33416E+2   3.44157E+2
  -5.33926E+2  -3.21020E+2
   2.18901E+2  -6.21556E+2
   3.98721E+2  -1.34640E+2
   1.93233E+2   2.25234E+2
   6.29218E+1   3.59825E+2
  -2.44842E+2  -5.82174E+1
   1.24975E+2  -1.77052E+2
   3.55502E+2  -3.57398E+1
   1.14168E+2   2.69715E+2
  -3.41355E+2  -3.14338E+2
   6.73238E+1  -2.55439E+2
   4.96809E+2   2.24394E+2
   9.65806E+1   6.98306E+2
  -3.08008E+2   7.58689E+2
  -8.37486E+2  -1.54827E+2
  -1.43804E+2  -6.67733E+2
   3.09638E+2  -2.41439E+2
   1.16507E+2  -1.99120E+2
   1.31380E+2   1.06259E+2
   2.00080E+2   9.63386E+1
   3.47630E+2  -1.07810E+2
   2.88829E+2   1.80339E+2
  -3.30837E+2   3.87768E+2
  -5.50642E+2  -5.16494E+1
  -2.94851E+2  -4.88676E+2
   3.77841E+2  -4.33830E+2
   4.17998E+2   2.37302E+2
  -7.78732E+1   3.04689E+2
  -4.51517E+2   1.87989E+2
  -3.67170E+2  -3.94691E+2
  -5.76023E+1  -8.34001E+1
   2.08390E+2   2.74029E+1
  -3.57185E+2  -1.11338E+2
  -1.36233E+2  -1.74749E+2
  -1.47549E+2  -2.50798E+2
   2.36723E+2   1.45916E+2
   2.03061E+1   2.93663E+2
  -1.69028E+2   6.93780E+1
  -1.58413E+2  -1.36537E+2
   3.23203E+2  -7.17030E+1
   1.26505E+2   3.61262E+2
   6.65822E+1   4.02447E+2
  -6.07609E+2   2.97201E+1
  -2.17404E+2  -1.80950E+2
   2.68422E+2   1.68695E+2
   6.12591E+1   2.21283E+2
  -3.07114E+2   5.16207E+1
  -1.80608E+2  -4.82187E+2
   2.39112E+2  -1.71976E+2
   3.39466E+2   2.15726E+2
  -1.33123E+2   3.81747E+2
  -1.73624E+2   2.74583E+2
  -2.91395E+2  -5.62465E+2
   1.13657E+2  -4.99405E+2
   6.21643E+2  -1.51041E+1
   1.91798E+2   2.25284E+2
  -6.00302E+1   2.33240E+2
   6.02121E+1   4.48605E+0
  -2.77147E+2   7.08794E+1
  -4.93061E+1   1.67042E+2
  -5.11601E+2  -7.51402E+1
  -2.06429E+2  -4.83760E+2
   5.30163E+2  -8.70960E+2
   4.66628E+2   1.24497E+2
   1.06552E+2   4.61361E+2
  -2.75278E+2   2.62411E+2
  -2.97244E+2  -2.60574E+2
  -1.74552E+2  -3.91157E+2
  -1.27955E+1  -1.64886E+2
   9.68979E+1  -1.05497E+0
   1.12893E+2  -1.53784E+2
  -1.35421E+1  -2.13883E+2
   3.86020E+1  -1.40638E+1
   2.79209E+2   3.52451E+2
  -3.62921E+2   1.04688E+2
  -2.35710E+2  -1.89485E+2
   1.46108E+2  -4.98820E+2
   2.47220E+2   3.68901E+1
  -4.76685E+1  -5.57412E+1
  -2.12447E+2   5.79954E+1
  -1.38562E+2  -4.50634E+1
   2.39470E+2  -8.54690E+0
  -2.48327E+1   1.18010E+2
  -2.87044E+2   1.93122E+2
  -7.08181E+2  -3.86877E+2
   9.96466E+1  -5.51290E+2
   5.47469E+2  -3.39859E+2
   4.12402E+2   3.20065E+2
  -3.71735E+1   3.92168E+2
  -2.87345E+2  -1.54419E+2
  -1.25722E+2  -1.06837E+2
  -2.59741E+1  -6.47035E+1
  -1.82331E+2   7.84991E-1
  -1.06927E+2   3.92661E+1
  -6.79975E+0  -2.74460E+2
   6.67139E+1  -4.63820E+1
   2.02477E+2   3.38598E+2
  -2.93629E+2   3.23531E+2
  -2.99393E+2   6.51439E+1
  -8.51413E+1  -3.51840E+2
   1.31098E+2  -3.67105E+1
   8.44468E+1   2.09574E+2
  -4.03244E+2   1.40264E+2
  -4.46696E+2  -3.30734E+2
  -1.16974E+2  -4.38739E+2
  -2.28935E+1  -2.19097E+2
  -8.43859E+1   1.50991E+2
  -1.85656E+2   1.32762E+2
  -4.20527E+1  -1.03125E+2
   1.63049E+2  -9.67488E+1
   2.03520E+2   8.56864E+0
  -4.40520E+2   2.83822E+2
  -1.63853E+2  -2.79350E-1
  -2.08008E+2  -1.39598E+2
  -1.55221E+2   1.40855E+2
   7.33162E+0   1.05173E+2
  -4.95146E+1   7.84087E+1
  -9.75485E+1  -1.13735E+2
  -1.60865E+1  -4.53323E+2
   7.71048E+1   1.76649E+2
  -2.14397E+2   3.53360E+2
  -3.60185E+2  -3.95506E+2
  -1.11649E+2  -4.09844E+2
   2.14408E+2  -1.24711E+2
   2.23973E+2   3.65255E+2
  -9.20057E+1   3.89576E+2
  -6.11548E+2  -1.12521E+2
  -2.82860E+2  -3.12711E+2
   1.90898E+1  -3.34824E+2
   3.29508E+1  -4.04916E+1
   1.32009E+2   6.07965E+1
  -4.42411E+1  -1.88510E+2
   2.12472E+2  -1.43754E+2
   2.18220E+2   1.88571E+2
  -1.61182E+2   4.54023E+2
  -2.97020E+2   2.36650E+2
  -2.87215E+2  -4.51131E+2
  -8.74057E+0  -3.47278E+2
   2.25477E+2  -9.34840E+1
  -1.37849E+1   3.00062E+2
  -9.44742E+1   7.77248E+1
  -1.45551E+2  -4.98192E+0
   1.93140E+2   1.08620E+2
   1.49935E+2   6.73362E+1
  -2.14480E+2   8.28766E+1
  -1.05950E+2  -8.71277E+1
   4.08205E+2  -2.40253E+2
   3.44356E+2  -2.57987E+1
  -1.07714E+2   4.10722E+2
  -1.07924E+2   1.84332E+2
  -4.18682E+2  -7.33011E+1
  -2.27767E+2  -1.67810E+2
  -1.07309E+1   5.12694E+1
  -9.28602E+1   1.70375E+2
  -8.70350E+1  -2.10346E+1
   4.86561E+1  -5.02732E+2
   1.57993E+2   3.34272E+0
  -8.15133E+1   3.09553E+2
  -3.28688E+2   2.41591E+2
  -4.04969E+2  -2.14365E+2
  -5.59775E+1  -4.70097E+2
   1.66505E+1  -1.66613E+2
   1.00334E+2   1.43689E+2
   1.04540E+0   3.68021E+2
  -1.54560E+2  -4.52154E+1
   1.30462E+2  -8.97466E+1
