 
 $NMID
 ID=''
 FMTDAT='(2E13.5)'
 TRAMP=   1.00000E+0
 VOLUME=   1.00000E+0
 $END
   6.71740E+5   3.53645E+5
   1.27623E+6   1.49085E+6
   1.36301E+6   1.33760E+6
   1.23254E+6   1.37939E+6
   1.28261E+6   1.44704E+6
   1.25372E+6   1.35837E+6
   1.15889E+6   1.39439E+6
   1.21142E+6   1.46321E+6
   1.22000E+6   1.38963E+6
   1.13021E+6   1.38944E+6
   1.12369E+6   1.44074E+6
   1.12359E+6   1.41300E+6
   1.07781E+6   1.40776E+6
   1.06542E+6   1.42341E+6
   1.04136E+6   1.40693E+6
   1.00601E+6   1.41220E+6
   1.00323E+6   1.42630E+6
   9.75339E+5   1.41319E+6
   9.35108E+5   1.42127E+6
   9.28549E+5   1.42798E+6
   9.01954E+5   1.41725E+6
   8.67455E+5   1.42302E+6
   8.55609E+5   1.42640E+6
   8.31682E+5   1.41881E+6
   7.99058E+5   1.42242E+6
   7.90949E+5   1.41672E+6
   7.69467E+5   1.40991E+6
   7.43393E+5   1.41535E+6
   7.27949E+5   1.41071E+6
   7.08637E+5   1.40034E+6
   6.83974E+5   1.40507E+6
   6.67376E+5   1.40158E+6
   6.43856E+5   1.39450E+6
   6.21989E+5   1.39513E+6
   6.04984E+5   1.39011E+6
   5.86445E+5   1.38383E+6
   5.67243E+5   1.38747E+6
   5.47515E+5   1.38502E+6
   5.24982E+5   1.37639E+6
   5.08553E+5   1.37426E+6
   4.92219E+5   1.36963E+6
   4.71877E+5   1.36191E+6
   4.55830E+5   1.35561E+6
   4.42836E+5   1.35173E+6
   4.24469E+5   1.34613E+6
   4.07278E+5   1.34265E+6
   3.89603E+5   1.33739E+6
   3.68695E+5   1.33243E+6
   3.48830E+5   1.32616E+6
   3.31581E+5   1.32012E+6
   3.13741E+5   1.31548E+6
   2.95213E+5   1.31103E+6
   2.77737E+5   1.30556E+6
   2.59615E+5   1.30097E+6
   2.42207E+5   1.29565E+6
   2.25002E+5   1.28918E+6
   2.07489E+5   1.28217E+6
   1.90859E+5   1.27426E+6
   1.76399E+5   1.26615E+6
   1.62148E+5   1.26044E+6
   1.46103E+5   1.25466E+6
   1.29917E+5   1.24739E+6
   1.14064E+5   1.24038E+6
   9.72900E+4   1.23330E+6
   8.06354E+4   1.22448E+6
   6.57800E+4   1.21477E+6
   5.11663E+4   1.20537E+6
   3.66306E+4   1.19655E+6
   2.15113E+4   1.18997E+6
   5.60070E+3   1.18230E+6
  -9.71456E+3   1.17296E+6
  -2.30223E+4   1.16258E+6
  -3.56219E+4   1.15512E+6
  -5.01212E+4   1.14704E+6
  -6.48851E+4   1.13668E+6
  -7.78112E+4   1.12656E+6
  -9.07156E+4   1.11769E+6
  -1.04734E+5   1.10826E+6
  -1.18858E+5   1.09794E+6
  -1.32286E+5   1.08732E+6
  -1.46236E+5   1.07702E+6
  -1.59070E+5   1.06628E+6
  -1.71322E+5   1.05578E+6
  -1.84369E+5   1.04541E+6
  -1.97454E+5   1.03438E+6
  -2.09333E+5   1.02322E+6
  -2.19964E+5   1.01255E+6
  -2.30818E+5   1.00211E+6
  -2.42042E+5   9.91233E+5
  -2.51611E+5   9.79528E+5
  -2.60375E+5   9.68662E+5
  -2.69907E+5   9.58430E+5
  -2.80659E+5   9.47789E+5
  -2.89989E+5   9.35610E+5
  -2.98336E+5   9.23384E+5
  -3.06043E+5   9.12655E+5
  -3.14676E+5   9.02069E+5
  -3.23171E+5   8.90928E+5
  -3.30760E+5   8.79480E+5
  -3.38008E+5   8.68737E+5
  -3.45430E+5   8.57915E+5
  -3.53522E+5   8.46574E+5
  -3.60507E+5   8.34595E+5
  -3.66295E+5   8.22495E+5
  -3.71300E+5   8.11449E+5
  -3.76523E+5   8.01496E+5
  -3.82241E+5   7.91010E+5
  -3.88311E+5   7.79104E+5
  -3.92708E+5   7.66484E+5
  -3.95554E+5   7.55571E+5
  -3.99548E+5   7.45908E+5
  -4.05317E+5   7.35105E+5
  -4.10676E+5   7.23222E+5
  -4.15148E+5   7.11583E+5
  -4.19428E+5   7.00358E+5
  -4.23866E+5   6.88719E+5
  -4.28739E+5   6.76750E+5
  -4.31905E+5   6.64070E+5
  -4.34214E+5   6.52295E+5
  -4.36445E+5   6.41522E+5
  -4.39846E+5   6.31382E+5
  -4.42840E+5   6.20659E+5
  -4.45593E+5   6.09486E+5
  -4.48677E+5   5.98057E+5
  -4.51471E+5   5.86673E+5
  -4.53339E+5   5.74674E+5
  -4.55201E+5   5.62882E+5
  -4.57503E+5   5.51726E+5
  -4.59999E+5   5.40632E+5
  -4.62421E+5   5.29502E+5
  -4.65412E+5   5.17187E+5
  -4.67650E+5   5.04934E+5
  -4.69189E+5   4.93082E+5
  -4.70740E+5   4.81904E+5
  -4.72524E+5   4.70620E+5
  -4.73987E+5   4.58714E+5
  -4.74522E+5   4.47442E+5
  -4.75906E+5   4.36890E+5
  -4.77790E+5   4.26049E+5
  -4.78850E+5   4.14420E+5
  -4.79305E+5   4.02701E+5
  -4.78997E+5   3.91853E+5
  -4.78882E+5   3.81773E+5
  -4.79751E+5   3.71508E+5
  -4.80761E+5   3.60905E+5
  -4.80862E+5   3.50186E+5
  -4.80203E+5   3.39398E+5
  -4.79769E+5   3.28936E+5
  -4.79278E+5   3.18925E+5
  -4.78263E+5   3.08875E+5
  -4.77216E+5   2.99113E+5
  -4.75735E+5   2.89884E+5
  -4.74842E+5   2.81366E+5
  -4.74026E+5   2.72732E+5
  -4.72855E+5   2.63282E+5
  -4.70854E+5   2.54180E+5
  -4.69100E+5   2.45936E+5
  -4.67423E+5   2.37615E+5
  -4.65708E+5   2.29522E+5
  -4.63780E+5   2.21195E+5
  -4.61742E+5   2.13218E+5
  -4.59483E+5   2.05210E+5
  -4.57454E+5   1.97099E+5
  -4.54870E+5   1.89153E+5
  -4.52053E+5   1.82022E+5
  -4.49294E+5   1.75296E+5
  -4.47040E+5   1.68228E+5
  -4.44688E+5   1.61276E+5
  -4.42310E+5   1.54017E+5
  -4.39023E+5   1.47621E+5
  -4.35807E+5   1.41370E+5
  -4.33020E+5   1.34928E+5
  -4.30005E+5   1.28528E+5
  -4.26810E+5   1.22167E+5
  -4.23682E+5   1.15908E+5
  -4.20586E+5   1.10063E+5
  -4.17745E+5   1.03971E+5
  -4.14193E+5   9.69572E+4
  -4.10441E+5   9.09311E+4
  -4.06660E+5   8.53531E+4
  -4.03766E+5   8.01647E+4
  -4.00777E+5   7.40893E+4
  -3.97069E+5   6.80961E+4
  -3.93151E+5   6.24167E+4
  -3.89629E+5   5.69781E+4
  -3.85912E+5   5.18309E+4
  -3.82132E+5   4.65981E+4
  -3.78203E+5   4.17185E+4
  -3.74425E+5   3.70230E+4
  -3.70935E+5   3.24768E+4
  -3.67884E+5   2.75187E+4
  -3.63965E+5   2.20402E+4
  -3.59812E+5   1.64934E+4
  -3.55404E+5   1.18367E+4
  -3.51448E+5   7.17543E+3
  -3.47827E+5   2.32640E+3
  -3.43792E+5  -2.68188E+3
  -3.39761E+5  -6.79167E+3
  -3.35828E+5  -1.16591E+4
  -3.31827E+5  -1.64645E+4
  -3.27520E+5  -2.11389E+4
  -3.23321E+5  -2.56126E+4
  -3.18697E+5  -2.95527E+4
  -3.14968E+5  -3.33419E+4
  -3.11092E+5  -3.76422E+4
  -3.06802E+5  -4.17722E+4
  -3.02650E+5  -4.59857E+4
  -2.98166E+5  -4.97007E+4
  -2.93982E+5  -5.36545E+4
  -2.90164E+5  -5.72800E+4
  -2.85413E+5  -6.09216E+4
  -2.81133E+5  -6.44772E+4
  -2.77202E+5  -6.74550E+4
  -2.73358E+5  -7.11180E+4
  -2.69212E+5  -7.51453E+4
  -2.64414E+5  -7.81436E+4
  -2.59932E+5  -8.07272E+4
  -2.55635E+5  -8.36030E+4
  -2.51824E+5  -8.61430E+4
  -2.47561E+5  -8.90031E+4
  -2.43799E+5  -9.14967E+4
  -2.39372E+5  -9.38389E+4
  -2.35333E+5  -9.61812E+4
  -2.31265E+5  -9.88849E+4
  -2.26970E+5  -1.01246E+5
  -2.22802E+5  -1.03308E+5
  -2.18646E+5  -1.04761E+5
  -2.15006E+5  -1.06632E+5
  -2.11476E+5  -1.08840E+5
  -2.07165E+5  -1.10729E+5
  -2.02883E+5  -1.12437E+5
  -1.99134E+5  -1.13794E+5
  -1.95293E+5  -1.15138E+5
  -1.91924E+5  -1.16528E+5
  -1.87735E+5  -1.17817E+5
  -1.84152E+5  -1.18632E+5
  -1.80651E+5  -1.20190E+5
  -1.76860E+5  -1.21155E+5
  -1.73487E+5  -1.22155E+5
  -1.69830E+5  -1.22891E+5
  -1.66281E+5  -1.23342E+5
  -1.62943E+5  -1.24130E+5
  -1.59897E+5  -1.25381E+5
  -1.56111E+5  -1.26047E+5
  -1.52611E+5  -1.26445E+5
  -1.49306E+5  -1.26927E+5
  -1.46198E+5  -1.27348E+5
  -1.42510E+5  -1.28131E+5
  -1.39177E+5  -1.28598E+5
  -1.36166E+5  -1.28620E+5
  -1.33418E+5  -1.28982E+5
  -1.30518E+5  -1.29329E+5
  -1.26808E+5  -1.29696E+5
  -1.23523E+5  -1.29878E+5
  -1.20916E+5  -1.29852E+5
  -1.17710E+5  -1.29809E+5
  -1.14893E+5  -1.30090E+5
  -1.11995E+5  -1.30667E+5
  -1.08777E+5  -1.30405E+5
  -1.05729E+5  -1.30805E+5
  -1.02574E+5  -1.31028E+5
  -9.95795E+4  -1.30881E+5
  -9.63498E+4  -1.30699E+5
  -9.34900E+4  -1.30495E+5
  -9.08670E+4  -1.30015E+5
  -8.80601E+4  -1.30044E+5
  -8.53006E+4  -1.30034E+5
  -8.23127E+4  -1.29961E+5
  -7.91303E+4  -1.29597E+5
  -7.67505E+4  -1.29042E+5
  -7.40841E+4  -1.28604E+5
  -7.12968E+4  -1.28227E+5
  -6.84380E+4  -1.27916E+5
  -6.62382E+4  -1.27395E+5
  -6.34734E+4  -1.27303E+5
  -6.09579E+4  -1.26827E+5
  -5.82639E+4  -1.26447E+5
  -5.57482E+4  -1.25454E+5
  -5.30621E+4  -1.24936E+5
  -5.09216E+4  -1.24257E+5
  -4.83874E+4  -1.23704E+5
  -4.56957E+4  -1.22851E+5
  -4.35789E+4  -1.22236E+5
  -4.12940E+4  -1.21379E+5
  -3.90079E+4  -1.20740E+5
  -3.65488E+4  -1.19941E+5
  -3.43027E+4  -1.18968E+5
  -3.24596E+4  -1.17960E+5
  -3.06981E+4  -1.17070E+5
  -2.84282E+4  -1.16590E+5
  -2.62382E+4  -1.15683E+5
  -2.42077E+4  -1.14478E+5
  -2.23947E+4  -1.13334E+5
  -2.03700E+4  -1.12503E+5
  -1.85047E+4  -1.11337E+5
  -1.64737E+4  -1.10282E+5
  -1.46432E+4  -1.09410E+5
  -1.30021E+4  -1.08221E+5
  -1.12207E+4  -1.07197E+5
  -9.24505E+3  -1.06244E+5
  -7.59908E+3  -1.04966E+5
  -6.33016E+3  -1.03797E+5
  -4.54890E+3  -1.02614E+5
  -3.12357E+3  -1.01718E+5
  -1.22362E+3  -1.00787E+5
   5.07845E+2  -9.91984E+4
   1.75734E+3  -9.83090E+4
   2.94902E+3  -9.72198E+4
   4.89769E+3  -9.58603E+4
   6.21355E+3  -9.46527E+4
   7.25743E+3  -9.36309E+4
   8.80472E+3  -9.24119E+4
   1.00239E+4  -9.14904E+4
   1.16305E+4  -9.03697E+4
   1.29391E+4  -8.86687E+4
   1.39666E+4  -8.76859E+4
   1.49658E+4  -8.64879E+4
   1.65845E+4  -8.54034E+4
   1.74458E+4  -8.41089E+4
   1.86032E+4  -8.28710E+4
   1.95106E+4  -8.17034E+4
   2.05691E+4  -8.07871E+4
   2.16834E+4  -7.92919E+4
   2.26124E+4  -7.78044E+4
   2.36906E+4  -7.67416E+4
   2.45052E+4  -7.57759E+4
   2.54875E+4  -7.46790E+4
   2.64278E+4  -7.34844E+4
   2.73321E+4  -7.19462E+4
   2.81903E+4  -7.06738E+4
   2.89471E+4  -6.95021E+4
   2.95164E+4  -6.83466E+4
   3.03749E+4  -6.73795E+4
   3.07865E+4  -6.61763E+4
   3.15014E+4  -6.47277E+4
   3.23428E+4  -6.38445E+4
   3.29086E+4  -6.25564E+4
   3.36906E+4  -6.14687E+4
   3.45311E+4  -6.00529E+4
   3.46569E+4  -5.87578E+4
   3.51453E+4  -5.77552E+4
   3.56838E+4  -5.64472E+4
   3.63948E+4  -5.52931E+4
   3.64130E+4  -5.44010E+4
   3.71112E+4  -5.31024E+4
   3.75345E+4  -5.19870E+4
   3.77411E+4  -5.06741E+4
   3.80313E+4  -4.96339E+4
   3.81919E+4  -4.85866E+4
   3.85163E+4  -4.74228E+4
   3.88744E+4  -4.63193E+4
   3.94189E+4  -4.50999E+4
   3.96012E+4  -4.40381E+4
   3.95732E+4  -4.31012E+4
   3.98123E+4  -4.17477E+4
   3.98696E+4  -4.07718E+4
   4.02289E+4  -3.96342E+4
   4.02433E+4  -3.87334E+4
   4.02332E+4  -3.79974E+4
   4.07994E+4  -3.69309E+4
   4.06666E+4  -3.57263E+4
   4.04536E+4  -3.44502E+4
   4.04794E+4  -3.36602E+4
   4.05507E+4  -3.27599E+4
   4.05575E+4  -3.16869E+4
   4.05180E+4  -3.09265E+4
   4.06822E+4  -2.97484E+4
