 
 $NMID
 ID=''
 FMTDAT='(2E13.5)'
 TRAMP=   1.00000E+0
 VOLUME=   1.00000E+0
 $END
  -1.76215E+2   1.64898E+3
  -5.45790E+2  -2.51525E+3
   2.93975E+3  -3.68732E+1
   2.11784E+3   2.72330E+3
  -2.92559E+3   7.81029E+2
  -9.35531E+2  -1.46584E+3
   3.23108E+3  -3.26907E+2
   1.55597E+3   1.38805E+3
  -8.57551E+2   1.20526E+3
  -5.60698E+2   1.31733E+3
  -5.24720E+2   7.75904E+2
  -4.00843E+2  -5.98737E+2
  -4.41144E+2  -8.44481E+2
  -1.95190E+3  -1.38046E+2
  -1.42207E+3  -1.33226E+3
   1.49270E+3  -1.73854E+3
   1.70956E+3   6.33537E+2
  -1.05808E+3   1.20020E+3
  -5.36013E+2  -3.83551E+2
   8.59392E+2   9.09928E+0
   3.48441E+1   8.61595E+2
   1.44473E+2  -2.82244E+2
   5.75055E+2  -2.18147E+2
  -1.01242E+3   3.44991E+2
  -1.38150E+3  -1.53988E+2
   9.01570E+2  -2.40897E+2
   1.68361E+3   1.41626E+3
  -8.53079E+2   1.08263E+3
  -1.16007E+3  -8.86847E+2
   5.03962E+2  -6.71045E+2
   2.95847E+2   6.45481E+2
  -8.68728E+2   7.02037E+2
  -1.03291E+3  -1.45750E+1
  -2.42174E+2  -5.78593E+2
   4.16290E+2  -1.41613E+3
   1.42716E+3  -7.90539E+2
   1.01561E+3   1.16764E+3
  -8.98072E+2   1.31616E+3
  -7.27405E+2  -2.79717E+2
   1.84856E+2  -1.81632E+2
  -4.82105E+1  -7.63039E+1
  -2.56424E+2  -9.19941E+2
   5.26400E+2  -9.58383E+2
   8.55390E+2  -1.04123E+2
   7.26181E+2   3.82809E+2
   6.78293E+2   8.31462E+2
  -3.24039E+2   1.09429E+3
  -1.11734E+3   3.89779E+2
  -8.80661E+2  -1.01568E+3
  -1.06068E+1  -1.04482E+3
   1.31086E+2  -4.18987E+2
   4.09730E+2  -2.98508E+2
   5.63972E+2  -3.43096E+2
   1.27306E+2   3.64256E+2
  -3.46916E+2   3.88663E+2
  -4.16773E+2   2.25468E+2
  -1.87990E+2  -3.19390E+2
  -2.30878E+2  -4.01363E+2
   3.23312E+2  -7.65805E+2
   6.60276E+2  -1.88379E+2
   8.31108E+2   3.03722E+2
   2.13189E+2   6.54865E+2
  -3.81243E+2   8.57609E+2
  -5.35252E+2   6.70234E+2
  -9.16912E+2   1.75061E+2
  -8.77893E+2  -6.26216E+2
  -1.22223E+2  -7.80195E+2
   6.51803E+2  -9.08218E+2
   7.29952E+2  -4.67424E+1
  -1.01657E+1   5.12061E+2
  -3.02241E+2   1.86069E+1
   5.03991E+2  -5.00343E+2
   8.33172E+2   3.97201E+2
   3.85117E+2   9.03666E+2
  -6.78857E+2   1.86097E+2
   8.95642E+1  -5.78313E+2
   4.08526E+2  -1.65234E+2
  -1.61267E+1   3.03498E+2
  -2.68103E+2   2.64018E+2
  -1.59747E+2  -3.43273E+2
  -1.83343E+2  -1.33847E+2
  -3.08218E+2  -8.05342E+1
   1.50123E+2  -1.99049E+2
   2.34474E+2  -2.56946E+2
  -7.93574E+1  -4.98414E+2
   6.60001E+1  -1.12626E+2
   4.50940E+2  -2.62999E+1
   5.70471E+2   1.85657E+2
   3.39350E+2   2.35396E+2
   1.73128E+1  -1.28755E-1
   3.54728E+2   2.04548E+2
   5.03368E+2   1.19089E+2
  -2.93444E+2   5.28197E+2
  -7.49051E+2  -1.03785E+2
  -3.98298E+2  -7.40824E+2
   3.28214E+2  -7.94753E+2
   2.41263E+2  -1.79994E+2
  -3.54222E+2  -3.11884E+1
  -8.32349E+1  -4.56468E+2
   4.04405E+2  -5.00642E+2
   4.57493E+2   4.64099E+2
  -2.35514E+2   6.20743E+2
  -5.32496E+2   1.13552E+2
  -1.18416E+2  -7.54831E+2
   3.76466E+2  -1.91200E+2
   2.72150E+2   1.49247E+1
  -1.55168E+2   4.00892E+2
  -7.82920E+2  -2.82550E+1
  -6.60714E+2  -6.19177E+2
   1.40022E+2  -7.02869E+2
   6.85572E+2  -4.11541E+2
   3.50244E+2  -7.75592E+0
   2.04357E+0   6.33497E+2
  -2.30136E+2  -4.38409E+1
  -1.30763E+2   2.42229E+2
  -2.94175E+2   2.09843E+2
  -6.29033E+2   4.44228E+2
  -6.09161E+2  -1.11774E+2
  -5.24083E+2  -7.92779E+2
   3.98325E+2  -3.02782E+2
   4.40131E+2  -2.02839E+2
   3.33124E+2   2.02865E+2
  -9.04557E+1   2.03317E+2
  -2.48101E+2   3.05497E+2
  -1.66281E+2   3.16173E+2
  -4.88383E+2  -4.44838E+1
  -1.07841E+2  -1.31451E+2
   4.28683E+1  -5.14555E+1
   2.65133E+2   6.43904E+0
   1.19980E+2   2.39309E+2
  -3.17004E+2   3.50157E+2
  -4.90336E+2   1.87270E+2
  -2.85590E+2  -1.60710E+2
   4.34919E+2  -2.06562E+2
  -2.02664E+2   1.66331E+2
  -3.01716E+2  -4.81566E+1
   1.26792E+2  -1.92117E+2
   2.89844E+2   2.56482E+2
  -1.18779E+2   4.12244E+2
  -3.44957E+2   1.95336E+2
  -3.32692E+2  -1.18554E+2
  -1.59235E+2  -9.61001E+1
   3.41126E+1  -2.34677E+2
   2.99960E+2   1.68189E+2
  -7.20297E+0   2.45150E+2
  -3.21014E+2   3.37355E+2
  -2.75404E+2   8.35449E+1
  -1.17541E+2   4.02375E+1
   1.84965E+2  -1.00811E+2
   7.60515E+1  -5.42454E+1
  -5.91964E+1  -2.87013E+2
   3.29442E+2  -5.33503E+1
   1.04338E+2   5.02901E+1
   2.90325E+2   4.18944E+2
   8.69145E+1   9.98140E+1
   1.16431E+2  -1.71603E+2
   1.79595E+2   1.73417E+2
   1.45088E+2   8.32891E+1
  -5.16825E+1   1.15071E+2
   5.00795E+1  -5.98152E+1
   1.70691E+2   2.88575E+2
  -2.12913E+2   1.48923E+2
  -2.97210E+2   1.29897E+2
  -9.40440E+0  -2.86009E+2
   9.98824E+1  -5.03323E+2
   1.77073E+2  -2.44864E+2
   2.13288E+2   1.79354E+2
   4.08645E+1   2.73919E+2
  -6.14018E+1   1.17812E+2
   6.20507E+1  -1.38555E+2
   1.89661E+2   1.08383E+2
   3.00518E+1   2.02141E+2
   1.24079E+1   1.56691E+2
  -1.50887E+2  -1.81368E+1
  -1.16547E+2  -3.81337E+2
  -1.80195E+1   2.57192E+2
  -5.13216E+1   1.06562E+2
  -2.03496E+2   2.93807E+1
  -2.95144E+1  -5.55262E+1
   1.01203E+2  -2.74893E+2
   2.79254E+2   7.09515E+1
   1.95368E+2   2.72211E+2
   7.37919E+0   1.88607E+2
  -2.37025E+2   2.71203E+1
  -2.57856E+1   2.64665E+1
   6.96878E+1  -5.18190E+1
   9.57194E+1   5.05457E+1
   2.56904E+1  -1.14762E+2
  -5.92323E+1  -2.02358E+2
   1.81854E+2   1.15342E+2
   2.69780E+2   5.50691E+2
  -3.30210E+1   5.57628E+2
  -3.04052E+2  -8.47892E+1
  -1.69600E+2  -2.58978E+2
   1.97894E+2  -1.82705E+1
   1.16384E+2   1.62956E+2
   3.76415E+1   1.91733E+2
  -2.66079E+1   2.48674E+2
   1.66329E+2   1.44786E+2
  -2.07946E+2  -1.00676E+1
   8.29512E+1   3.89250E+2
  -6.04725E+1   8.01011E+1
   3.34281E+2  -2.03932E+2
  -7.41582E+1   5.66400E+1
   5.55838E+1  -2.01637E+2
   1.77781E+2   2.28740E+1
  -3.64438E+1  -6.72956E+1
   3.01200E+0   4.28775E+1
  -7.00236E+1   7.29025E+1
   7.54899E+1  -3.09496E+1
   7.53083E+1  -1.97329E+2
   2.01026E+2  -3.15259E+2
   1.23366E+2  -7.30326E+1
   2.79040E+2   5.38065E+1
  -7.09642E+1   3.92820E+2
  -5.63934E+1   1.88067E+2
  -1.52242E+2   1.13696E+2
  -9.13069E+1  -1.47273E+2
   4.33037E+1  -1.98100E+2
  -3.35291E+1  -3.73221E+1
   5.92554E+1  -1.83105E+2
   3.37229E+1   6.11697E+1
   8.80583E+1  -1.89086E-1
   4.94437E+1   2.79531E+1
  -3.37648E+1   5.00972E+1
  -2.72561E+1  -3.78573E+1
  -9.77435E+1  -4.36692E+0
  -2.00689E+2  -1.66793E+2
  -1.21515E+2   1.53954E+2
   2.42143E+1  -1.11450E+2
  -1.32409E+2  -7.94366E+1
   1.45037E+1  -2.49025E+1
  -7.66115E+0   2.63690E+2
  -3.65559E+1   1.46616E+2
  -5.96287E+1  -5.39101E+1
   1.14911E+2   6.26882E+1
  -1.61842E+2   2.07648E+2
  -3.21065E+1   3.19670E+2
   3.59435E+1   8.90216E+1
  -1.55252E+2   1.18178E+1
  -2.89901E+2  -9.50633E+1
   2.07580E+2  -5.72180E+1
   3.37033E+1   1.73075E+2
   3.26778E+1  -1.97442E+1
  -1.36663E+2  -2.95007E+1
   2.40466E+1   6.03267E+1
  -2.40282E+2  -2.10231E+1
  -1.66850E+2   8.82018E+1
   3.53372E+1  -9.78274E+1
   1.71154E+2  -1.58245E+2
   5.32458E+1   1.18324E+2
   1.20803E+2  -2.81993E+1
  -4.03289E+1  -1.27063E+2
  -9.92987E+1   2.96900E+1
  -1.12595E+2  -1.65357E+1
   6.52082E+1   7.32167E+1
   7.93549E+1   6.29729E+1
   5.09562E+1   8.97686E+1
  -1.35899E+2  -4.99839E+1
   6.79789E+1   1.18495E+2
  -6.94400E+1   7.61531E+0
  -2.17088E+2  -3.25422E+1
  -1.38284E-1  -5.44391E+1
  -7.07630E+1  -2.22214E+1
   2.07024E+2  -1.28049E+2
   8.63894E+1   2.58862E+2
   3.76398E+1   1.09976E+2
  -1.28288E+2  -8.41297E+0
  -1.87047E+2   1.05704E+2
   3.31959E+1   1.00440E+2
   1.49768E+2   1.37080E+2
   1.62509E+2   2.10314E+1
   1.10239E+2  -7.81923E+1
   1.11562E+2  -6.03735E+1
   6.69731E+1   2.79048E+1
  -1.21674E+2  -5.92245E+1
  -4.56753E+1  -7.11421E+1
  -5.17486E+1   1.78308E+1
  -6.20902E+1  -2.47420E+2
   6.49326E+1   2.84830E+2
   1.38119E+2   2.56393E+2
   3.50893E+1  -1.22717E+1
   1.86357E+2  -3.07232E+1
   2.73291E+1   5.53286E+1
   3.43456E+0  -3.59584E-1
   1.69185E+1  -3.47463E+1
  -2.11309E+1  -3.23610E+1
  -7.38668E+1  -2.42926E+2
   1.77557E+2   9.79992E+1
   8.56857E+1   4.12082E+1
   6.52647E+0   2.34651E+2
  -2.95196E+1   3.83200E+1
   9.09054E+1  -5.29479E+1
  -1.76373E+2  -1.02372E+2
   6.93718E+1  -1.81853E+1
   1.22794E+2  -1.61101E+2
   1.67745E+0  -1.66978E+2
   6.56228E+1   3.74338E+1
   2.75205E+2  -4.27387E+1
  -4.18426E+1   1.74590E+2
  -1.53597E+2  -1.62957E+2
  -9.48307E+0  -8.40742E+1
  -7.19658E+1   2.05262E+2
  -9.63586E+0   4.33831E+2
   3.24266E+1   6.84716E+1
   4.15843E+1   1.25661E+2
  -1.87659E+2  -7.44615E+1
  -3.15445E+1   5.46363E+1
  -1.93488E+2  -2.01408E+2
  -2.13055E+2   1.33288E+2
  -8.08987E+0   1.58258E+2
  -7.50310E+1  -2.53734E+2
  -1.20425E+2   2.04138E+0
   3.61046E+1   2.05906E+2
  -1.55205E+2   1.47462E+2
  -1.03015E+1  -1.03818E+2
   4.44658E+0   7.65543E+0
   1.63789E+2   1.85889E+2
   3.57698E+1   6.80484E+1
   9.28467E+1  -1.08094E+2
   2.36129E+1  -8.39631E+0
  -1.08875E+2  -3.41760E+1
   8.26196E+0   2.60578E+2
   5.64822E+1  -5.43455E+1
   2.22479E+2   1.26695E+2
   7.58650E+1   1.82164E+2
  -1.58520E+1   1.76651E+2
  -1.38044E+2   2.58519E+2
  -1.80146E+2  -4.35838E+1
   1.19281E+2   1.14252E+2
   1.06993E+2   1.45584E+2
   1.26298E+2  -1.59832E+2
  -1.24939E+2   7.91806E+1
   1.15617E+2  -1.39749E+2
   6.81828E+1   3.08786E+1
   2.34653E+2   5.05631E+1
  -1.73503E+2  -1.09460E+1
  -1.69108E+2   1.44476E+2
   1.04497E+1  -2.07241E+2
  -7.60239E+1  -2.84338E+1
   2.89239E+2   3.13239E+2
  -9.47643E+1   9.49186E+1
  -1.47853E+2  -2.62974E+1
   1.39198E+2   5.92413E+1
  -4.39254E+1   3.94950E+1
  -8.20494E+1  -9.52190E+1
   5.51600E+1  -1.56155E+0
  -5.43160E+1  -2.40317E+2
   1.41840E+2  -2.56102E+2
   2.59969E+2  -5.86270E+1
  -1.21535E+2   3.17534E+2
   4.03008E+1   1.86004E+2
  -1.32396E+2  -6.08683E+1
   2.44115E+0  -1.48179E+2
  -4.17345E+0  -4.70095E+1
  -5.28133E+1  -2.09557E+2
  -1.49773E+2  -7.06242E+0
   1.14236E+2   1.02964E+2
   1.03607E+2   2.12903E+2
   9.14862E+1  -5.79888E+1
   9.20174E+1   1.21466E+2
   1.42728E+2  -7.74327E+1
  -8.94705E+1   6.68877E+1
   1.83806E+1   8.35592E+1
   1.42498E+2   8.42637E+1
   1.38467E+2   1.08520E+2
   1.21628E+1   3.59229E+2
