 
 $NMID
 ID=''
 FMTDAT='(2E13.5)'
 TRAMP=   1.00000E+0
 VOLUME=   1.00000E+0
 $END
   6.86960E+5  -9.24102E+4
   1.77749E+6   4.19171E+5
   1.73075E+6   2.80108E+5
   1.60783E+6   4.13417E+5
   1.68120E+6   4.64242E+5
   1.63947E+6   3.99774E+5
   1.57571E+6   4.57773E+5
   1.60904E+6   5.05924E+5
   1.56573E+6   4.96106E+5
   1.51034E+6   5.62818E+5
   1.51965E+6   6.06034E+5
   1.47624E+6   6.10611E+5
   1.43101E+6   6.66308E+5
   1.42717E+6   7.07700E+5
   1.37927E+6   7.27801E+5
   1.33476E+6   7.78204E+5
   1.32693E+6   8.10262E+5
   1.28804E+6   8.24401E+5
   1.25053E+6   8.60532E+5
   1.23878E+6   8.77567E+5
   1.19964E+6   8.90260E+5
   1.16338E+6   9.21694E+5
   1.14182E+6   9.41144E+5
   1.10057E+6   9.55491E+5
   1.05929E+6   9.81751E+5
   1.03316E+6   9.93821E+5
   9.90797E+5   1.01191E+6
   9.46952E+5   1.03896E+6
   9.08901E+5   1.05103E+6
   8.70211E+5   1.05885E+6
   8.36155E+5   1.07648E+6
   8.04700E+5   1.08316E+6
   7.67200E+5   1.08818E+6
   7.36225E+5   1.09662E+6
   7.08679E+5   1.09681E+6
   6.80703E+5   1.09830E+6
   6.54589E+5   1.10531E+6
   6.23918E+5   1.10786E+6
   5.88915E+5   1.10805E+6
   5.57438E+5   1.11162E+6
   5.23148E+5   1.11199E+6
   4.87462E+5   1.11040E+6
   4.55506E+5   1.10868E+6
   4.22532E+5   1.10669E+6
   3.86759E+5   1.10346E+6
   3.54367E+5   1.10068E+6
   3.22731E+5   1.09598E+6
   2.90147E+5   1.08998E+6
   2.61279E+5   1.08032E+6
   2.34702E+5   1.07176E+6
   2.07961E+5   1.06486E+6
   1.81502E+5   1.05695E+6
   1.55312E+5   1.04782E+6
   1.29627E+5   1.03957E+6
   1.03247E+5   1.02947E+6
   7.57716E+4   1.01844E+6
   4.81536E+4   1.00646E+6
   2.25949E+4   9.93279E+5
  -1.57747E+3   9.80277E+5
  -2.54680E+4   9.67962E+5
  -5.01429E+4   9.54473E+5
  -7.38077E+4   9.40369E+5
  -9.60154E+4   9.26165E+5
  -1.17485E+5   9.10935E+5
  -1.38219E+5   8.94341E+5
  -1.56705E+5   8.77729E+5
  -1.74327E+5   8.61838E+5
  -1.92258E+5   8.46247E+5
  -2.10256E+5   8.31078E+5
  -2.29097E+5   8.14817E+5
  -2.46103E+5   7.97120E+5
  -2.61941E+5   7.79773E+5
  -2.77261E+5   7.62969E+5
  -2.93215E+5   7.45984E+5
  -3.08065E+5   7.27451E+5
  -3.21228E+5   7.09115E+5
  -3.33958E+5   6.91737E+5
  -3.47043E+5   6.73863E+5
  -3.58808E+5   6.55245E+5
  -3.69407E+5   6.37034E+5
  -3.79711E+5   6.18869E+5
  -3.89135E+5   6.00451E+5
  -3.98338E+5   5.81937E+5
  -4.07973E+5   5.63693E+5
  -4.16396E+5   5.44849E+5
  -4.23925E+5   5.25821E+5
  -4.31345E+5   5.07922E+5
  -4.38919E+5   4.89374E+5
  -4.45049E+5   4.70488E+5
  -4.49769E+5   4.53017E+5
  -4.53980E+5   4.35502E+5
  -4.58873E+5   4.18190E+5
  -4.63002E+5   4.00856E+5
  -4.65614E+5   3.83820E+5
  -4.67413E+5   3.67698E+5
  -4.68856E+5   3.51512E+5
  -4.71010E+5   3.36446E+5
  -4.72626E+5   3.20707E+5
  -4.73487E+5   3.05200E+5
  -4.73172E+5   2.90017E+5
  -4.73743E+5   2.75396E+5
  -4.74024E+5   2.59884E+5
  -4.73366E+5   2.44018E+5
  -4.71142E+5   2.29238E+5
  -4.69533E+5   2.15714E+5
  -4.67893E+5   2.02649E+5
  -4.66049E+5   1.88594E+5
  -4.63332E+5   1.74495E+5
  -4.59744E+5   1.61388E+5
  -4.56108E+5   1.49989E+5
  -4.52983E+5   1.38500E+5
  -4.50102E+5   1.26003E+5
  -4.46359E+5   1.13823E+5
  -4.41884E+5   1.02138E+5
  -4.37643E+5   9.08195E+4
  -4.33350E+5   7.93741E+4
  -4.28520E+5   6.82099E+4
  -4.22300E+5   5.75295E+4
  -4.16561E+5   4.76982E+4
  -4.11403E+5   3.84824E+4
  -4.06499E+5   2.90435E+4
  -4.00548E+5   1.98181E+4
  -3.94546E+5   1.10985E+4
  -3.88413E+5   1.89530E+3
  -3.82147E+5  -6.69340E+3
  -3.74938E+5  -1.53815E+4
  -3.68292E+5  -2.33397E+4
  -3.61410E+5  -3.10130E+4
  -3.54863E+5  -3.87407E+4
  -3.47711E+5  -4.67261E+4
  -3.40518E+5  -5.46939E+4
  -3.32755E+5  -6.22731E+4
  -3.25014E+5  -6.91216E+4
  -3.17772E+5  -7.54863E+4
  -3.10262E+5  -8.20634E+4
  -3.02915E+5  -8.82207E+4
  -2.95347E+5  -9.39627E+4
  -2.87943E+5  -9.96887E+4
  -2.80711E+5  -1.04931E+5
  -2.73325E+5  -1.10245E+5
  -2.65693E+5  -1.15095E+5
  -2.57679E+5  -1.19274E+5
  -2.50591E+5  -1.23389E+5
  -2.43381E+5  -1.27805E+5
  -2.35914E+5  -1.32216E+5
  -2.28022E+5  -1.35940E+5
  -2.20721E+5  -1.39181E+5
  -2.13432E+5  -1.42327E+5
  -2.05929E+5  -1.45696E+5
  -1.98672E+5  -1.48183E+5
  -1.91292E+5  -1.50452E+5
  -1.84584E+5  -1.52682E+5
  -1.77994E+5  -1.54726E+5
  -1.71315E+5  -1.56884E+5
  -1.64570E+5  -1.58513E+5
  -1.58247E+5  -1.59826E+5
  -1.52234E+5  -1.61125E+5
  -1.45997E+5  -1.62241E+5
  -1.39589E+5  -1.62908E+5
  -1.33397E+5  -1.63522E+5
  -1.28198E+5  -1.64464E+5
  -1.21967E+5  -1.65094E+5
  -1.16303E+5  -1.65104E+5
  -1.10645E+5  -1.65085E+5
  -1.05347E+5  -1.65269E+5
  -1.00181E+5  -1.64977E+5
  -9.48514E+4  -1.64756E+5
  -8.98409E+4  -1.64510E+5
  -8.50263E+4  -1.64140E+5
  -7.98355E+4  -1.63229E+5
  -7.54815E+4  -1.62606E+5
  -7.09913E+4  -1.61685E+5
  -6.64540E+4  -1.60920E+5
  -6.21492E+4  -1.59674E+5
  -5.79382E+4  -1.58346E+5
  -5.40437E+4  -1.57544E+5
  -4.97375E+4  -1.56316E+5
  -4.54268E+4  -1.55010E+5
  -4.15534E+4  -1.53130E+5
  -3.80797E+4  -1.51646E+5
  -3.44624E+4  -1.50528E+5
  -3.06476E+4  -1.48872E+5
  -2.68673E+4  -1.46922E+5
  -2.36137E+4  -1.45511E+5
  -1.99843E+4  -1.43506E+5
  -1.71054E+4  -1.41669E+5
  -1.40406E+4  -1.39626E+5
  -1.10514E+4  -1.37596E+5
  -8.34713E+3  -1.35729E+5
  -5.72624E+3  -1.34102E+5
  -2.68824E+3  -1.31998E+5
   1.15468E+2  -1.29965E+5
   2.86968E+3  -1.27936E+5
   5.36049E+3  -1.25840E+5
   7.90572E+3  -1.23715E+5
   1.04215E+4  -1.21294E+5
   1.27408E+4  -1.19283E+5
   1.50777E+4  -1.17016E+5
   1.73854E+4  -1.15020E+5
   1.91985E+4  -1.12659E+5
   2.15968E+4  -1.10568E+5
   2.35222E+4  -1.08093E+5
   2.54192E+4  -1.05403E+5
   2.71731E+4  -1.03711E+5
   2.88746E+4  -1.01520E+5
   3.07976E+4  -9.90368E+4
   3.23164E+4  -9.67086E+4
   3.37755E+4  -9.47272E+4
   3.55331E+4  -9.22870E+4
   3.68209E+4  -9.05211E+4
   3.81567E+4  -8.80995E+4
   3.93570E+4  -8.55453E+4
   4.05637E+4  -8.38203E+4
   4.20566E+4  -8.17487E+4
   4.29247E+4  -7.95370E+4
   4.39236E+4  -7.71874E+4
   4.50461E+4  -7.50679E+4
   4.57814E+4  -7.33129E+4
   4.64952E+4  -7.11429E+4
   4.72835E+4  -6.93076E+4
   4.81023E+4  -6.71507E+4
   4.85026E+4  -6.51975E+4
   4.91674E+4  -6.38677E+4
   4.98424E+4  -6.19193E+4
   4.99975E+4  -5.98281E+4
   5.05401E+4  -5.83309E+4
   5.08712E+4  -5.64427E+4
   5.11870E+4  -5.48077E+4
   5.14840E+4  -5.35656E+4
   5.16312E+4  -5.16351E+4
   5.19344E+4  -4.98350E+4
   5.19593E+4  -4.85117E+4
   5.19530E+4  -4.72151E+4
   5.20988E+4  -4.58007E+4
   5.19881E+4  -4.43809E+4
   5.22228E+4  -4.32442E+4
   5.18827E+4  -4.16579E+4
   5.15643E+4  -4.04227E+4
   5.16265E+4  -3.89288E+4
   5.13934E+4  -3.76850E+4
   5.10889E+4  -3.67667E+4
   5.09484E+4  -3.53874E+4
   5.06032E+4  -3.43354E+4
   5.07070E+4  -3.32133E+4
   5.02974E+4  -3.21813E+4
   4.98020E+4  -3.09052E+4
   4.96354E+4  -3.00430E+4
   4.92157E+4  -2.89971E+4
   4.87879E+4  -2.79784E+4
   4.84152E+4  -2.72241E+4
   4.81223E+4  -2.60775E+4
   4.77449E+4  -2.51639E+4
   4.74226E+4  -2.39847E+4
   4.67049E+4  -2.31681E+4
   4.66537E+4  -2.25066E+4
   4.60358E+4  -2.15058E+4
   4.57645E+4  -2.07704E+4
   4.55301E+4  -1.98417E+4
   4.50085E+4  -1.90503E+4
   4.46438E+4  -1.82350E+4
   4.41692E+4  -1.71930E+4
   4.38658E+4  -1.66527E+4
   4.33558E+4  -1.57744E+4
   4.30145E+4  -1.50914E+4
   4.25766E+4  -1.44589E+4
   4.23013E+4  -1.37861E+4
   4.17261E+4  -1.29609E+4
   4.13982E+4  -1.24185E+4
   4.09169E+4  -1.16272E+4
   4.06720E+4  -1.11453E+4
   4.03892E+4  -1.05056E+4
   3.98563E+4  -9.83461E+3
   3.94544E+4  -9.54115E+3
   3.92287E+4  -8.87686E+3
   3.87536E+4  -8.46448E+3
   3.83312E+4  -7.91543E+3
   3.81169E+4  -6.98743E+3
   3.76967E+4  -6.48332E+3
   3.76465E+4  -6.16237E+3
   3.71137E+4  -5.51174E+3
   3.67822E+4  -5.09597E+3
   3.64888E+4  -4.66911E+3
   3.64114E+4  -4.08049E+3
   3.60095E+4  -3.95721E+3
   3.57010E+4  -3.46279E+3
   3.51924E+4  -3.23135E+3
   3.49331E+4  -2.64081E+3
   3.46056E+4  -2.23886E+3
   3.45389E+4  -2.07540E+3
   3.44204E+4  -1.61521E+3
   3.41043E+4  -1.35770E+3
   3.39795E+4  -1.24190E+3
   3.37546E+4  -6.22523E+2
   3.31571E+4  -1.67576E+2
   3.30375E+4  -1.87832E+2
   3.28391E+4   4.44872E+2
   3.26995E+4   2.88750E+2
   3.23697E+4   7.55841E+2
   3.20292E+4   8.58863E+2
   3.19413E+4   1.06803E+3
   3.19374E+4   1.29624E+3
   3.16908E+4   1.46713E+3
   3.15689E+4   1.59785E+3
   3.10633E+4   1.86623E+3
   3.11464E+4   1.87344E+3
   3.07754E+4   2.19899E+3
   3.06523E+4   2.34227E+3
   3.04804E+4   2.48441E+3
   3.02785E+4   2.85763E+3
   3.02215E+4   2.93992E+3
   2.99706E+4   3.20368E+3
   2.96962E+4   2.92339E+3
   2.93209E+4   3.32684E+3
   2.91492E+4   3.36528E+3
   2.90871E+4   3.52546E+3
   2.87782E+4   3.37182E+3
   2.85430E+4   3.71209E+3
   2.84154E+4   3.98706E+3
   2.82307E+4   3.92597E+3
   2.79148E+4   3.96522E+3
   2.77088E+4   4.09659E+3
   2.77792E+4   4.02103E+3
   2.72107E+4   4.32591E+3
   2.72603E+4   4.43223E+3
   2.67034E+4   4.59759E+3
   2.68548E+4   4.83200E+3
   2.64633E+4   4.79792E+3
   2.63480E+4   4.93905E+3
   2.64400E+4   5.06933E+3
   2.60181E+4   4.99835E+3
   2.58266E+4   5.31346E+3
   2.57049E+4   5.31007E+3
   2.52770E+4   5.24107E+3
   2.51723E+4   5.51149E+3
   2.52720E+4   5.70614E+3
   2.48194E+4   5.99145E+3
   2.44926E+4   5.80206E+3
   2.43763E+4   6.07032E+3
   2.42156E+4   5.97517E+3
   2.37701E+4   6.25241E+3
   2.34414E+4   6.27942E+3
   2.34975E+4   6.57474E+3
   2.30377E+4   6.47398E+3
   2.29917E+4   6.84445E+3
   2.24632E+4   6.79644E+3
   2.24275E+4   6.92707E+3
   2.21667E+4   7.04960E+3
   2.20985E+4   7.31177E+3
   2.20391E+4   7.26767E+3
   2.16124E+4   7.20512E+3
   2.13325E+4   7.69163E+3
   2.10321E+4   7.77083E+3
   2.09557E+4   7.93952E+3
   2.06734E+4   7.65933E+3
   2.03739E+4   7.85474E+3
   2.01972E+4   8.19958E+3
   2.00169E+4   7.96415E+3
   1.97900E+4   8.35742E+3
   1.97277E+4   8.51408E+3
   1.94520E+4   8.43406E+3
   1.91048E+4   8.84089E+3
   1.88963E+4   9.06440E+3
   1.87743E+4   8.87697E+3
   1.85091E+4   8.94903E+3
   1.82629E+4   9.17579E+3
   1.81488E+4   9.30350E+3
   1.78704E+4   9.39415E+3
