 
 $NMID
 ID=''
 FMTDAT='(2E13.5)'
 TRAMP=   1.00000E+0
 VOLUME=   1.00000E+0
 $END
  -2.44530E+4  -2.07129E+4
  -2.82539E+4   3.38023E+3
  -3.98077E+3   1.79084E+4
   1.81746E+4  -9.67568E+2
  -6.38123E+1  -7.95084E+3
  -1.04314E+4   4.03544E+3
   2.47279E+3   2.19248E+3
   5.34469E+3  -3.78314E+3
   1.03859E+3  -2.03932E+3
  -7.83478E+2   3.77707E+1
  -2.36618E+3   5.13923E+3
   2.74137E+3   4.39450E+3
   2.77618E+3  -5.57292E+3
  -6.05808E+3   1.05364E+3
  -2.56090E+3   1.04376E+4
   5.94178E+3  -4.50095E+3
  -2.16345E+3  -1.07349E+4
  -4.92349E+3   6.13811E+3
   4.54464E+3   5.72168E+3
   2.52397E+3  -7.01642E+3
  -4.56317E+3  -1.74101E+3
  -4.94053E+2   3.12985E+3
   2.24975E+3  -2.10331E+3
  -8.26670E+2   5.44083E+1
  -8.83898E+2   2.37259E+3
   6.12340E+2  -2.65922E+3
   1.19272E+3  -1.84428E+3
   1.04115E+3   2.91234E+3
  -1.15840E+3   3.68017E+2
  -1.18197E+3  -1.25374E+3
   2.44349E+3   1.13924E+3
   2.23612E+3   1.35481E+2
  -2.25247E+3   1.65695E+1
  -2.81296E+3   2.18567E+3
   2.22561E+2   1.92337E+2
   3.80995E+2  -4.17787E+3
   4.41969E+1  -1.38093E+3
   1.31320E+3   2.79064E+3
   1.65057E+3  -9.30982E+1
  -6.81193E+2  -1.53845E+3
  -1.08631E+3   1.91030E+3
   1.18300E+2   1.21483E+3
  -1.53052E+2  -2.41868E+3
  -1.15436E+3  -1.91065E+3
  -7.48976E+1   7.57756E+0
   2.00526E+3  -1.38528E+3
   2.27077E+3  -4.02670E+2
   1.17754E+1   2.47429E+3
  -1.93246E+3   2.05138E+3
  -7.28485E+2  -5.12625E+2
   3.30232E+2  -1.12552E+3
  -6.46878E+2  -3.92458E+2
  -4.73962E+2  -8.19291E+1
   1.18608E+3  -9.49021E+2
   1.27445E+3  -1.37808E+3
  -2.06404E+2   3.58598E+2
  -1.90661E+2   1.51912E+3
  -6.89035E+2  -6.40246E+2
  -1.21654E+3  -1.89193E+3
  -4.87600E+2  -6.85924E+2
   6.24356E+2  -3.22440E+2
   9.41087E+2  -1.13021E+3
   1.09681E+3  -6.79140E+2
   1.07679E+3   1.97136E+3
  -1.04746E+2   2.17600E+3
  -1.32983E+3   5.81289E+2
  -1.63637E+3  -5.13583E+2
  -1.30379E+3  -8.24794E+2
  -2.11002E+2  -1.00742E+3
   4.56222E+2  -7.79388E+2
  -3.10746E+2   5.55023E+1
  -8.62345E+2  -8.62409E+1
  -1.89718E+2  -9.92133E+2
   8.54747E+2  -7.59243E+2
   1.72298E+2   2.40758E+2
  -1.34328E+2   3.53268E+2
   2.58152E+1  -1.06491E+2
   4.96778E+2  -5.96140E+2
   3.45008E+2   3.39947E+2
  -5.99540E+1   9.06935E+2
  -3.81765E+2   6.60631E+2
  -5.78958E+2  -2.23688E+2
  -2.77553E+2  -2.47146E+2
   5.18964E+0   2.42545E+2
  -6.05059E+2   3.04517E+2
  -8.83247E+2  -5.70420E+2
  -3.90736E+2  -7.06147E+2
   5.09450E+2   4.34592E+1
   2.54990E+2  -2.80793E+1
  -4.41221E+2  -2.87152E+2
   1.37155E+2  -3.24316E+2
   7.92021E+2   2.72364E+2
   7.83805E+2   4.99550E+2
  -4.13981E+2   9.02202E+2
  -6.95202E+2   9.27906E+2
  -7.53593E+2  -1.47071E+2
  -1.65980E+2  -5.32031E+2
  -1.59040E+2   1.42927E+2
  -1.81878E+2   2.02667E+2
  -1.53372E+2  -5.45535E+2
   4.79133E+2  -3.43686E+2
   6.64698E+2   4.35720E+2
   4.40427E+2   9.30827E+2
  -6.73944E+2   3.05166E+2
  -3.31608E+2  -4.40867E+2
   2.66978E+2  -2.82745E+2
   8.56005E+2  -2.11481E+2
   2.47316E+2   5.77223E+2
  -5.94656E+2   7.35432E+2
  -1.01955E+3  -4.58389E+2
  -1.71593E+2  -1.15509E+3
   6.29726E+2  -5.20122E+2
   3.94470E+2   3.20209E+2
   2.42837E+2   1.06652E+2
   1.83999E+2  -2.45299E+2
   6.05572E+2   1.42146E+2
   3.87328E+2   8.03313E+2
  -2.56025E+2   7.55074E+2
  -8.33484E+2   4.86595E+1
  -8.00630E+2  -6.18989E+2
   3.39269E+2  -1.90104E+2
   2.71345E+2  -1.97884E+2
   3.98627E+2  -4.30149E+2
   4.18350E+2  -1.87513E+2
   2.95988E+2   3.89200E+2
  -9.04436E+1   3.95177E+2
  -3.86729E+2  -2.55960E+1
  -2.00681E+2  -2.84828E+2
   3.42556E+1   4.06455E+1
   5.28896E+2  -1.80949E+2
   3.78756E+2   1.49586E+2
  -5.30209E+0   6.33103E+2
  -2.48236E+2   5.95825E+2
   1.11761E+2  -6.15115E+1
   2.24401E+2  -8.31271E+1
  -8.72849E+1   3.14229E+2
  -6.16910E+1   1.30831E+2
   1.57645E+2  -1.60424E+2
   2.05346E+2  -1.49900E+2
   4.62540E+2   5.11613E+2
  -1.62554E+2   3.24632E+2
  -2.33965E+2   1.35163E+2
  -1.70637E+2  -5.49161E+2
   4.00827E+2  -1.51210E+2
   5.50858E+2   3.62444E+2
   3.15901E+2   4.93450E+2
   1.34148E+1   4.48884E+2
  -1.41499E+1   3.10007E+2
   7.29070E+1   2.60076E+2
  -3.28663E+2   1.28095E+2
  -6.15544E+2   4.76984E+1
  -2.29425E+2  -1.94171E+2
   1.05594E+2  -4.25215E+2
   3.06649E+2  -3.58352E+1
   1.81265E+2   1.63467E+2
   1.09103E+2  -1.41525E+2
   1.25556E+1  -8.99853E+1
   1.79931E+2  -1.38847E+1
   1.77168E+2   2.02876E+2
   2.99287E+2   1.03218E+2
   3.55174E+2   2.54334E+2
   1.88041E+2   2.00595E+2
  -3.95433E+1   3.96752E+2
  -8.84070E+1   4.51677E+2
  -1.54378E+2   1.75545E+2
  -2.71255E+2  -2.21535E+2
   7.94743E+1  -2.93030E+2
   5.21790E+2   3.28331E+2
   2.09778E+2   3.18991E+2
  -1.37301E+2   7.72043E+1
  -2.38556E+2  -8.83441E+0
   2.63599E+1   1.18909E+2
   3.60509E+2   1.73377E+2
   2.32938E+2   4.61786E+1
   4.16837E+1   1.88020E+1
   2.31024E+2  -2.49986E+2
   2.49912E+2   3.61109E+1
   8.26288E+1   3.76229E+2
  -9.68192E+1   1.70135E+2
  -5.11069E+0  -1.19664E+2
   7.67800E+1  -1.94296E+2
   1.69283E+2   2.39777E+2
   2.56637E+1   2.61295E+2
   2.31696E+2   2.11774E+2
   7.02621E+1   6.72278E+1
   4.55364E+1   2.47195E+2
  -1.22150E+2   3.10208E+2
  -4.32966E+1   1.94335E+2
   3.94447E+1  -8.02952E+1
   2.01440E+2  -3.12407E+2
   5.28235E+2   6.43243E+1
   4.20933E+2   2.04610E+2
  -1.99302E+2   3.89199E+2
   1.42664E+1   2.38682E+2
  -1.15719E+1  -3.97458E+1
  -7.55666E+1  -2.75138E+1
   1.59815E+2   9.95461E+1
   1.27129E+2   7.84544E+0
   2.24473E+2  -1.32136E+2
   3.32485E+2   6.64963E+1
   2.02094E+2   3.80682E+2
   2.85665E+0   2.19873E+2
  -1.85942E+2  -2.28446E+2
   1.90182E+2  -4.47940E+2
   2.29235E+2  -1.58147E+2
   1.14748E+2   7.61798E+1
   1.89457E+2   1.79216E+2
  -6.10525E+1  -2.37413E+1
   3.69395E+2  -1.23572E-1
   1.35142E+2   1.40326E+2
  -9.98138E+1   3.73483E+1
  -1.18273E+2   7.29022E+1
  -5.46351E+1  -2.13325E+2
   1.61873E+2  -2.91979E+1
   3.11861E+2   1.44660E+2
  -1.20849E+2   2.64035E+2
  -2.13914E+2   4.04297E+1
  -7.78400E+1   1.93700E+2
   1.22311E+2  -5.48518E+0
  -7.58152E+1   3.18483E+0
  -3.47099E+1  -1.17645E+2
  -1.78314E+2  -2.31928E+2
   3.52573E+2   2.57050E+2
   3.31509E+2   2.26137E+2
   8.14447E+1   3.82577E+2
  -1.02444E+2   9.35863E+1
  -3.73466E+1  -1.82982E+2
   2.25539E+2  -8.11086E+1
   2.01030E+2   7.52665E+1
   1.02222E+2   1.83971E+2
  -6.79627E+1   1.25754E+2
  -6.20514E+1  -1.49220E+2
  -2.87762E+1   4.28832E+1
   5.55829E+1   2.50977E+2
   4.61196E+1   3.58890E+0
   6.26850E+1  -1.41075E+2
   1.19682E+2   2.10901E+2
  -1.93291E+2   2.94686E+1
   1.48965E+2   2.45695E+2
  -2.30986E+2   1.59403E+2
  -8.33033E+1  -3.20668E+2
  -1.12422E+2  -1.54710E+2
   1.80038E+2   2.09355E+2
   1.13838E+2   2.65244E+2
  -1.87360E+2  -3.52586E+1
  -5.18914E+1  -1.50895E+2
   1.70319E+2   2.61003E+2
  -2.43107E+1   2.65092E+2
  -9.15608E+1   3.23139E+2
   3.07186E+1  -2.67725E+2
   2.32356E+2  -1.45100E+2
   2.09976E+2   7.59240E+1
   1.26884E+1  -6.95369E+1
  -7.49426E+1   1.07038E+2
  -9.83650E+1  -9.22433E+1
   3.60896E+1   2.69238E+1
  -7.60962E+1   2.34196E+2
  -2.44902E+2   9.66576E+1
   1.70023E+2   2.74221E+1
   2.88410E+2   1.37824E+2
   1.08488E+2   8.39125E+1
  -9.51977E+1   8.70659E+1
  -1.28516E+1   3.82088E+2
  -2.84010E+2   1.17288E+2
   6.73142E+1  -1.14761E+2
   1.25629E+2  -1.95642E+2
   2.21720E+2   1.93429E+2
  -2.43233E+1   3.71682E+2
  -7.60751E+1   2.97923E+2
   1.32738E+2   8.20502E+1
   8.66316E+1   8.60946E+1
  -8.61081E+1   1.26840E+2
  -4.40826E+1   6.83954E+1
   1.23620E+2   1.17025E+2
   1.07570E+2  -1.20114E+2
  -1.91069E+1   1.35443E+2
  -1.93629E+2  -8.48465E-1
  -1.70148E+2   2.07249E+2
   1.78645E+1  -1.46983E+2
   2.62488E+2   1.27655E+2
   1.38871E+2   4.12344E+1
   2.27948E+1   5.22510E+1
   2.48941E+2  -8.13970E+1
   6.63585E+1   1.93859E+2
   3.02846E+1   1.27707E+2
   1.69523E+2   2.08886E+2
   9.67643E+1   1.25802E+1
   1.73761E+2   1.89200E+2
   1.63749E-1  -8.80456E+1
   3.75948E+2  -1.79280E+0
   7.37441E+1   1.23577E+2
  -1.34464E+2   7.28107E+1
   1.91104E+2   4.16901E+1
  -8.76427E+1   1.24174E+2
  -1.83539E+2   1.71208E+2
  -5.67221E+1   1.26689E+2
   2.42119E+2   5.19636E+1
   1.12224E+2   1.83369E+1
   1.08929E+2  -1.65261E+2
  -3.49063E+1   7.98594E+1
  -1.00053E+2  -6.91067E+1
  -2.55032E+1  -3.25991E+1
   3.04947E+2   2.17173E+1
  -1.60628E+2  -8.94713E+1
  -8.08620E+1   1.73257E+2
  -8.26450E+0  -2.31753E+2
   2.14411E+2   3.76668E+1
   1.77401E+2  -1.04025E+2
   1.60469E+2   1.39864E+2
  -8.27633E+1   1.14935E+2
   1.47026E+2   5.28180E+1
  -1.67971E+2  -8.97129E+1
   2.16804E+2   5.09775E+1
  -2.19501E+1   2.15507E+2
  -1.07389E+2   1.34471E+2
  -1.18519E+2  -8.31542E+1
   9.66098E+1  -1.06970E+2
  -8.15580E+1   1.45291E+2
   1.10609E+1   1.86352E+2
   2.00345E+2   6.54477E+1
  -5.70331E+1   1.09166E+2
   1.61030E+1   5.88484E+1
  -7.81476E+1   6.49632E+1
   4.63281E+1   3.76024E+1
  -1.04622E+2  -3.00492E+1
   1.23821E+2  -1.34818E+2
   5.01577E+1  -9.40124E+0
  -3.30883E+1   7.31266E+1
  -1.12759E+2   1.71664E+2
  -9.86698E+1  -1.11005E+2
   5.34393E+1   1.40216E+2
   4.86541E+1  -3.66053E+1
   3.74248E+1  -5.33616E+1
  -2.16572E+2  -2.14516E+1
   1.65629E+2   1.93115E+2
  -8.58690E+0   1.20589E+2
  -1.24209E+1   1.35339E+2
   1.44377E+2   3.25083E+2
  -1.34501E+2  -1.13303E+2
  -1.10247E+2  -1.00104E+2
   1.18918E+1  -9.78305E+1
  -1.39745E+2   7.15764E+1
  -1.87712E+1   4.86736E+1
   4.00949E+1   7.34647E+1
   9.02674E+1  -2.95461E+1
   1.96641E+2  -6.28277E+0
  -3.68983E+1   1.28585E+2
   1.51998E+2   7.81927E+1
  -1.42532E+2  -4.86182E+1
   1.58444E+2  -3.56074E+1
   1.16980E+2   1.70423E+2
   2.26254E+1   3.45933E+1
  -2.72835E+1   1.28908E+2
  -4.66257E+1   1.24954E+1
   1.13183E+2  -2.41031E+2
  -4.61757E+1   2.07475E+2
  -1.12258E+2  -1.41970E+1
  -5.36886E+1   6.66405E+1
  -3.06383E+1  -1.84832E+2
  -7.77671E+1   9.98804E+1
   2.28566E+2  -4.76430E+0
  -2.44921E+2   2.71314E+2
   4.21758E+0  -1.85710E+2
   1.76359E+2  -1.95612E+1
   1.37676E+2   2.13775E+2
  -5.28481E+0  -1.97832E+1
   9.14287E+1  -2.34428E+1
