 
 $NMID
 ID=''
 FMTDAT='(2E13.5)'
 TRAMP=   1.00000E+0
 VOLUME=   1.00000E+0
 $END
   1.74830E+4   1.63501E+4
   3.56492E+4   5.50013E+3
   1.33256E+4  -2.99423E+4
  -3.05819E+4  -8.30949E+3
  -1.27333E+4   2.67753E+4
   2.56302E+4   8.41025E+3
   1.10158E+4  -1.80884E+4
  -1.50851E+4  -5.76496E+3
  -7.37684E+3   1.14353E+4
   5.43696E+3   7.48001E+3
   3.63908E+3  -3.46600E+3
  -8.67342E+2  -6.84955E+3
  -2.69201E+3  -6.54829E+2
  -3.03421E+3   3.36893E+3
   1.95534E+2  -1.24533E+3
   4.72351E+3  -3.36825E+3
   3.37110E+3   4.54420E+2
  -2.27317E+3   2.92002E+2
  -3.41245E+3  -9.33369E+2
   1.61555E+3   9.51530E+2
   2.62239E+3   2.37835E+2
  -2.49536E+2  -7.73791E+2
  -5.60165E+2   5.10628E+2
  -3.10477E+2   5.12523E+2
  -1.22273E+2  -6.57588E+2
   1.25158E+3  -1.96643E+2
   1.02704E+2   8.63494E+2
  -2.09497E+3   6.77578E+2
  -3.10751E+2  -3.54730E+2
   1.45013E+3  -5.17242E+2
   1.44035E+1  -1.18794E+2
  -7.60010E+2   3.91447E+2
  -9.71164E+2   5.70779E+2
  -1.15018E+3  -2.80261E+2
   3.92000E+2  -2.10181E+3
   2.29495E+3  -1.25736E+3
   6.46086E+2   1.85682E+3
  -1.47812E+3   1.99725E+3
  -4.37201E+1  -6.24374E+2
   1.00011E+3  -5.02041E+2
  -6.01419E+2   8.08736E+2
  -1.54113E+3  -6.32951E+2
   5.11367E+2  -1.09626E+3
   1.64971E+3  -1.08128E+2
   1.18318E+3   6.07732E+2
   3.14859E+2   3.93859E+2
  -8.34438E+1   1.09967E+3
  -5.49677E+2   1.10919E+3
  -1.30329E+3  -2.30956E+2
  -1.96141E+2  -1.02155E+3
   4.48717E+2  -4.69647E+2
   8.72171E+1  -2.37949E+2
   5.21503E+1  -2.49049E+2
   4.89086E+2  -3.38471E+2
   1.01926E+3   2.78833E+2
   1.18786E+2   6.77499E+2
  -6.41052E+2   3.91487E+2
  -8.83188E+2  -6.01052E+2
   5.48355E+2  -1.01778E+3
   6.26850E+2   1.29921E+2
   1.71618E+2   4.58763E+2
   4.62713E+2   2.49787E+2
   1.03742E+3   2.83512E+2
  -2.20452E+2   1.32569E+3
  -1.44411E+3   1.09776E+3
  -9.54722E+2  -5.46797E+2
  -1.48664E+2  -1.28331E+3
   2.28022E+2  -1.07111E+3
   2.19217E+2  -3.61236E+2
   5.43869E+2   5.34993E+2
   2.34759E+2   2.55515E+2
  -3.98542E+2  -3.52891E+2
   1.26776E+2  -5.36592E+2
   6.74741E+2   2.62306E+2
   4.59130E+2   8.33064E+2
  -1.87929E+2  -4.65103E+1
   7.50517E+1  -3.48636E+2
   1.41428E+2  -4.89317E+1
  -1.04001E+1   4.09278E+2
  -1.60820E+2   4.07278E+2
  -3.53097E+2  -2.78839E+1
  -1.51989E+2  -6.10698E+2
   1.57669E+2  -2.99469E+2
  -1.40631E+2   6.77176E+2
  -2.63360E+2  -1.95296E+2
  -3.03590E+2  -4.23732E+2
   2.42094E+2  -3.15101E+2
   2.35007E+2   3.25055E+2
   2.42916E+2   2.54969E+2
   2.74274E+2  -3.56029E+2
   4.35070E+2  -3.09169E+2
   1.17309E+2  -3.50877E+0
   9.30382E+1   4.39231E+2
  -4.20620E+1   6.78968E+2
  -4.88377E+2   2.70553E+2
  -3.59560E+2  -3.39242E+2
  -2.27608E+2  -4.80431E+2
   2.68167E+2   1.21627E+1
   1.02155E+2   2.15194E+2
   2.33430E+2  -7.84518E+1
   3.43109E+2  -5.19149E+2
   2.85703E+2  -9.34760E+1
   2.03302E+2   7.82003E+2
  -3.22524E+2   2.64446E+2
  -2.57306E+2  -3.90114E+2
   1.71090E+2  -2.99435E+2
   4.07673E+2   4.42183E+2
  -3.05022E+1   4.74765E+2
  -1.17142E+2   1.50660E+2
  -3.25326E+2  -4.07451E+2
  -1.02440E+2  -3.04780E+2
   3.07859E+2  -1.70766E+2
   3.04920E+2   2.17739E+2
   1.84778E+0   2.21506E+0
  -2.04221E+0   1.20722E+2
   7.78682E+1   2.32293E+2
   1.63571E+2   1.20117E+2
   2.52221E+2   4.03274E+2
  -3.23482E+2   4.00748E+1
  -3.65671E+2  -3.97158E+2
   1.25139E+1  -1.25081E+2
   1.80337E+2   1.21078E+2
   2.40040E+2  -1.45204E+1
   3.20087E+1  -2.01695E+2
   8.31711E+1   3.64701E+0
   1.47513E+2   6.89186E+1
   9.25973E+0   9.59584E+1
  -1.43131E+2  -1.59244E+1
   2.73406E+1  -1.87980E+2
   3.17889E+2  -1.06134E+2
   3.66191E+2   1.20368E+2
  -2.52620E+1   2.97143E+2
  -2.83162E+1   1.13198E+1
  -2.14669E+1  -1.63004E+2
  -6.46955E+1  -2.87846E+2
  -1.86408E+2   1.95420E+2
   5.35537E+1  -5.67115E+1
   6.50896E+1  -8.28961E+1
   1.35258E+2   3.84607E+1
   2.31777E+2   2.07075E+1
  -2.51740E+2   1.65283E+2
  -9.96352E+1  -1.02214E+2
  -2.27687E+1  -2.04897E+2
   2.43408E+1  -1.98216E+2
   2.61348E+1  -3.25203E+1
   8.79060E+1  -5.83150E+1
  -8.14488E+1   5.24655E+1
  -5.58742E+1   1.50455E+2
   2.82116E+2   5.87087E+1
  -2.58963E+1   2.19275E+2
  -1.34725E+2   2.53840E+2
  -3.84241E+2  -1.86843E+2
   4.64803E+0  -2.41399E+2
  -1.26550E+2   6.50363E+1
   1.11355E+1   1.16538E+1
  -1.79929E+2   1.14607E+1
  -1.82850E+2  -7.06034E+1
  -4.12102E+1  -6.80224E+1
   1.13209E+2   1.29612E+2
  -2.82245E+1   6.11449E+1
   7.06433E+1   3.10742E+2
   1.45879E+0   2.37702E+2
   2.64170E+1   2.70005E+2
   5.74975E+1   2.70114E+2
   2.20961E+1  -3.00058E+1
   8.90454E+1   8.28242E+1
   6.73547E+1   6.40367E+1
   1.96914E+2  -1.97436E+2
   3.44000E+2  -3.52108E+1
   7.20436E+1  -3.33359E+1
  -1.60273E+2   2.35309E+2
   1.03829E+2  -8.39657E+1
   1.95114E+2   1.18183E+2
   4.81488E+1   1.38459E+2
  -1.48329E+2  -7.19935E-1
  -4.98761E+1  -3.84546E+1
  -6.94536E+1   4.21472E+1
   5.64546E+1   9.87179E+1
   8.43132E+1   2.97819E+2
  -9.01612E+1  -1.68710E+2
  -2.77064E+1   1.87439E+1
   4.08349E+1  -1.87506E+1
  -7.45909E+1  -9.26513E+0
   9.30174E+1  -1.21493E+2
   3.03061E+2   1.20998E+2
  -1.63729E+1   3.69512E+1
   6.25204E+1  -1.71823E+2
   1.20185E+2  -9.83927E+1
   3.27788E+2   7.62421E+1
   2.97991E+2  -7.36272E+1
  -8.96209E+1  -1.20181E+2
   6.45673E+1  -3.76245E+1
  -1.43802E+1  -6.83052E+1
   2.53851E+2   1.04697E+2
   1.70871E+2  -3.01327E+1
   2.28374E+1  -1.74902E+2
   2.61594E+2   2.06829E+2
   2.44784E+2   2.47286E+1
  -1.11068E+1   1.23749E+2
   5.23224E+1   4.34286E+1
   1.19850E+2   9.13624E+1
   2.02288E+2   7.71753E+1
   3.65485E+1  -1.44910E+2
   2.06135E+2   6.33579E+1
   1.01209E+2   1.97373E+0
   1.43206E+2  -1.22929E+2
  -1.10182E+2  -1.83631E+2
  -1.02988E+2  -1.78638E+2
   5.66734E+1   2.65646E+1
  -2.21815E+1  -2.79651E+0
  -2.35546E+2  -8.64630E+1
   2.63773E+1  -9.77470E+1
  -2.76974E+1   1.69093E+2
  -5.86737E+0   7.87254E+1
  -2.34881E+1  -1.50988E+2
  -4.92065E+1  -2.06155E+2
  -9.39737E+1  -1.95306E+2
  -1.96264E+1  -4.48828E+1
   9.52649E+0  -1.24187E+2
  -5.87974E+1  -1.29370E+2
   2.43225E+1  -1.43379E+2
   5.71107E+1  -8.38704E+1
  -1.42992E+2  -8.79564E+1
  -4.10891E+1  -2.91589E+2
  -3.19064E+1  -2.06294E+2
  -6.40858E+1  -1.90682E+1
  -1.43068E+2  -1.41720E+2
  -1.75553E+1  -5.63326E+1
   1.31705E+0  -1.37568E+2
   9.60604E+1  -1.84878E+2
  -9.55670E+1  -1.01172E+2
  -9.28840E+1  -1.78919E+2
  -2.58414E+2  -1.99282E+2
   1.14304E+2  -1.15638E+2
  -1.23029E+2  -7.57532E+1
  -2.10210E+2  -6.29363E+1
  -1.17819E+2   1.11437E+2
  -4.94027E+0   1.29848E+2
  -8.27069E+1  -1.96168E+2
  -9.90627E+1  -1.64273E+2
  -3.51002E+1  -3.21120E+2
  -1.53602E+2  -1.20305E+2
  -7.61011E+1   4.13989E+1
   7.99919E+1  -1.54670E+2
   6.31201E+1  -2.11343E+1
   1.79091E+2   2.99745E+1
  -8.72712E+1  -1.31386E+1
   4.49268E+1   5.88043E+1
  -9.55366E+1  -2.03676E+2
   7.06327E+1  -5.04683E+1
  -7.12447E+1  -5.55247E+1
  -5.96750E+0   2.75372E+2
   5.86231E+1  -4.29496E+1
  -1.87115E+2  -1.21115E+2
   8.15687E+1   2.61657E+1
   1.06097E+1  -1.25481E+2
   6.77420E+1  -2.68970E+1
   1.65808E+2   2.43827E+2
  -2.75472E+2   1.65808E+1
  -1.46461E+2   8.27852E+0
  -7.46522E+1  -1.12199E+2
   2.79936E+1  -1.97614E+1
  -5.44245E+1  -7.84631E+1
  -1.25134E+1  -1.63118E+2
  -1.27719E+2   1.64164E+2
  -6.67926E+1   1.74290E+2
  -2.01152E+2   1.39674E+2
  -7.18505E+1   2.12175E+1
  -1.18658E+2   1.29817E+2
  -3.10796E+1  -2.68210E+1
   5.77718E+1  -7.19988E+1
  -4.73410E+1  -1.27886E+2
  -1.55030E+2   3.05064E+1
  -1.13942E+0   6.50365E+1
  -1.01004E+2  -2.33358E+1
  -1.76888E+2  -4.27563E+1
   8.19689E+1   4.97593E+1
  -9.03803E+0  -4.35986E+1
  -3.17288E+1  -8.37259E+0
  -2.96103E+1   1.35208E+2
   9.46698E+1   4.45584E+1
  -1.04330E+2   3.90235E+1
  -2.86589E+2  -1.74818E+2
   7.91899E+1   2.58388E+1
   6.78341E+1  -5.56262E+1
  -2.63456E+1  -1.42598E+1
  -3.23805E+1  -8.21750E+1
   6.28943E+1   3.18571E+1
   1.37952E+2  -4.22883E+1
   1.33583E+1   1.24170E+2
  -1.26633E+2  -4.60633E+1
  -1.33275E+2   7.43248E+1
   1.05347E+2   1.10504E+1
  -1.76789E+2  -2.00491E+1
  -9.34972E+1   6.70015E+1
  -1.50557E+2  -1.57303E+2
  -4.15168E+1  -2.73431E+0
  -2.08263E+2   1.85548E+2
   6.63766E+1   1.84516E+2
  -1.97591E+2  -1.44256E+2
   1.94564E+2   3.72125E+1
  -7.85499E+1   4.77931E+1
   3.29745E+1  -8.66651E+1
   2.27687E+1   1.48710E+2
   1.75665E+1   5.14341E+1
  -8.97007E+1  -6.49339E+1
   4.01474E+0  -8.21169E+1
  -1.77327E+2   6.41540E+1
   2.60674E+1   5.79082E+1
  -6.04005E+0   7.94757E+1
  -7.17755E+1  -9.31905E+1
  -1.49854E+1   1.06955E+2
   2.08830E+2   2.35207E+2
  -1.13336E+2   1.14955E+2
  -2.24595E+1  -3.33776E+1
  -1.09575E+2  -5.54759E+1
  -1.90535E+2   7.64084E+1
  -1.98100E+1  -6.00495E+1
  -8.86541E+0  -7.10203E+1
  -9.92752E+0  -5.27766E+1
   3.55568E+1   9.41002E+0
   5.55113E+1   2.87564E+2
  -1.00521E+2  -1.99766E+2
   1.21952E+2   4.40356E+0
   1.15743E+2  -1.02635E+2
   9.12481E+1  -8.43752E+0
  -1.71326E+2  -6.20848E+1
  -2.32066E+1   1.59947E+2
  -5.21930E+1   1.98138E+1
  -1.58848E+2  -2.63169E+1
   3.58208E+1   1.14725E+2
   2.50318E+2   1.98989E+2
   5.10924E+1  -5.90136E+1
   9.50985E+1   1.04854E+2
  -1.25082E+2  -6.33537E+1
  -1.75105E+2   2.60085E+2
  -2.17169E+2  -1.93300E+2
  -2.72318E+2  -6.07635E+1
   2.59997E+2  -1.34116E+2
   1.62907E+2  -8.31169E+1
   3.12535E+1   8.57236E+1
  -9.54043E+1   1.59742E+2
   1.29042E+2  -2.93020E+1
  -1.15605E+2   8.86320E+1
  -1.26585E+1  -2.34690E+2
   1.64166E+2  -1.14841E+2
  -5.79738E+1  -2.20662E+1
   1.21678E+2   8.41701E+1
   5.85362E+1  -9.42266E+1
   1.43058E+2   9.17802E+1
  -2.06937E+0   1.12044E+2
  -1.78616E+1  -1.48876E+1
   9.92167E+1   4.48680E+0
  -1.45000E+2  -1.29811E+2
   8.00277E+1   2.55357E+1
   2.14612E+2  -3.13124E+1
   1.89426E+2  -2.84479E+1
   3.74284E+1  -5.16225E+0
   6.55790E+1   5.99740E+1
  -1.23332E+2   1.67742E+2
   1.93703E+1   3.65689E+0
   6.49885E+1  -1.74507E+2
  -3.64211E+0  -6.65236E+1
  -1.52462E+2  -6.11199E+1
   9.57370E+1   7.10030E+1
  -3.15686E+0  -1.38555E+2
  -3.51243E+0  -2.11729E+2
