 
 $NMID
 ID=''
 FMTDAT='(2E13.5)'
 TRAMP=   1.00000E+0
 VOLUME=   1.00000E+0
 $END
   2.69249E+4   1.23724E+4
   2.10673E+4  -2.13763E+4
  -2.92280E+4  -2.28762E+4
  -2.15129E+4   2.60789E+4
   2.78616E+4   2.47001E+4
   1.74806E+4  -2.33716E+4
  -2.39552E+4  -1.98641E+4
  -1.37562E+4   1.64486E+4
   1.76439E+4   1.24866E+4
   1.27417E+4  -1.09598E+4
  -8.78185E+3  -8.32751E+3
  -9.37657E+3   7.54772E+3
   6.44611E+3   6.58458E+3
   8.27243E+3  -3.92322E+3
  -7.43407E+3  -4.26576E+3
  -9.53246E+3   3.25676E+3
   4.98529E+3   2.55942E+3
   5.77039E+3  -3.03713E+3
  -4.40011E+3  -1.32600E+3
  -3.02502E+3   1.76454E+3
   3.19472E+3  -1.11175E+2
   9.35540E+2  -2.23880E+3
  -2.27007E+3  -1.15795E+3
   9.08618E+1   9.29222E+2
   1.49291E+3   6.72044E+2
  -1.09635E+3  -2.14433E+3
  -1.66025E+3  -1.13998E+3
   1.72799E+3   2.30657E+3
   1.96020E+3   6.57688E+2
  -1.38191E+3  -1.34945E+3
  -1.55134E+3   2.12297E+2
   1.12778E+3   6.50911E+2
   1.54034E+3  -4.12728E+2
  -1.92778E+2   1.09099E+3
  -2.05847E+3   1.57477E+3
  -1.96535E+3  -1.17800E+3
   5.49250E+2  -2.26853E+3
   1.70858E+3   5.19035E+2
  -2.02580E+2   1.37061E+3
  -5.23393E+2  -5.22120E+2
   7.66286E+2   9.00911E+1
   5.13150E+2   2.00019E+3
  -8.57139E+2   4.09376E+2
  -1.08320E+3  -1.51508E+3
  -4.02649E+1  -1.17231E+3
   1.32897E+3  -1.21402E+1
   1.58599E+3  -3.03817E+2
   6.85251E+2   2.49418E+2
  -2.10126E+2   1.21502E+3
   2.59864E+2   1.06298E+3
  -2.84800E+1   3.43399E+1
  -9.87452E+2  -1.91656E+2
  -3.10397E+2   1.19797E+2
   8.52542E+2  -1.05846E+2
   4.25067E+2  -5.23456E+2
  -1.74845E+2  -4.22598E+2
   4.32126E+2   6.62850E+2
   7.40783E+2   1.18986E+3
  -5.53465E+2   4.02137E+2
  -1.17847E+3  -9.80965E+2
  -5.83595E+2  -9.07827E+2
   8.43826E+2  -3.03678E+2
   7.86411E+2  -1.72100E+2
   5.18812E+2  -4.04960E+2
   1.04576E+3   2.54374E+2
   9.05815E+2   1.51158E+3
  -4.18195E+2   1.02484E+3
  -1.76597E+3  -9.71152E+0
  -6.55826E+2  -5.91372E+2
   1.26978E+3  -1.45341E+2
   6.95187E+2   3.53361E+2
  -1.01231E+3   4.08569E+1
  -6.59271E+2  -3.06861E+2
   6.33161E+2  -2.99037E+2
   6.31027E+2  -2.75411E+2
  -2.55116E+2  -1.15607E+2
  -2.85214E+2  -3.35600E+2
   6.58588E+2  -3.08545E+2
   4.76836E+2   7.54367E+1
   2.53083E+2   4.93694E+2
   5.72889E+2   4.36758E+2
   5.51456E+2   1.03035E+2
  -1.92257E+2  -1.48799E+2
  -2.16787E+2  -1.63702E+2
   3.27333E+2   2.23374E+2
   1.73557E+2   1.26356E+1
  -4.63487E+2  -5.00700E+2
  -3.24003E+2  -3.77281E+2
   2.33028E+1  -2.07279E+2
   3.73211E+0   6.91624E+1
  -4.71483E+2  -4.45934E+2
  -4.39964E+1  -5.74613E+2
   4.77967E+2  -8.44266E+2
   7.53800E+2  -2.36363E+2
   2.36623E+2   4.80290E+2
  -6.71587E+2   6.07713E+2
  -3.54665E+2   3.99664E+1
   1.75692E+2  -1.17889E+2
  -1.40662E+2   7.75585E+1
  -7.73606E+2   2.46411E+2
  -7.02510E+2  -5.17843E+2
   3.07901E+2  -6.00820E+2
   5.13812E+2  -2.07007E+2
   1.67749E+1   4.26137E+2
  -3.97736E+2   3.67819E+2
  -5.36007E+2  -2.54958E+2
  -1.36802E+2  -5.25985E+2
   4.19928E+2   3.21063E+1
   1.82358E+2   6.22025E+2
  -2.07660E+2   2.79154E+2
  -6.61841E+2   1.05568E+2
  -4.91935E+2  -1.04129E+2
  -2.23837E+1  -1.50294E+2
   7.40030E+1  -2.50012E+2
  -1.65058E+2  -1.28156E+1
  -2.82882E+2   3.42470E+1
   4.82017E+2   1.56386E+1
   2.45324E+2   3.38710E+2
   1.76316E+2   6.11673E+2
  -5.15287E+2   2.85405E+2
  -1.50544E+2   1.73442E+2
  -1.88890E+2  -1.66164E+2
   1.38084E+2  -3.11792E+1
  -4.35140E+2   3.38341E+1
   2.19018E+2   1.24344E+2
   2.12354E+2  -2.11680E+1
  -7.27967E-1  -1.26352E+1
  -2.78462E+1   4.64706E+0
  -4.23881E+2   3.29170E+1
  -5.08085E+1   6.31994E+1
   2.78150E+2  -1.91557E+2
   3.62852E+2  -4.33789E+1
   1.64090E+2   3.54734E+2
  -2.94589E+2   2.89386E+2
   2.48458E+2   1.80380E+2
   2.36322E+2  -8.10211E+0
   3.09868E+1   9.60088E-1
  -1.80104E+2   1.32870E+2
   6.72537E+1  -2.24450E+2
  -2.73860E+1  -4.16270E+1
   2.64723E+2  -1.72704E+2
   3.69178E+1   6.90068E+1
  -2.86811E+2   5.79193E+1
  -4.26324E+2  -1.16982E+1
  -1.21933E+2  -4.37480E+2
   9.19696E+1  -2.43830E+2
   2.31889E+2  -4.65135E+1
   2.18364E+2   1.69881E+2
  -1.30058E+2  -5.15972E+1
   5.22560E+1   2.02612E+2
   2.97545E+1   1.12165E+2
  -2.57477E+2   4.24386E+2
  -3.93999E+2   1.12588E+2
  -2.79176E+2  -1.43315E+2
  -5.27822E+1  -1.41215E+2
   1.41686E+2   2.07480E+2
  -1.71839E+2   1.20125E+2
  -8.29487E+1  -2.31260E+2
  -2.04622E+2   1.08204E+2
   8.36840E+1   2.62124E+2
   6.84845E+1   1.75507E+2
  -8.52907E+1  -2.17708E+2
  -1.31696E+2  -5.73399E+0
   1.27555E+2   2.25034E+2
  -3.58380E+1   2.04152E+2
   1.01009E+2   7.05583E+1
   3.89119E+1   1.22486E+2
  -1.37244E+2   3.89272E+1
  -1.25645E+1   1.53667E+2
  -1.98756E+2   1.59273E+2
  -9.95635E+1   3.75347E+1
  -1.59265E+2   1.57278E+2
  -4.85516E+1   2.56603E+1
  -1.15515E+1  -2.67402E+2
  -1.16394E+2   2.73748E+2
  -2.17868E+2  -4.25873E+1
  -2.80761E+1   3.84769E+1
  -1.24665E+2  -1.76253E+2
   4.13194E+1  -9.86018E+1
  -1.37346E+2   1.80353E+2
   4.72402E+1   5.78820E+1
  -1.22351E+2   5.30454E+1
   1.87216E+2   1.42154E+2
   1.14742E+1   3.14258E+1
  -3.37932E+1   4.47436E+1
   9.54712E+1   8.27018E+1
   9.61878E+1  -2.75287E+1
   1.28350E+2   2.36289E+2
  -7.53909E+1   7.74742E+1
  -3.91695E+2   1.77150E+2
  -2.89064E+2  -3.64717E+1
   1.87921E+2  -1.48609E+2
   1.10141E+2  -3.27645E+1
  -2.86514E+1   2.78427E+2
   1.65744E+2   1.72880E+2
   1.22608E+2   7.50148E+1
  -2.88218E+2   8.29510E+1
  -5.61692E+1  -7.97329E+1
   1.94609E+2   1.83213E+1
  -3.48405E+1  -1.07086E+2
   1.13058E+1   3.58953E+1
   1.73698E+2   2.04673E+2
   4.48734E+1   6.27451E+1
  -2.72756E+2  -1.12550E+1
   6.55810E+1   1.10594E+1
  -1.52596E+2   1.73458E+2
  -1.40748E+2  -1.60948E+2
  -5.83769E+1  -3.66938E+1
  -8.05689E+1   3.09758E+1
  -1.13571E+2   2.68021E+2
  -2.21290E+2  -1.85915E+0
   8.25596E+1   3.89535E+1
  -1.89369E+1   5.82920E+1
  -1.14089E+2  -1.17423E+2
   1.16435E+2   7.70384E+1
  -1.08298E+2  -1.99847E+2
   9.53121E+0  -2.33455E+2
  -2.67427E+1  -1.94224E+2
  -1.05327E+2   2.51884E+1
  -1.70733E+2  -4.57511E+1
  -3.07223E+2  -1.74504E+2
  -1.24211E+2   1.11196E+2
  -1.05648E+2   1.00028E+2
  -2.64152E+2  -7.17092E+1
   1.27838E+2   3.55830E+0
  -1.08068E+2   4.30703E+1
   1.23469E+2   7.58040E+1
  -7.44178E+1  -1.42526E+2
  -7.02451E+0  -1.90634E+2
   1.15115E+2   7.65190E+1
  -1.31046E+2   6.44656E+1
   5.51066E+1   1.26104E+2
   2.32806E+2  -2.20140E+1
   4.43417E+1   1.30786E+2
  -1.27670E+2   8.42749E+1
   1.32688E+2  -1.84161E+2
   2.23202E+2   1.93534E+2
   4.87285E+1   1.76813E+2
  -7.65594E+1   3.15467E+0
  -1.43398E+2  -7.56806E+1
   8.76821E+1  -7.57018E+1
  -9.28767E+1   1.07157E+2
   5.50840E+1   2.83504E+1
   1.94341E+2  -1.14909E+2
   7.13773E+1   4.33003E+1
  -2.61721E+2  -1.59255E+1
  -1.08922E+2   1.72558E+1
   2.34050E+2   1.02230E+2
   1.03649E+2  -7.91709E-1
   7.65478E+1  -2.66456E+1
  -1.92490E+2  -1.52804E+2
  -1.01937E+2  -1.41915E+2
  -5.06194E+0  -5.77766E+1
  -1.03670E+2  -1.43037E+2
  -1.18106E+2  -8.89311E+1
  -1.00159E+2   1.47695E+1
   2.88577E+1   2.76181E+1
   1.43771E+2   2.94390E+1
  -1.74029E+1  -2.69927E+1
   3.00073E+2  -2.13120E+2
   8.16389E+1   1.91293E+2
   1.43626E+2  -1.20128E+2
   1.50871E+2   1.54587E+2
   8.06812E+1   2.35609E+2
  -1.12757E+2   1.92569E+2
   2.90529E+2   4.76862E+1
  -1.46316E+1   2.15854E+2
   1.58105E+2  -7.96792E+1
   6.82020E+1   1.44248E+2
  -1.42565E+2  -6.79225E+1
   8.29264E+1   5.66735E+1
  -7.98743E+0  -9.00044E+1
   5.84481E+1  -2.09088E+2
  -7.24042E+1  -2.91186E+2
   1.06442E+1   1.48112E+2
  -1.16397E+2  -6.27186E+1
   1.57984E+2  -3.21210E+1
   1.29995E+1  -2.55754E+2
  -1.44250E+2   8.19642E+1
   1.04326E+2   2.19877E+2
   7.60893E+1  -3.96097E+0
  -5.39465E+1   8.70299E-1
   3.57708E+1   4.17004E+1
  -1.07559E+2   7.41404E+0
   2.24072E+2  -3.79787E+1
   9.13567E+1   5.80130E+1
  -2.01637E+1   1.04422E+2
   2.10415E+1  -4.94503E+1
  -9.50588E+1  -5.64402E+1
   1.24455E+2  -1.30316E+2
  -1.91030E+1   2.53782E+1
  -4.96153E+1  -1.59069E+2
  -1.75298E+1  -1.19195E+2
   1.98256E+2  -7.12662E+1
  -2.77889E+0  -3.61224E+1
  -6.02259E+1   7.05544E+1
   1.56121E+2   1.15037E+1
  -1.61155E+2   2.67400E+1
   2.11243E+2  -8.18501E+1
   1.15211E+2  -1.17755E+2
   9.15149E+1  -2.23937E+2
   1.95155E+2   4.86732E+0
   2.24625E+2   5.36341E+1
  -1.22774E+2  -2.01904E+2
   1.33448E+2   6.28017E+1
   1.82400E+2   7.61045E+0
   1.02794E+2  -6.92876E+1
  -6.58544E-1  -1.07202E+2
   2.47246E+2   2.01895E+2
   9.92761E+1   1.35898E+2
   1.07572E+0   2.64789E+1
   3.39738E+1  -1.01521E+2
  -1.32576E+1   1.05127E+2
   1.19338E+2  -2.47199E+2
  -1.49610E+2  -9.24524E+1
  -2.23305E+2  -7.14428E+0
  -2.50940E+2  -7.00020E+1
  -3.13395E+1   1.35693E+2
  -1.61790E+2   2.83815E+0
  -2.20320E+2   7.05734E+1
   2.46523E+2   1.41035E+1
   6.37740E+1  -8.29142E+1
   1.37897E+2   2.96687E+1
  -2.49553E+1   2.06416E+2
  -3.03086E+1   1.06064E+2
  -1.07748E+2  -1.61890E+2
  -6.00578E+1  -1.91602E+2
  -1.52452E+2  -9.44936E+1
  -2.15470E+2  -8.13255E+1
   1.27839E+2  -4.23876E+0
   7.60458E+0  -2.14338E+2
   4.89711E+0  -8.93549E-1
   1.18481E+2  -1.36865E+2
  -9.40513E+1  -2.81023E+2
  -1.15885E+2  -5.63380E+1
   1.39229E+1   1.32780E+2
   1.87183E+2  -1.65870E+2
  -1.69433E+2  -7.88814E+1
   3.98754E+1   3.88994E+1
   1.20812E+1  -1.59406E+2
  -5.52442E+1  -3.86655E+1
  -6.36225E+1  -1.02002E+2
  -4.02540E+1  -2.10868E+2
   6.15067E+1   2.11702E+0
  -2.59041E+2  -1.81210E+2
  -1.83787E+2  -2.15164E+2
  -1.69781E+2  -1.18658E+2
   5.23705E+1  -1.22879E+2
   1.81176E+2   3.53200E+1
   1.66400E+2  -1.54889E+2
  -7.66040E+1  -2.42244E+2
  -8.31300E+1  -2.03709E+2
   1.71495E+2  -1.28438E+2
   1.29225E+2  -2.11500E+1
  -3.62269E+1   4.45815E+1
   2.06656E+1   2.72755E+1
  -1.33527E+1   1.87674E+2
  -8.47912E+1  -3.09627E+0
   3.50188E+1  -2.11723E+2
   2.38934E+1  -1.54903E+2
  -2.06982E+1   6.06938E+1
  -2.24003E+2   2.13906E+2
  -2.06643E+2  -9.50610E+1
   8.44722E+1  -1.28576E+2
   9.29883E+1   1.23648E+1
   3.61605E+1   1.15053E+2
  -1.25431E+2  -6.47509E+1
