 
 $NMID
 ID=''
 FMTDAT='(2E13.5)'
 TRAMP=   1.00000E+0
 VOLUME=   1.00000E+0
 $END
   3.47935E+5   6.76856E+5
   1.61135E+5   2.01445E+6
   3.31931E+5   1.97527E+6
   2.18136E+5   1.90754E+6
   1.76911E+5   1.96105E+6
   1.60598E+5   1.90390E+6
   7.54617E+4   1.89637E+6
   7.79755E+4   1.94381E+6
   7.92406E+4   1.87340E+6
  -2.27043E+4   1.84925E+6
  -5.40654E+4   1.88958E+6
  -4.93352E+4   1.84549E+6
  -1.10081E+5   1.81242E+6
  -1.45239E+5   1.82561E+6
  -1.63149E+5   1.79161E+6
  -2.06256E+5   1.76468E+6
  -2.33231E+5   1.77000E+6
  -2.66238E+5   1.74048E+6
  -3.15687E+5   1.71704E+6
  -3.35306E+5   1.71004E+6
  -3.64886E+5   1.67983E+6
  -4.10596E+5   1.65978E+6
  -4.32634E+5   1.64834E+6
  -4.57530E+5   1.61955E+6
  -4.97945E+5   1.59535E+6
  -5.14019E+5   1.58036E+6
  -5.37280E+5   1.55522E+6
  -5.68650E+5   1.53661E+6
  -5.89018E+5   1.51462E+6
  -6.09361E+5   1.48683E+6
  -6.40558E+5   1.46755E+6
  -6.60363E+5   1.44689E+6
  -6.84537E+5   1.41944E+6
  -7.10825E+5   1.39782E+6
  -7.27638E+5   1.37319E+6
  -7.47603E+5   1.34882E+6
  -7.74263E+5   1.33142E+6
  -7.95830E+5   1.30702E+6
  -8.13532E+5   1.27742E+6
  -8.32305E+5   1.25708E+6
  -8.49668E+5   1.23346E+6
  -8.66151E+5   1.20555E+6
  -8.78602E+5   1.18301E+6
  -8.92773E+5   1.16195E+6
  -9.09025E+5   1.13625E+6
  -9.24453E+5   1.11348E+6
  -9.39122E+5   1.08996E+6
  -9.56880E+5   1.06274E+6
  -9.70448E+5   1.03451E+6
  -9.81924E+5   1.00916E+6
  -9.96518E+5   9.84993E+5
  -1.01122E+6   9.60365E+5
  -1.02332E+6   9.34588E+5
  -1.03587E+6   9.09969E+5
  -1.04787E+6   8.84783E+5
  -1.05917E+6   8.58661E+5
  -1.06855E+6   8.32229E+5
  -1.07671E+6   8.06683E+5
  -1.08344E+6   7.83052E+5
  -1.09172E+6   7.59564E+5
  -1.10005E+6   7.34474E+5
  -1.10776E+6   7.09675E+5
  -1.11586E+6   6.86036E+5
  -1.12278E+6   6.59970E+5
  -1.12743E+6   6.32810E+5
  -1.13141E+6   6.07999E+5
  -1.13547E+6   5.83450E+5
  -1.13855E+6   5.58704E+5
  -1.14292E+6   5.35186E+5
  -1.14774E+6   5.10962E+5
  -1.15044E+6   4.85738E+5
  -1.15035E+6   4.61411E+5
  -1.15184E+6   4.39619E+5
  -1.15475E+6   4.16982E+5
  -1.15547E+6   3.92447E+5
  -1.15391E+6   3.68423E+5
  -1.15360E+6   3.45782E+5
  -1.15410E+6   3.23027E+5
  -1.15291E+6   2.99319E+5
  -1.15034E+6   2.75287E+5
  -1.14795E+6   2.51796E+5
  -1.14513E+6   2.29264E+5
  -1.14172E+6   2.06840E+5
  -1.13779E+6   1.83707E+5
  -1.13370E+6   1.60923E+5
  -1.12850E+6   1.39771E+5
  -1.12307E+6   1.19365E+5
  -1.11805E+6   9.83320E+4
  -1.11223E+6   7.80309E+4
  -1.10550E+6   5.90366E+4
  -1.09837E+6   4.07690E+4
  -1.09184E+6   2.19936E+4
  -1.08549E+6   2.25451E+3
  -1.07690E+6  -1.64558E+4
  -1.06745E+6  -3.44308E+4
  -1.05842E+6  -5.10970E+4
  -1.05029E+6  -6.78163E+4
  -1.04202E+6  -8.52087E+4
  -1.03235E+6  -1.02184E+5
  -1.02250E+6  -1.18110E+5
  -1.01343E+6  -1.33208E+5
  -1.00421E+6  -1.49665E+5
  -9.93239E+5  -1.65961E+5
  -9.81366E+5  -1.80533E+5
  -9.70662E+5  -1.93353E+5
  -9.61048E+5  -2.06091E+5
  -9.50645E+5  -2.19720E+5
  -9.38735E+5  -2.33632E+5
  -9.26063E+5  -2.46238E+5
  -9.14184E+5  -2.56785E+5
  -9.03521E+5  -2.67901E+5
  -8.92363E+5  -2.80847E+5
  -8.80368E+5  -2.93440E+5
  -8.67955E+5  -3.05092E+5
  -8.55141E+5  -3.16754E+5
  -8.42984E+5  -3.28181E+5
  -8.30156E+5  -3.39728E+5
  -8.16434E+5  -3.50337E+5
  -8.02691E+5  -3.58941E+5
  -7.90150E+5  -3.67326E+5
  -7.78245E+5  -3.76485E+5
  -7.66088E+5  -3.85709E+5
  -7.53140E+5  -3.94400E+5
  -7.40240E+5  -4.03166E+5
  -7.26897E+5  -4.11800E+5
  -7.12704E+5  -4.19941E+5
  -6.99273E+5  -4.26631E+5
  -6.86146E+5  -4.34053E+5
  -6.72715E+5  -4.41089E+5
  -6.59239E+5  -4.49042E+5
  -6.45433E+5  -4.57198E+5
  -6.30600E+5  -4.64850E+5
  -6.16196E+5  -4.70510E+5
  -6.02665E+5  -4.76388E+5
  -5.88885E+5  -4.82569E+5
  -5.74671E+5  -4.88460E+5
  -5.60700E+5  -4.93400E+5
  -5.47752E+5  -4.98119E+5
  -5.34296E+5  -5.03014E+5
  -5.20143E+5  -5.08118E+5
  -5.06039E+5  -5.12226E+5
  -4.92169E+5  -5.14982E+5
  -4.79257E+5  -5.17902E+5
  -4.66490E+5  -5.21541E+5
  -4.53403E+5  -5.25255E+5
  -4.39518E+5  -5.28130E+5
  -4.25785E+5  -5.29796E+5
  -4.12686E+5  -5.31713E+5
  -3.99356E+5  -5.33363E+5
  -3.86930E+5  -5.34604E+5
  -3.74112E+5  -5.35685E+5
  -3.62082E+5  -5.35979E+5
  -3.50581E+5  -5.36508E+5
  -3.38872E+5  -5.37436E+5
  -3.26632E+5  -5.38102E+5
  -3.14723E+5  -5.37576E+5
  -3.03676E+5  -5.36485E+5
  -2.92818E+5  -5.36161E+5
  -2.81546E+5  -5.35446E+5
  -2.70295E+5  -5.34452E+5
  -2.59814E+5  -5.33318E+5
  -2.49172E+5  -5.31779E+5
  -2.37986E+5  -5.30261E+5
  -2.27380E+5  -5.28143E+5
  -2.17107E+5  -5.25912E+5
  -2.07418E+5  -5.23280E+5
  -1.98350E+5  -5.21185E+5
  -1.88469E+5  -5.19433E+5
  -1.78783E+5  -5.16948E+5
  -1.69422E+5  -5.13697E+5
  -1.60733E+5  -5.10674E+5
  -1.52231E+5  -5.07859E+5
  -1.43175E+5  -5.04749E+5
  -1.34504E+5  -5.01404E+5
  -1.26009E+5  -4.97935E+5
  -1.17750E+5  -4.94569E+5
  -1.09174E+5  -4.91586E+5
  -1.00285E+5  -4.88178E+5
  -9.17406E+4  -4.83324E+5
  -8.38536E+4  -4.79190E+5
  -7.61943E+4  -4.75970E+5
  -6.81833E+4  -4.72472E+5
  -6.00576E+4  -4.68446E+5
  -5.21916E+4  -4.63949E+5
  -4.47819E+4  -4.59523E+5
  -3.76333E+4  -4.55235E+5
  -3.04257E+4  -4.50868E+5
  -2.33752E+4  -4.45764E+5
  -1.73585E+4  -4.41198E+5
  -1.14330E+4  -4.37180E+5
  -4.08953E+3  -4.33028E+5
   2.94079E+3  -4.28770E+5
   9.94385E+3  -4.23858E+5
   1.65542E+4  -4.18553E+5
   2.24871E+4  -4.13573E+5
   2.90153E+4  -4.09217E+5
   3.53714E+4  -4.04065E+5
   4.11640E+4  -3.99117E+5
   4.75114E+4  -3.94169E+5
   5.36486E+4  -3.89139E+5
   5.98933E+4  -3.83861E+5
   6.57000E+4  -3.78065E+5
   7.09600E+4  -3.72556E+5
   7.59057E+4  -3.67459E+5
   8.10851E+4  -3.62679E+5
   8.65299E+4  -3.57374E+5
   9.17332E+4  -3.51852E+5
   9.64522E+4  -3.46291E+5
   1.00960E+5  -3.40880E+5
   1.05863E+5  -3.35569E+5
   1.10820E+5  -3.30067E+5
   1.14765E+5  -3.24511E+5
   1.18553E+5  -3.19224E+5
   1.23143E+5  -3.14108E+5
   1.27695E+5  -3.08819E+5
   1.31440E+5  -3.02742E+5
   1.34915E+5  -2.97112E+5
   1.37605E+5  -2.91596E+5
   1.40883E+5  -2.86483E+5
   1.43832E+5  -2.81204E+5
   1.47340E+5  -2.75937E+5
   1.49363E+5  -2.70278E+5
   1.52196E+5  -2.65298E+5
   1.55065E+5  -2.60430E+5
   1.57564E+5  -2.54969E+5
   1.59896E+5  -2.49078E+5
   1.61202E+5  -2.43750E+5
   1.63000E+5  -2.39343E+5
   1.65484E+5  -2.34241E+5
   1.67588E+5  -2.28863E+5
   1.69169E+5  -2.23531E+5
   1.70178E+5  -2.18584E+5
   1.71181E+5  -2.13873E+5
   1.72924E+5  -2.08875E+5
   1.73775E+5  -2.03950E+5
   1.74488E+5  -1.99253E+5
   1.75358E+5  -1.94829E+5
   1.76315E+5  -1.90176E+5
   1.77250E+5  -1.85363E+5
   1.77500E+5  -1.80542E+5
   1.77957E+5  -1.75952E+5
   1.78588E+5  -1.71886E+5
   1.78720E+5  -1.67517E+5
   1.79791E+5  -1.62914E+5
   1.79437E+5  -1.58218E+5
   1.79512E+5  -1.54107E+5
   1.79770E+5  -1.49716E+5
   1.80121E+5  -1.45574E+5
   1.79803E+5  -1.40732E+5
   1.79354E+5  -1.36688E+5
   1.79082E+5  -1.33089E+5
   1.79294E+5  -1.29185E+5
   1.79395E+5  -1.24904E+5
   1.78618E+5  -1.20301E+5
   1.78154E+5  -1.16180E+5
   1.77867E+5  -1.12780E+5
   1.77573E+5  -1.08988E+5
   1.77220E+5  -1.05033E+5
   1.76791E+5  -1.00777E+5
   1.76672E+5  -9.71423E+4
   1.76242E+5  -9.30409E+4
   1.75588E+5  -8.89792E+4
   1.75037E+5  -8.48921E+4
   1.73806E+5  -8.13257E+4
   1.72923E+5  -7.82142E+4
   1.72600E+5  -7.47851E+4
   1.72291E+5  -7.06873E+4
   1.71352E+5  -6.70148E+4
   1.70112E+5  -6.36067E+4
   1.69199E+5  -6.05020E+4
   1.68065E+5  -5.72004E+4
   1.67363E+5  -5.38072E+4
   1.66279E+5  -5.04682E+4
   1.64988E+5  -4.74937E+4
   1.64474E+5  -4.45164E+4
   1.63419E+5  -4.10007E+4
   1.62061E+5  -3.72608E+4
   1.60768E+5  -3.46187E+4
   1.59315E+5  -3.18640E+4
   1.58395E+5  -2.91829E+4
   1.57389E+5  -2.60323E+4
   1.55758E+5  -2.31500E+4
   1.54576E+5  -2.05911E+4
   1.53041E+5  -1.80120E+4
   1.51968E+5  -1.52974E+4
   1.50549E+5  -1.23686E+4
   1.48647E+5  -9.95185E+3
   1.46800E+5  -7.82221E+3
   1.45605E+5  -5.94147E+3
   1.44364E+5  -3.53896E+3
   1.43039E+5  -9.31397E+2
   1.41347E+5   1.71474E+3
   1.39290E+5   3.45831E+3
   1.37850E+5   5.50062E+3
   1.36356E+5   7.56866E+3
   1.34348E+5   9.59426E+3
   1.32713E+5   1.14499E+4
   1.31125E+5   1.33345E+4
   1.29690E+5   1.54733E+4
   1.27610E+5   1.73956E+4
   1.25664E+5   1.92455E+4
   1.23784E+5   2.06031E+4
   1.22405E+5   2.21975E+4
   1.20926E+5   2.40676E+4
   1.18972E+5   2.57962E+4
   1.16871E+5   2.73760E+4
   1.14889E+5   2.89189E+4
   1.13235E+5   3.01508E+4
   1.11639E+5   3.16775E+4
   1.09708E+5   3.28870E+4
   1.07617E+5   3.42313E+4
   1.06164E+5   3.55221E+4
   1.04247E+5   3.68374E+4
   1.02608E+5   3.84107E+4
   1.00567E+5   3.95948E+4
   9.85347E+4   4.05430E+4
   9.68083E+4   4.16122E+4
   9.52208E+4   4.28702E+4
   9.35405E+4   4.39297E+4
   9.14295E+4   4.50615E+4
   8.95140E+4   4.59154E+4
   8.80939E+4   4.67490E+4
   8.60812E+4   4.77455E+4
   8.42070E+4   4.90031E+4
   8.22649E+4   4.97017E+4
   8.06709E+4   5.00398E+4
   7.91929E+4   5.09275E+4
   7.73880E+4   5.21651E+4
   7.55111E+4   5.30008E+4
   7.32495E+4   5.35940E+4
   7.19291E+4   5.41354E+4
   7.01968E+4   5.45148E+4
   6.84892E+4   5.52495E+4
   6.68211E+4   5.58434E+4
   6.51129E+4   5.62606E+4
   6.36239E+4   5.69043E+4
   6.17203E+4   5.77438E+4
   6.00515E+4   5.80771E+4
   5.79366E+4   5.83282E+4
   5.66563E+4   5.84209E+4
   5.49393E+4   5.88605E+4
   5.34177E+4   5.91805E+4
   5.18162E+4   5.97326E+4
   5.00286E+4   6.00188E+4
   4.88481E+4   6.00493E+4
   4.70544E+4   6.04378E+4
   4.55064E+4   6.04730E+4
   4.36424E+4   6.04565E+4
   4.24289E+4   6.04772E+4
   4.09370E+4   6.06415E+4
   3.94195E+4   6.09781E+4
   3.78918E+4   6.11446E+4
   3.60727E+4   6.09576E+4
   3.48059E+4   6.08564E+4
   3.36362E+4   6.06578E+4
   3.22421E+4   6.09120E+4
   3.05653E+4   6.05170E+4
   2.93239E+4   6.03076E+4
   2.81111E+4   6.02974E+4
   2.66806E+4   6.03483E+4
   2.52057E+4   6.02603E+4
   2.35972E+4   5.99713E+4
   2.24002E+4   5.93167E+4
   2.15519E+4   5.91821E+4
   2.03552E+4   5.90860E+4
   1.87935E+4   5.90664E+4
   1.76209E+4   5.86188E+4
