 
 $NMID
 ID=''
 FMTDAT='(2E13.5)'
 TRAMP=   1.00000E+0
 VOLUME=   1.00000E+0
 $END
   2.25610E+4  -8.50086E+2
   2.71542E+4  -2.18531E+4
  -1.81934E+4  -3.22682E+4
  -2.98422E+4   1.80932E+4
   1.57547E+4   3.30955E+4
   2.72514E+4  -1.27300E+4
  -9.76138E+3  -2.39877E+4
  -1.66065E+4   9.58894E+3
   9.51862E+3   1.79469E+4
   1.14066E+4  -1.70932E+3
  -7.52410E+3  -9.30415E+3
  -9.54859E+3   4.71453E+2
   3.18355E+3   8.90319E+3
   4.45173E+3   2.79446E+3
  -3.24289E+3  -7.99654E+3
  -1.98494E+3  -4.39222E+3
   3.52654E+3   5.00479E+3
   5.22246E+2   3.09366E+3
  -2.22763E+3  -2.80055E+3
   1.67636E+3  -1.68690E+3
   1.54703E+3   1.03937E+3
  -1.19854E+3   4.18772E+1
   6.00856E+2  -2.06750E+2
   8.69852E+2   4.84146E+2
  -5.07071E+2  -6.99020E+0
   6.53589E+2  -8.47157E+2
   1.19744E+3   9.81188E+2
  -5.77508E+2   1.61732E+3
  -1.41962E+3  -8.37226E+2
  -5.64193E+2  -1.15755E+3
   5.77630E+1   4.84014E+2
  -1.76297E+1   8.60540E+2
  -6.14689E+2  -1.22733E+2
  -1.53748E+3  -1.66839E+3
  -4.92984E+1  -2.69379E+3
   2.55713E+3  -8.29476E+2
   1.33514E+3   2.18884E+3
  -1.13073E+3   1.25056E+3
  -5.37983E+2  -1.26397E+3
   4.88960E+2   3.75424E+1
  -1.13938E+3   7.51084E+2
  -1.08633E+3  -1.10628E+3
   1.37931E+3  -1.59992E+3
   1.65178E+3  -1.01993E+2
  -8.80935E+1   9.38123E+2
   7.66851E+1   8.73783E+2
   2.72337E+2   1.17566E+3
  -1.46210E+3   1.46633E+2
  -2.02850E+3  -1.47876E+3
  -1.89813E+2  -1.46377E+3
   1.12072E+3  -2.49263E+2
   7.33783E+2  -2.87259E+2
   1.49927E+2  -4.20611E+2
   2.33228E+2   2.65213E+2
   5.55154E+2   5.96847E+2
  -3.86906E+2   5.11033E+2
  -1.24765E+3  -2.94213E+2
  -2.75344E+2  -1.49761E+3
   1.49971E+3  -1.08722E+3
   1.45951E+3   4.84388E+2
   1.39287E+2   8.72625E+2
  -7.95511E+1   4.10004E+2
   3.31996E+2   1.06599E+3
  -8.45268E+2   1.31270E+3
  -1.95980E+3  -3.77934E+2
  -8.90914E+2  -1.78832E+3
   1.09864E+3  -1.13417E+3
   1.31072E+3  -4.34672E+2
   7.40023E+2   1.36278E+2
   2.36072E+2   3.75839E+2
   2.41198E+2  -6.49095E+1
   3.81468E+2  -1.90131E+2
   9.21893E+2   2.96766E+2
   5.72016E+2   2.90658E+2
  -2.42535E+2   4.05118E+2
  -2.60958E+2   5.56273E+1
   1.95292E+2   6.21940E+1
   5.24241E+2   4.67284E+2
  -2.32730E+2   3.55111E+2
  -7.45891E+2  -3.15364E+2
  -4.33211E+2  -5.99569E+2
   5.06377E+2  -6.01239E+2
   6.57331E+2   5.10353E+1
  -2.43165E+1   2.38304E+1
   3.07063E+2  -4.87071E+2
   6.61083E+2  -4.37072E+2
   1.03153E+3   1.96126E+2
  -8.82214E+0   4.39571E+2
  -4.19269E+1   1.35032E+2
   3.69933E+2  -2.21273E+2
   6.95210E+2   3.24307E+2
  -1.77864E+2   6.45082E+2
  -3.22392E+2   7.58652E+2
  -7.91326E+2   4.61045E+1
  -6.42803E+2  -8.67120E+2
   1.75419E+2  -8.38728E+2
   7.89579E+2   3.54950E+1
   9.17384E+1   3.11819E+2
  -1.59936E+2  -2.07983E+2
   3.68626E+2  -5.71966E+2
   6.00253E+2   4.61727E+2
  -8.26487E+1   8.10635E+2
  -7.57784E+2  -2.36582E+2
  -1.15491E+2  -8.43538E+2
   3.98094E+2  -4.13800E+2
   4.61982E+2   6.19835E+2
  -1.11713E+2   3.28154E+2
  -8.13101E+2  -4.44647E+2
  -3.27843E+2  -9.67946E+2
   8.22461E+2  -5.26157E+2
   6.58092E+2   2.49064E+2
   1.63492E+2   6.05038E+2
  -3.17512E+2   5.15570E+2
  -2.08462E+2   4.91404E+2
  -7.19673E+1  -7.55981E+1
  -4.60330E+2   1.28426E+2
  -1.05874E+3  -1.16320E+2
  -5.21153E+2  -6.46500E+2
   4.34379E+2  -9.69450E+2
   1.05174E+3  -6.48354E+2
   6.25366E+2   2.18195E+2
   1.90123E+2   6.80081E+2
  -7.25540E+0   2.65973E+2
  -2.25324E+2   4.47005E+2
  -4.20020E+2   4.37269E+1
  -4.46547E+2   5.69964E-2
  -5.22942E+1  -3.71732E+2
   2.29877E+2  -2.26508E+2
   1.22379E+1   2.05707E+2
   4.44157E+1   6.49404E+2
  -4.60321E+2   3.12168E+2
  -5.07414E+2  -3.56480E+2
   6.11963E+1  -4.72756E+2
   2.77511E+2   1.12662E+2
  -1.53729E+2   1.08930E+2
   1.44994E+2  -3.22306E+2
   1.19004E+2  -1.83832E+2
   1.43125E+2   3.49971E+2
  -2.29975E+2   4.03033E+2
  -5.98362E+2   9.87415E+0
  -4.07315E+2  -3.06074E+2
   2.63075E+2  -4.45711E+2
   5.64457E+2   7.09109E+1
   3.96194E+2   4.24006E+2
  -4.07348E+2   4.40779E+2
  -5.91894E+2   3.76726E+1
  -3.29760E+2  -1.43556E+2
  -1.32501E+2  -2.68010E+2
  -8.99283E+1  -3.82553E+2
  -1.70050E+2  -3.80478E+2
   7.02211E+1  -4.93048E+2
   5.79178E+2  -1.11412E+2
   2.15791E+2   4.31008E+2
  -5.08752E+0   5.30044E+2
  -2.08262E+2   1.46385E+2
  -2.17328E+2  -2.27871E+2
  -4.44212E+1   3.41987E+1
  -8.05745E+1   2.54101E+2
  -2.48909E+2  -1.59819E+0
   4.88900E+1  -1.93092E+2
  -2.17522E+2   1.61107E+2
  -4.10366E+2   2.26772E+2
   3.78035E+1  -2.22284E+1
  -6.33002E+1  -1.40106E+2
   1.45639E+2  -3.71652E+2
   1.75548E+2   9.18178E+1
   2.34447E+2   4.70096E+1
  -2.11981E+2   1.46521E+2
  -3.33691E+2  -1.04155E+2
   2.03733E+2  -1.14925E+2
   6.39081E+1   6.74733E+1
  -1.29011E+2   1.25407E+2
  -3.77542E+2  -4.60042E+1
  -1.27159E+2   1.60178E+1
   1.24677E+2  -2.24748E+2
  -9.02040E+1   1.51668E+1
  -3.63771E+2   1.64412E+2
  -5.39989E+2   4.79020E+1
   1.39686E+2  -2.96166E+2
   2.03059E+2  -8.90729E+1
   2.73324E+2   2.49121E+2
  -2.82684E+2   3.02394E+2
  -3.33920E+2  -1.13133E+2
  -1.63676E+2  -1.98756E+2
  -1.84281E+2  -2.29737E+2
   3.16429E+1  -8.64690E+1
  -6.48552E+1   8.52703E+1
   1.23674E+2  -1.73482E+2
   2.97329E+2   6.55988E+1
   1.92416E+2   6.05330E+2
  -2.63932E+2   7.57556E+2
  -7.49450E+2   2.51530E+2
  -3.32273E+2  -2.58470E+2
  -2.45688E+1  -2.01737E+2
   3.43797E+2   5.97449E+1
   1.02124E+2   6.76391E+1
  -2.59704E+2   1.99163E+2
  -2.99516E+1   7.76765E+1
  -2.10921E+2   1.97289E+2
  -1.45421E+2   7.55639E+1
  -3.48360E+2  -6.63012E+1
   5.66753E+0  -3.67548E+2
   3.11332E+2  -1.20377E+2
   8.71562E+1  -9.86282E+1
   8.47443E+1   8.85302E+1
  -1.86538E+2   6.11524E+1
  -1.16455E+2  -1.25558E+2
   5.72198E+1  -1.83016E+2
   3.32948E+2  -6.75432E+1
  -1.21182E+2   1.21854E+2
  -2.13468E+2  -1.25004E+2
   3.21259E+2   1.27095E+1
   1.89972E+2   2.27395E+2
  -4.75276E+2   5.11219E+2
  -6.87045E+2  -1.78977E+1
  -2.92825E+2  -3.79338E+2
   3.09592E+2  -4.21582E+2
   1.61135E+2  -2.54957E+2
   1.19489E+2  -8.05594E+1
  -1.38574E+2  -4.50601E+2
   5.79162E+1   1.37447E+2
   5.47423E+1   1.95305E+2
  -2.10574E+2   9.99602E+1
  -3.59918E+2   2.34205E+2
  -4.87578E+2  -2.98414E+2
  -1.41776E+2  -3.90749E+2
   3.54393E+2   1.89122E+2
  -2.39297E+1   1.54621E+2
  -1.77209E+1   3.01068E+2
  -2.70708E+2   2.51834E+1
  -1.67995E+2  -4.63664E+2
   2.30182E+2   2.05428E+1
  -1.00858E+2  -7.30366E+1
  -2.61527E+2   2.48699E+2
   5.45111E+1  -2.25637E+2
  -1.76252E+2  -2.99270E+2
   1.17801E+2  -3.33052E+1
  -1.63169E+2  -1.61477E+2
  -1.59617E+2  -3.89673E+2
   9.11083E+1  -4.02021E+1
  -2.44626E+0   3.23238E+0
   8.56874E+0   1.90479E+2
  -2.53132E+2   3.87573E+1
  -2.55324E+2  -2.27734E+2
  -1.58648E+2   6.27048E+1
   2.10140E+2   9.48519E+1
  -1.64292E+2   1.02165E+2
  -2.42470E+2  -2.00424E+2
  -6.00936E+1  -2.51330E+2
   1.92546E+2  -3.35108E+1
  -3.82584E+0   4.51461E+1
  -2.38925E+2   1.64483E+2
  -1.97970E+2  -3.83866E+2
   1.12456E+2  -2.53570E+2
   2.39587E+2   3.40850E+1
  -1.94105E+1   1.16416E+2
   1.72988E+2   1.71884E+2
  -1.76863E+2  -1.67973E+1
  -2.25349E+2  -7.36390E+1
  -2.40954E+2   1.27667E+2
  -1.80465E+2   1.17741E+2
  -9.67957E+1  -1.49508E+1
  -3.90006E+1  -3.26145E+2
   1.08611E+2  -9.20482E+1
   1.97637E+2   1.33618E+2
  -1.55366E+2   2.82179E+1
  -1.82998E+2  -1.35976E+2
  -1.56544E+2  -2.18991E+2
  -1.43066E+1  -2.52020E+1
   1.94061E+2   8.69999E+1
   2.57104E+1   5.88652E+1
   2.33325E+2   4.49739E+1
   5.27507E+1  -2.30144E+2
  -5.57980E+1   7.28525E+1
  -1.93759E+1  -6.52767E+1
  -9.52387E+1  -9.10756E+1
  -1.72338E+2  -1.17721E+2
  -5.11352E+1   3.04356E+1
   2.36860E+2  -1.68124E+1
  -1.64726E+2   2.33962E+2
  -2.35826E+2   1.14026E+2
   3.81677E+1  -1.41580E+2
   1.08518E+1  -1.20745E+2
  -1.04187E+2   3.53264E+1
  -2.55887E+2  -3.72270E+1
   2.97673E+1  -1.83410E+2
   1.21711E+2  -1.19207E+2
   6.00897E+1   8.69639E+1
  -7.46089E+1   2.96115E+2
  -2.03186E+2   3.36570E+2
  -2.97601E+2  -2.32531E+1
  -1.38488E+1  -1.44901E+2
   4.65075E+1   1.73002E+2
   8.23561E+1  -4.11824E+1
  -9.54758E+1  -1.69500E+2
  -3.41390E+1   5.10440E+1
   5.72425E+1   1.47037E+2
   1.74057E+2   7.86548E+1
   5.43409E+1   7.81419E+1
  -1.86715E+2  -1.32453E+2
  -1.13464E+1  -2.16428E+2
  -8.97179E+1   1.93954E+2
  -1.91546E+2   1.55922E+2
  -2.65011E+2  -2.79265E+0
  -1.35478E+2  -1.78427E+2
  -2.18142E+1  -2.46945E+2
   3.16677E+1   1.57267E+2
   1.53375E+2  -7.60193E+1
  -1.16664E+2   1.85836E+2
   1.06922E+2   5.77231E+0
   1.57499E+2   8.18599E+1
   1.32242E+2   4.55486E+1
  -1.77844E+2   2.68698E+1
  -2.62527E+2  -3.98744E+1
  -4.28965E+1  -3.39502E+2
  -1.61711E+2  -5.47223E+1
   5.15417E+1   1.01061E+2
  -4.82232E+2   3.55961E+2
  -7.47454E-1  -3.35045E+2
  -2.25933E+2  -1.37180E+2
   8.93391E+1   1.42220E+2
  -1.33679E+2   6.67772E+1
  -1.21550E+2  -3.72856E+1
   1.79261E+1  -1.88032E-2
   4.35772E+1  -4.03446E+1
  -1.97614E+2   1.56562E+2
  -4.77084E+1   1.49886E+1
  -1.87259E+2  -2.62843E+1
   1.46635E+0  -2.13442E+2
   1.18879E+1  -8.28881E+1
  -5.83666E+1   1.52470E+2
  -5.13847E+1  -1.43498E+2
   1.67714E+1   5.14101E+1
  -6.99539E+1  -5.37296E+1
  -6.78423E+1   2.59585E+1
  -2.58885E+2   3.26491E+1
  -1.86609E+2  -1.09072E+2
   1.04430E+1  -2.40838E+2
  -7.58344E+1  -1.45062E+2
   1.09138E+2   6.13976E+1
  -1.18533E+2   2.15420E+2
  -6.56898E+1   1.60908E+2
  -1.37919E+2   1.46630E+2
  -1.05972E+2   8.51900E+1
  -7.31063E+1   2.78362E+0
  -1.53631E+2  -2.78571E+1
   2.56468E+1   1.96291E+1
   6.00228E+1  -8.81217E+1
   1.90375E+2   2.27849E+2
  -1.55996E+2   2.29790E+1
  -7.22996E+1  -1.13434E+2
  -7.65644E+1   1.60519E+1
  -4.00302E+1   1.49737E+1
   8.67994E+1   1.14556E+2
  -9.75460E+0   1.32018E+2
   2.33820E+1  -2.26684E+1
  -1.23673E+2   5.11762E+1
   2.28119E+2   1.23995E+2
  -1.06027E+2  -1.12114E+2
  -1.64255E+2   7.30429E+1
  -1.11301E+2  -2.21348E+2
   1.16036E+2  -1.86561E+2
   2.62384E+1  -9.28591E+1
   1.03411E+2   2.33867E+2
   4.14024E+1   2.58764E+2
   3.67159E+0  -7.79150E+1
   1.09497E+2  -3.02577E+2
