 
 $NMID
 ID=''
 FMTDAT='(2E13.5)'
 TRAMP=   1.00000E+0
 VOLUME=   1.00000E+0
 $END
  -1.79481E+4   1.45202E+4
   9.35340E+3   2.13241E+4
   2.99197E+4  -1.20734E+4
  -4.19956E+3  -2.72722E+4
  -3.19017E+4   2.13774E+3
  -4.03710E+3   2.28913E+4
   2.56036E+4   6.69845E+3
   1.16828E+4  -1.41520E+4
  -1.34560E+4  -1.07363E+4
  -1.39005E+4   8.73453E+3
   3.32142E+3   1.46093E+4
   1.14606E+4  -1.05200E+3
   8.93662E+2  -1.14774E+4
  -9.48957E+3  -3.03320E+3
  -4.36132E+3   4.96496E+3
   5.55488E+3   2.66172E+3
   5.76072E+3  -1.71994E+3
  -6.32688E+2  -3.20526E+3
  -3.74748E+3  -7.39995E+2
  -1.28074E+3   2.25212E+3
   1.47719E+3   6.77288E+2
   2.00798E+3  -1.69490E+3
   3.93444E+2   1.39891E+2
  -1.98594E+3   3.61229E+2
  -1.15962E+3  -1.30526E+3
   2.12061E+3   4.28205E+2
   1.17925E+3   2.43265E+3
  -2.41747E+3  -3.85900E+2
  -1.06043E+3  -2.02759E+3
   8.55889E+2   6.74403E+2
  -6.39087E+2   2.08330E+3
  -1.29250E+3  -1.83278E+2
  -1.22025E+2  -1.67985E+3
  -4.90768E+2  -1.29775E+3
  -3.28033E+2  -9.60449E+2
   1.72779E+3   9.08678E+1
   1.36195E+3   1.68191E+3
  -9.06063E+2   8.30004E+2
  -7.62306E+2  -9.66660E+2
   2.77731E+2  -2.45282E+2
  -8.23410E+2   9.27395E+2
  -7.06204E+2  -8.15916E+2
   1.36345E+3  -1.16742E+3
   1.43620E+3   4.77290E+2
  -1.18173E+1   1.31963E+3
  -5.18820E+2   1.17422E+3
  -1.39324E+2   1.25300E+3
  -9.67273E+2  -2.85844E+2
  -6.55819E+2  -1.82259E+3
   8.05944E+1  -1.43874E+3
   8.36881E+2   5.64463E+1
   8.62429E+2  -2.90461E+1
   7.66998E+2  -3.37282E+2
   2.16413E+2   4.24052E+1
  -1.44971E+2   8.61256E+2
  -1.71979E+2   4.19925E+2
  -4.17746E+2  -6.69252E+2
   1.87379E+1  -1.36375E+3
   1.29584E+3  -5.03286E+2
   7.17469E+2   5.80853E+2
   1.55521E+2   7.27095E+2
   1.50906E+2   7.16155E+2
  -2.67807E+2   8.29022E+2
  -1.49463E+3  -2.23231E+1
  -1.64226E+3  -1.16937E+3
  -4.31894E+1  -1.27552E+3
   1.00459E+3  -9.88636E+2
   1.33757E+3  -4.20916E+2
   7.93112E+2   5.38957E+2
  -2.93588E+2   7.25077E+2
  -1.32022E+2   8.11470E+1
   7.06711E+2  -2.56895E+2
   6.35160E+2   5.94707E+2
  -4.57440E+2   7.12947E+2
  -6.65034E+2   2.65982E+2
  -7.47425E+0  -2.06326E+2
  -8.29567E+1   2.30168E+2
  -3.42306E+2   6.98533E+2
  -4.00321E+2   2.43334E+2
  -5.05236E+2  -2.48780E+2
  -1.35804E+2  -5.62334E+2
   3.94895E+2  -4.00094E+2
   4.80324E+2   1.46179E+1
   5.52302E+0   6.84152E+1
   1.85831E+2  -3.63770E+2
   6.05184E+2  -1.78447E+2
   5.95902E+2   6.73414E+2
  -7.07785E+1   3.74436E+2
  -1.26384E+1   1.03133E+2
   4.10264E+2   2.86738E+2
   5.08623E+2   6.63341E+2
  -2.17690E+2   7.39893E+2
  -7.93788E+2   2.82992E+2
  -8.26767E+2  -2.16527E+2
   9.18005E+0  -7.75190E+2
   6.82180E+2  -3.19591E+2
   4.47931E+2   3.36089E+2
  -9.79264E+1   1.71290E+2
   9.07591E+1  -2.94491E+2
   6.40313E+2   9.26260E+1
   4.76280E+2   9.69853E+2
  -6.58796E+2   5.71362E+2
  -7.84594E+2  -5.83731E+2
   4.19253E+2  -4.88941E+2
   5.85670E+2   1.58571E+2
   7.26675E+1   6.88453E+2
  -3.56026E+2   2.28223E+2
  -6.84590E+2  -4.31032E+2
   7.76060E+1  -9.84258E+2
   8.30370E+2  -3.56325E+2
   4.05459E+2   5.92029E+2
   1.03541E+2   7.87083E+2
  -5.25564E+2   3.52296E+2
  -1.32095E+2   3.23180E+2
  -1.76749E+2   2.74417E+2
  -4.04047E+2   2.79515E+2
  -5.97102E+2  -5.45471E+2
  -7.36733E+1  -1.09312E+3
   6.81627E+2  -6.94106E+2
   7.37526E+2   1.02297E+2
   5.64854E+2   6.64785E+2
   1.50091E+2   3.21354E+2
   2.47448E+2   4.18524E+2
  -1.77126E+2   2.33563E+2
  -4.59446E+2  -4.04322E+1
  -3.04206E+2  -3.60590E+2
   2.40207E+2  -1.97207E+2
   5.20736E+2   1.30695E+2
   2.24308E+2   3.12289E+2
  -1.63142E+2   3.64203E+2
  -6.62033E+2   7.04954E+1
  -1.60215E+2  -3.74891E+2
   2.48232E+2  -1.77102E+2
   2.19147E+2  -8.34160E+1
   1.38465E+2   5.51755E+0
   1.37751E+2  -3.51010E+2
   1.71678E+2   1.45429E+2
   1.60670E+2   7.04977E+2
  -3.15893E+2   5.02156E+2
  -5.65400E+2  -1.53372E+2
  -3.14410E+2  -4.35189E+2
   3.74658E+2  -3.91249E+2
   3.03634E+2   3.37120E+2
   5.16955E+1   4.56761E+2
  -4.68382E+2   2.34492E+2
  -2.96551E+2  -1.60030E+2
  -2.53115E+2  -1.78583E+2
  -2.27889E+2  -1.13942E+2
  -2.92113E+1  -5.64918E+2
  -4.86624E+1  -2.99242E+2
   2.69222E+2  -4.20007E+1
   6.23152E+2   1.66711E+2
   1.86363E+2   8.51585E+2
  -3.29697E+2   1.50739E+2
  -3.16416E+2  -1.08693E+1
   1.49946E+2  -4.30934E+2
  -1.34742E+2   2.79805E+2
  -2.39396E+2   2.38503E+2
  -2.32939E+2   1.37911E+1
  -2.06738E+2  -1.65007E+2
  -9.12467E+1   1.42597E+2
  -2.43973E+2   1.68560E+2
  -1.74328E+2  -2.53845E+2
   6.53718E+1  -4.69103E+2
   3.80855E+2  -1.79761E+2
   1.79016E+2   1.28274E+2
  -1.87566E+2   9.71182E+1
  -2.20332E+2  -3.17546E+1
  -3.36716E+1  -2.00353E+2
   3.02237E+1  -1.58976E+1
  -6.99877E+1   3.07964E+1
  -1.75982E+2  -1.68937E+1
  -2.74411E+2  -2.79887E+2
   1.02955E+2  -1.19001E+2
   8.17649E+1  -7.95035E+1
  -2.00893E+2   1.14398E+2
  -3.29387E+2  -6.53064E+1
  -2.59550E+2  -3.82281E+2
   2.29188E+2  -2.66110E+2
   4.93339E+2   1.98719E+2
  -9.92162E+0   2.58664E+2
  -4.14055E+2   2.96314E+1
  -3.66510E+2  -2.20298E+2
  -1.43918E+2  -2.21391E+2
  -9.51967E+1  -4.51814E+2
   6.88251E+1   2.08756E+2
   2.23335E+2  -1.61847E+2
   2.63554E+2  -5.18473E+1
   4.00651E+2   3.11181E+2
  -2.82209E+2   5.08272E+2
  -5.71267E+2   3.85808E+2
  -3.24944E+2  -3.74842E+2
  -1.11898E+2  -3.71997E+2
   4.10901E+2  -2.80358E+2
   5.84349E+1   1.26296E+2
   1.17025E+2   1.06291E+2
  -1.51217E+2   9.06754E+1
   4.87592E+1   5.23920E+1
  -1.97439E+2  -1.84440E+1
  -2.09673E+2  -7.78580E+1
  -4.31455E+1  -5.13312E+2
   6.28449E+1  -3.53007E+2
   6.04940E+2   4.76745E+1
   2.22496E+2   1.51951E+2
  -1.04009E+2  -6.76441E+1
  -1.24575E+2  -1.58504E+1
   1.35952E+2  -2.88096E+2
  -3.48418E+1  -1.47454E+1
  -1.56043E+2  -2.35466E+2
  -1.67003E+2  -1.56936E+2
   1.53687E+2  -1.58963E+2
  -3.89214E+1  -1.06127E+1
  -3.09036E-1   2.35687E+2
  -5.66012E+2   1.07262E+2
  -6.14739E+2  -4.12614E+2
  -1.53547E+2  -6.56783E+2
   6.89051E+1  -3.89860E+2
   1.00549E+2  -8.88650E+1
   1.05920E+2   3.12546E+1
  -2.01080E+2  -2.28590E+2
   1.89965E+2  -2.33408E+0
   9.19486E+1   6.35134E+1
  -3.44125E+2   8.39199E+1
  -4.41407E+2   6.63604E+1
  -3.43299E+1  -4.91195E+2
   7.85050E+1  -2.40203E+2
   7.73287E+0   9.83293E+1
  -2.66637E+1   2.56971E+2
  -4.68405E+2  -4.57073E+0
  -3.46458E+1  -3.09993E+2
   1.92334E+2  -1.59445E+2
   1.64524E+2  -7.15104E+1
  -3.71988E+1  -1.30109E+1
  -1.95781E+2  -3.51989E+1
   2.00444E+1   8.74204E+1
  -5.47879E+0  -2.87786E+1
   4.09758E+0   7.20129E+1
  -3.02862E+2   8.48386E+1
   1.48220E+2  -1.52002E+2
   1.70787E+2  -6.91454E+0
   6.36325E-1  -2.78101E+1
  -1.53511E+2   1.98635E+2
  -2.53018E+2  -1.26305E+2
  -2.14046E+2  -1.38991E+2
  -2.15664E+1   2.55509E+1
   2.12396E+2   2.26314E+2
  -2.55294E+2  -1.09184E+1
  -5.61836E+1  -5.84338E+1
  -1.34866E+1   1.72654E+2
   3.45505E+1   1.23656E+2
  -6.55114E+1   2.03378E+2
  -4.08433E+2   1.10634E+2
   4.47161E+1  -4.52977E+2
  -5.93684E+1  -2.13110E+2
   3.02752E+2   1.90393E+2
   1.32582E+2   1.52913E+2
  -2.80353E+2   1.93340E+2
   1.07746E+2   7.55920E+1
  -1.77215E+2   8.54452E+1
  -2.17534E+2  -1.27622E+2
  -1.19779E+2   2.36187E+2
  -8.18696E+1  -1.61209E+1
   1.51681E+2  -2.30419E+2
   2.68328E+2   1.48821E+2
  -1.18186E+0   4.80945E+2
   3.32166E+1   8.54343E+1
  -1.52019E+1   3.71690E+1
  -5.11183E+1  -2.29807E+2
   2.72726E+2  -3.73304E+1
   4.01164E+1   8.13457E+0
   2.32944E+2   4.56592E+1
   2.18858E+2   8.98757E+1
  -6.43145E+1   9.76868E+1
  -6.61438E+1   1.42625E+2
  -1.89717E+1   6.67685E+1
  -1.28900E+2  -5.60436E+1
   1.94881E+2   7.76138E+1
   2.96893E+2  -1.72443E+0
   1.32520E+2   2.94039E+1
   1.69238E+2   8.95272E+1
   3.98586E+1   1.23747E+1
  -6.95167E+0   5.84569E+1
  -1.42132E+2   9.82637E+1
  -1.19428E+2   2.22584E+2
   1.80246E+2  -1.02796E+2
  -9.12328E+1  -2.07239E+2
  -1.06181E+1  -7.40060E+1
   3.47588E+2   1.20923E+2
  -7.27726E+1   7.95600E+1
   2.78049E+1   1.26818E+2
   9.62374E+1  -1.01956E+2
   1.57117E+2   1.72534E+2
   1.03730E+2   1.56346E+2
   2.13814E+2   3.70584E+1
   1.94320E+2  -3.73809E+2
   1.61268E+2   1.69785E+2
   2.35293E+2   3.74882E+1
  -4.94011E+1   2.86178E+2
  -1.64438E+2  -6.39079E+1
  -1.34918E+1   4.81562E+1
   9.35303E+1  -1.26597E+2
   1.19546E+2   6.29659E+1
   6.57040E+1   9.07341E+1
  -2.01420E+2  -4.37814E+1
   1.72815E+2  -5.53119E+1
   1.86860E+2  -1.92290E+2
   1.96650E+2   1.86222E+2
   1.51118E+2   1.06456E+2
   3.61639E+1   3.90055E+1
   3.65848E+1  -2.42164E+1
  -1.44931E+2   2.33658E+2
   2.22982E+1   1.01769E+2
   2.13682E+1  -4.94556E+1
   1.60077E+1  -1.49577E+2
   8.99981E+1  -2.25213E+2
   2.66953E+1   8.75386E+1
   1.37830E+2  -1.22440E+2
   2.84575E+2   8.23784E-1
  -7.73930E+1  -2.78176E+2
   2.04714E+2  -1.02153E+2
   3.19534E+1   9.52629E+1
  -1.12207E+2  -1.24052E+2
  -9.92406E+1  -1.41587E+2
   1.32066E+2  -8.04534E+1
  -5.27847E+0   5.25465E+1
  -1.26041E+2   2.46386E+2
   7.29030E+1  -1.64551E+2
  -1.40764E+2   4.76347E+1
   6.75770E+1  -1.02877E+1
   6.62765E+1  -1.76972E+1
   2.90065E+2  -1.65038E+2
  -1.90636E+1   6.80503E+1
   1.47125E+2   9.94375E+1
   6.27938E+1   1.17079E+1
  -1.62449E+2   3.36216E+2
  -6.53290E+1   1.15162E+2
   1.07598E+2  -9.96982E+1
   1.98670E+2   1.19556E+2
   1.68580E+2  -7.62309E+1
  -2.15127E+1  -7.69281E+0
  -9.35665E+0   1.39454E+2
  -1.43135E+2   2.48410E+2
   2.86220E+1   9.84015E+1
  -7.12723E+1   2.04390E+1
  -3.99456E+1   1.61327E+2
   5.30441E+0   2.34445E+1
  -2.53643E+1  -2.29153E+1
   1.49695E+2   2.14134E+2
   1.13230E+2   1.16784E+2
  -3.23055E+1  -1.94287E+2
   4.50293E+1   5.44686E+0
   2.25729E+2  -8.25991E+1
  -5.31914E+1  -1.36294E+2
   1.20039E+2   1.12025E+1
   1.88486E+2   6.67916E+1
   4.15697E+0  -6.94101E+1
   2.88217E+2   1.67556E+1
  -3.17081E+1   1.36228E+2
  -1.29177E+2   2.08035E+2
  -6.06147E+1   1.12917E+2
  -8.62222E+1  -2.21158E+2
   2.36574E+2  -1.29280E+1
   2.41939E+2  -2.39498E+0
  -2.22918E+1   2.51598E+2
  -2.32257E+1   2.49844E+2
  -8.19229E+1   4.35403E+1
   1.02886E+2   7.72781E+1
