 LCModel (Version 6.3-1N) Copyright: S.W. Provencher.          Ref.: Magn. Reson. Med. 30:672-679 (1993).                
 Slice_N1@13_9  28-Feb-2025 11:39:48
 27 lines in following concentration table = NCONC+1
    Conc.  %SD /Cr+PCr  Metabolite                                         
 2.56E-04   8% 3.9E-04 Mac                                                 
    1.770 121%   2.722 Cr                                                  
    3.433  63%   5.278 PCr                                                 
    2.388  47%   3.672 Ins                                                 
    7.217  17%  11.096 NAA                                                 
    3.337  35%   5.131 Tau                                                 
    0.000 999%   0.000 PCho                                                
    0.369 101%   0.567 GPC                                                 
   10.007  16%  15.385 Glu                                                 
    1.887  48%   2.901 Gln                                                 
    0.000 999%   0.000 Ala                                                 
    0.000 999%   0.000 Asc                                                 
    1.896  56%   2.915 Asp                                                 
    0.000 999%   0.000 GABA                                                
    0.150 463%   0.231 Glc                                                 
    0.295 165%   0.454 GSH                                                 
    2.101  42%   3.230 Lac                                                 
    2.744  33%   4.219 NAAG                                                
    1.603  91%   2.464 PE                                                  
    0.369 101%   0.567 GPC+PCho                                            
    9.961  13%  15.315 NAA+NAAG                                            
   11.893  15%  18.286 Glu+Gln                                             
    5.203  20%   8.000 Cr+PCr                                              
    9.961  13%  15.315 NAA+NAAG                                            
    5.203  20%   8.000 Cr+PCr                                              
   11.893  15%  18.286 Glu+Gln                                             
   6 lines in following misc. output table
  FWHM = 0.049 ppm    S/N =   2                                            
  Data shift =-0.024 ppm                                                   
  Ph: 174 deg       0.0 deg/ppm                                            
  alphaB,S = 1.6E-01,   1.2E+01                                            
   19 spline knots.   Ns = 7(1)                                            
  (12) 2 infls.   (10) 2 extrs.                                            
  480 points on ppm-axis = NY
      4.100000     4.091866     4.083733     4.075600     4.067466     4.059333     4.051199     4.043066     4.034933     4.026799
      4.018666     4.010532     4.002399     3.994265     3.986132     3.977998     3.969864     3.961731     3.953597     3.945463
      3.937330     3.929196     3.921062     3.912929     3.904795     3.896662     3.888528     3.880394     3.872261     3.864127
      3.855993     3.847860     3.839726     3.831592     3.823459     3.815325     3.807191     3.799058     3.790924     3.782790
      3.774657     3.766523     3.758389     3.750256     3.742122     3.733989     3.725855     3.717721     3.709588     3.701454
      3.693320     3.685187     3.677053     3.668919     3.660786     3.652652     3.644518     3.636385     3.628251     3.620117
      3.611984     3.603850     3.595716     3.587583     3.579449     3.571316     3.563182     3.555048     3.546915     3.538781
      3.530647     3.522514     3.514380     3.506246     3.498113     3.489979     3.481845     3.473712     3.465578     3.457444
      3.449311     3.441177     3.433043     3.424910     3.416776     3.408643     3.400509     3.392375     3.384242     3.376108
      3.367974     3.359841     3.351707     3.343573     3.335440     3.327306     3.319172     3.311039     3.302905     3.294771
      3.286638     3.278504     3.270370     3.262237     3.254103     3.245970     3.237836     3.229702     3.221569     3.213435
      3.205301     3.197168     3.189034     3.180900     3.172767     3.164633     3.156499     3.148366     3.140232     3.132098
      3.123965     3.115831     3.107697     3.099564     3.091430     3.083297     3.075163     3.067029     3.058896     3.050762
      3.042628     3.034495     3.026361     3.018227     3.010094     3.001960     2.993826     2.985693     2.977559     2.969425
      2.961292     2.953158     2.945024     2.936891     2.928757     2.920624     2.912490     2.904356     2.896223     2.888089
      2.879955     2.871822     2.863688     2.855554     2.847421     2.839287     2.831153     2.823020     2.814886     2.806752
      2.798619     2.790485     2.782351     2.774218     2.766084     2.757951     2.749817     2.741683     2.733550     2.725416
      2.717282     2.709149     2.701015     2.692881     2.684748     2.676614     2.668480     2.660347     2.652213     2.644079
      2.635946     2.627812     2.619678     2.611545     2.603411     2.595278     2.587144     2.579010     2.570877     2.562743
      2.554609     2.546476     2.538342     2.530208     2.522075     2.513941     2.505807     2.497674     2.489540     2.481406
      2.473273     2.465139     2.457006     2.448872     2.440738     2.432605     2.424471     2.416337     2.408204     2.400070
      2.391936     2.383803     2.375669     2.367535     2.359402     2.351268     2.343134     2.335001     2.326867     2.318733
      2.310600     2.302466     2.294333     2.286199     2.278065     2.269932     2.261798     2.253664     2.245531     2.237397
      2.229263     2.221130     2.212996     2.204862     2.196729     2.188595     2.180461     2.172328     2.164194     2.156060
      2.147927     2.139793     2.131660     2.123526     2.115392     2.107259     2.099125     2.090991     2.082858     2.074724
      2.066590     2.058457     2.050323     2.042189     2.034056     2.025922     2.017788     2.009655     2.001521     1.993387
      1.985254     1.977120     1.968987     1.960853     1.952719     1.944586     1.936452     1.928318     1.920185     1.912051
      1.903917     1.895784     1.887650     1.879516     1.871383     1.863249     1.855115     1.846982     1.838848     1.830714
      1.822581     1.814447     1.806314     1.798180     1.790046     1.781913     1.773779     1.765645     1.757512     1.749378
      1.741244     1.733111     1.724977     1.716843     1.708710     1.700576     1.692442     1.684309     1.676175     1.668041
      1.659908     1.651774     1.643641     1.635507     1.627373     1.619240     1.611106     1.602972     1.594839     1.586705
      1.578571     1.570438     1.562304     1.554170     1.546037     1.537903     1.529769     1.521636     1.513502     1.505368
      1.497235     1.489101     1.480968     1.472834     1.464700     1.456567     1.448433     1.440299     1.432166     1.424032
      1.415898     1.407765     1.399631     1.391497     1.383364     1.375230     1.367096     1.358963     1.350829     1.342695
      1.334562     1.326428     1.318295     1.310161     1.302027     1.293894     1.285760     1.277626     1.269493     1.261359
      1.253225     1.245092     1.236958     1.228824     1.220691     1.212557     1.204423     1.196290     1.188156     1.180022
      1.171889     1.163755     1.155622     1.147488     1.139354     1.131221     1.123087     1.114953     1.106820     1.098686
      1.090552     1.082419     1.074285     1.066151     1.058018     1.049884     1.041750     1.033617     1.025483     1.017349
      1.009216     1.001082     0.992949     0.984815     0.976681     0.968548     0.960414     0.952280     0.944147     0.936013
      0.927879     0.919746     0.911612     0.903478     0.895345     0.887211     0.879077     0.870944     0.862810     0.854676
      0.846543     0.838409     0.830276     0.822142     0.814008     0.805875     0.797741     0.789607     0.781474     0.773340
      0.765206     0.757073     0.748939     0.740805     0.732672     0.724538     0.716404     0.708271     0.700137     0.692003
      0.683870     0.675736     0.667603     0.659469     0.651335     0.643202     0.635068     0.626934     0.618801     0.610667
      0.602533     0.594400     0.586266     0.578132     0.569999     0.561865     0.553731     0.545598     0.537464     0.529330
      0.521197     0.513063     0.504930     0.496796     0.488662     0.480529     0.472395     0.464261     0.456128     0.447994
      0.439861     0.431727     0.423593     0.415460     0.407326     0.399192     0.391059     0.382925     0.374792     0.366658
      0.358524     0.350391     0.342257     0.334124     0.325990     0.317856     0.309723     0.301589     0.293455     0.285322
      0.277188     0.269055     0.260921     0.252787     0.244654     0.236520     0.228386     0.220253     0.212119     0.203986
 NY phased data points follow
  -8.68929E+01 -7.01047E+01 -7.71230E+01 -7.67885E+01 -9.14642E+01 -7.78457E+01 -7.23532E+01 -9.05068E+01 -9.17594E+01 -9.34933E+01
  -8.75002E+01 -1.07834E+02 -9.79112E+01 -9.77661E+01 -1.05249E+02 -1.10080E+02 -1.17594E+02 -1.14725E+02 -1.43228E+02 -1.42300E+02
  -1.38879E+02 -1.45355E+02 -1.53841E+02 -1.45895E+02 -1.41380E+02 -1.26951E+02 -8.82874E+01 -8.04753E+01 -7.06266E+01 -6.92925E+01
  -5.04105E+01 -6.01885E+01 -6.87392E+01 -5.32282E+01 -6.83281E+01 -5.26121E+01 -3.83655E+01 -4.59415E+01 -5.68104E+01 -6.15998E+01
  -7.96281E+01 -8.59749E+01 -9.49339E+01 -1.15966E+02 -9.85110E+01 -9.67447E+01 -9.69367E+01 -7.00629E+01 -3.31145E+01 -1.81679E+01
  -1.48840E+01  2.75487E+00  2.64473E+00 -7.80035E+00 -1.53933E+01 -1.99840E+01 -3.21660E+01 -5.45519E+01 -4.95614E+01 -5.25548E+01
  -7.25758E+01 -4.36415E+01 -3.78434E+01 -4.75389E+01 -3.98134E+01 -3.87709E+01 -1.03356E+01 -1.94329E+01 -2.71525E+01 -1.23394E+01
  -4.11543E+01 -4.85239E+01 -3.46935E+01 -3.84783E+01 -5.25167E+01 -5.27048E+01 -2.04570E+01 -2.08031E+01 -1.70224E+01  7.86881E+00
  -9.57388E+00 -1.63399E+01 -1.89083E+01 -2.99076E+01 -3.74302E+01 -3.14516E+01 -2.92421E+01 -3.35949E+01 -2.83713E+01 -3.40993E+01
  -1.73438E+01 -1.27120E+01 -2.65117E+01 -3.02064E+01 -2.97828E+00 -1.96631E+00  5.10327E+00  3.38402E+01 -3.00248E+00  2.77392E+01
   1.75413E+01 -1.41319E+01  2.79192E+01  2.81942E-02 -1.71304E+01 -2.28027E+01 -4.13940E+01 -3.98116E+01 -4.88556E+01 -8.02482E+01
  -9.31271E+01 -1.06520E+02 -1.30796E+02 -1.32202E+02 -1.36235E+02 -1.24391E+02 -1.32240E+02 -1.11111E+02 -6.45640E+01 -7.81214E+01
  -7.59545E+01 -6.15015E+01 -5.55339E+01 -5.16429E+01 -5.07083E+01 -1.88831E+01 -1.76112E+01 -1.44488E+01  9.05599E+00  1.40143E+00
   3.84355E+01  5.66288E+01  3.31746E+01  8.46497E+00 -1.50606E+01 -3.75162E+01 -6.95046E+01 -8.87035E+01 -1.47343E+02 -1.48864E+02
  -1.10556E+02 -9.71288E+01 -9.74942E+01 -1.29572E+02 -1.20232E+02 -1.20966E+02 -1.25063E+02 -1.16844E+02 -1.04276E+02 -9.72772E+01
  -1.05834E+02 -1.17312E+02 -1.08811E+02 -8.08033E+01 -9.97510E+01 -7.60273E+01 -7.21173E+01 -8.56422E+01 -6.40722E+01 -7.94772E+01
  -7.48111E+01 -7.32269E+01 -6.95683E+01 -7.13182E+01 -7.17380E+01 -6.49175E+01 -7.66059E+01 -7.79443E+01 -6.24986E+01 -5.00292E+01
  -6.21215E+01 -5.79691E+01 -4.85955E+01 -3.63798E+01 -3.60086E+01 -4.14600E+01 -2.62645E+01 -8.03881E+00  5.74238E+00 -2.13808E+01
  -4.35679E+01 -4.32908E+01 -5.62624E+01 -7.06625E+01 -7.34598E+01 -7.86025E+01 -8.29802E+01 -1.05895E+02 -1.08775E+02 -8.09712E+01
  -9.44260E+01 -7.64783E+01 -7.47804E+01 -8.19087E+01 -6.16797E+01 -6.36241E+01 -6.18797E+01 -7.23071E+01 -5.42897E+01 -5.52666E+01
  -5.09199E+01 -5.52710E+01 -8.69010E+01 -6.55233E+01 -6.97746E+01 -7.68256E+01 -7.08908E+01 -8.43918E+01 -1.00135E+02 -1.03445E+02
  -1.18583E+02 -1.14794E+02 -1.11674E+02 -1.20988E+02 -7.89599E+01 -7.92175E+01 -6.43632E+01 -5.32917E+01 -5.11890E+01 -2.12302E+01
  -2.70334E+01  2.10289E-02 -1.94080E+01 -4.30521E+01 -3.04979E+01 -5.18836E+01 -4.34878E+01 -2.26342E+01 -3.01393E+01 -2.44426E+01
  -2.73181E+01 -4.31349E+01 -2.91998E+01 -4.16834E+01 -5.09734E+01 -6.84056E+01 -8.83978E+01 -9.51484E+01 -1.00129E+02 -9.04340E+01
  -1.23741E+02 -1.21910E+02 -1.06850E+02 -1.25083E+02 -1.34477E+02 -1.19616E+02 -1.11748E+02 -1.07792E+02 -9.21583E+01 -1.15151E+02
  -1.17241E+02 -1.18500E+02 -1.23855E+02 -1.32429E+02 -1.47863E+02 -1.70662E+02 -1.74116E+02 -1.41237E+02 -1.22110E+02 -5.57264E+01
  -2.24757E+01  2.16688E+01  6.08812E+01  7.44817E+01  1.10879E+02  7.05835E+01  7.28304E+01  6.73319E+01  4.11347E+01  5.02968E+01
   3.91986E+01  3.22571E+01  2.41508E+01  3.76278E+01  4.61440E+01  3.07403E+01  1.72840E+01  3.83013E+01  4.74222E+01  2.92560E+01
   3.16482E+01  4.02756E+01  4.39517E+01  3.36998E+01  3.74487E+01  4.56692E+01  1.68945E+01 -5.18033E+00  6.73923E+00  8.75001E+00
   1.33942E+00 -2.06187E+01 -1.78033E+01 -1.46472E+01 -4.20922E+01 -2.72037E+01 -2.35884E+01 -3.75759E+01 -5.30027E+01 -4.76612E+01
  -4.10665E+01 -5.81979E+01 -6.04117E+01 -7.70090E+01 -7.15273E+01 -6.50375E+01 -7.18143E+01 -6.58759E+01 -6.40178E+01 -8.24353E+01
  -8.97462E+01 -7.35080E+01 -7.39727E+01 -6.78135E+01 -7.29508E+01 -6.39519E+01 -5.71843E+01 -6.41417E+01 -4.84302E+01 -3.38201E+01
  -1.22706E+01 -1.40779E+01 -8.78007E+00  1.23226E+01  4.58272E+01  7.92130E+01  8.03561E+01  1.11137E+02  1.16643E+02  1.03555E+02
   1.10024E+02  9.54239E+01  9.27339E+01  5.62641E+01  2.65355E+01  4.31535E+01  3.28691E+01  1.24146E+01 -4.19981E+00  1.23708E+01
   3.25186E+01  3.66275E+01  3.92958E+01  2.21926E+01  2.60434E+01  2.85864E+01  2.58569E+01  3.19187E+01  3.43238E+01  3.35743E+01
   2.53074E+01  2.22216E+01  2.38092E+01  1.90381E+01  9.60220E+00  1.21734E+01  5.27993E+00 -2.97334E+00 -1.00446E+01 -1.39739E+01
  -9.30188E+00 -1.89011E+01 -1.28099E+01 -1.74901E+01 -2.99443E+01 -1.30563E+01  9.90071E+00  1.59049E+01  9.28946E+00  1.68615E+01
   2.41900E+01  1.73305E+01  2.09233E+01  4.42738E+01  4.44881E+01  2.65412E+01  3.07399E+01  4.23233E+01  3.71453E+01  4.43656E+01
   6.72824E+01  4.54066E+01  4.09799E+01  7.40394E+01  8.01578E+01  9.38586E+01  1.07904E+02  9.63165E+01  9.73194E+01  1.23405E+02
   1.27757E+02  1.13524E+02  1.23798E+02  1.26495E+02  1.03694E+02  9.73463E+01  8.46029E+01  6.39732E+01  7.12531E+01  4.61435E+01
   2.85638E+01  5.42972E+01  3.34546E+01  4.55203E+00  8.20545E+00  4.85770E+00 -2.50583E+00 -1.30784E+01 -1.51237E+01 -9.13289E+00
  -2.98363E+01 -3.03264E+01 -1.83785E+01 -2.32620E+01 -1.86792E+01 -2.69421E+01 -1.60545E+01 -2.58377E+01 -2.99247E+01 -7.15949E+00
  -2.91579E+01 -2.17492E+01 -2.09524E+01 -2.77442E+01 -3.08204E+01 -4.94739E+01 -3.24668E+01 -3.18341E+01 -3.71697E+01 -3.59776E+01
  -3.51860E+01 -3.01355E+01 -3.13943E+01 -4.19359E+01 -5.14504E+01 -3.85281E+01 -3.04522E+01 -3.44334E+01 -4.96193E+01 -3.66256E+01
  -2.29599E+01 -3.76361E+01 -3.93955E+01 -4.00744E+01 -2.02803E+01 -2.46511E+01 -3.27132E+01 -1.91257E+01 -4.01085E+01 -2.87377E+01
  -2.03008E+01 -3.43135E+01 -2.64563E+01 -3.37775E+01 -3.11633E+01 -2.51137E+01 -2.45365E+01 -4.03381E+01 -3.76386E+01 -1.73803E+01
  -4.38166E+01 -3.76660E+01 -3.90617E+01 -3.70513E+01 -1.10391E+01 -3.87828E+01 -4.27916E+01 -2.70400E+01 -1.45552E+01 -2.97980E+01
  -4.06942E+01 -2.40560E+01 -4.17612E+01 -3.62008E+01 -4.40057E+01 -5.18077E+01 -2.96387E+01 -2.37400E+01 -6.45120E+00 -1.49826E+01
 NY points of the fit to the data follow
  -9.98627E+01 -9.76764E+01 -9.58659E+01 -9.46390E+01 -9.37607E+01 -9.25687E+01 -9.08633E+01 -8.89815E+01 -8.74060E+01 -8.66351E+01
  -8.64323E+01 -8.70924E+01 -8.83455E+01 -9.03687E+01 -9.72102E+01 -1.03666E+02 -1.10501E+02 -1.18367E+02 -1.26880E+02 -1.35101E+02
  -1.40808E+02 -1.42847E+02 -1.39935E+02 -1.32418E+02 -1.21321E+02 -1.06820E+02 -9.08327E+01 -7.56045E+01 -6.44063E+01 -5.68910E+01
  -5.11361E+01 -4.74173E+01 -4.36690E+01 -3.88198E+01 -3.47560E+01 -3.25895E+01 -3.36132E+01 -3.72626E+01 -4.46920E+01 -5.53391E+01
  -6.83934E+01 -8.19690E+01 -9.32487E+01 -9.99036E+01 -1.00659E+02 -9.52743E+01 -8.41664E+01 -6.89070E+01 -5.28045E+01 -3.87618E+01
  -2.95542E+01 -2.51548E+01 -2.36520E+01 -2.55751E+01 -2.89838E+01 -3.20727E+01 -3.56508E+01 -3.97112E+01 -4.38389E+01 -4.74140E+01
  -4.99540E+01 -5.08607E+01 -4.90111E+01 -4.57768E+01 -4.24423E+01 -3.80483E+01 -3.30888E+01 -3.02168E+01 -3.07033E+01 -3.32137E+01
  -3.72240E+01 -4.20864E+01 -4.61803E+01 -4.82407E+01 -4.75785E+01 -4.29832E+01 -3.47079E+01 -2.60038E+01 -1.84448E+01 -1.36118E+01
  -1.16429E+01 -1.36046E+01 -1.93826E+01 -2.75646E+01 -3.66955E+01 -4.49759E+01 -5.10561E+01 -5.41044E+01 -5.35935E+01 -4.99464E+01
  -4.40132E+01 -3.74981E+01 -3.12048E+01 -2.61669E+01 -2.29077E+01 -1.86917E+01 -1.45169E+01 -1.00118E+01 -5.09649E+00 -8.07720E-01
   3.33078E+00  5.84803E+00  8.29750E+00  8.39496E+00  4.06842E+00 -3.81215E+00 -1.46461E+01 -2.80337E+01 -4.43146E+01 -6.18697E+01
  -7.85854E+01 -9.29030E+01 -1.02962E+02 -1.09398E+02 -1.12325E+02 -1.10940E+02 -1.05174E+02 -9.68070E+01 -8.93504E+01 -8.39469E+01
  -8.01707E+01 -7.75783E+01 -7.54289E+01 -7.44344E+01 -7.02687E+01 -5.49302E+01 -3.59856E+01 -1.62935E+01  5.12816E+00  2.77767E+01
   4.65330E+01  5.38911E+01  4.71931E+01  2.83550E+01  2.45499E+00 -2.66197E+01 -5.75935E+01 -8.59800E+01 -1.04886E+02 -1.09883E+02
  -1.07005E+02 -1.04844E+02 -1.03989E+02 -1.03956E+02 -1.04344E+02 -1.04671E+02 -1.04596E+02 -1.04022E+02 -1.03091E+02 -1.01656E+02
  -9.95672E+01 -9.70162E+01 -9.43002E+01 -9.17346E+01 -8.93397E+01 -8.67752E+01 -8.41017E+01 -8.17427E+01 -7.98738E+01 -7.82732E+01
  -7.66079E+01 -7.47430E+01 -7.33557E+01 -7.30245E+01 -7.40127E+01 -7.55694E+01 -7.59813E+01 -7.55250E+01 -7.55312E+01 -7.57952E+01
  -7.42402E+01 -6.96980E+01 -6.32557E+01 -5.76323E+01 -5.29401E+01 -4.77754E+01 -4.21261E+01 -3.82691E+01 -3.82063E+01 -4.13015E+01
  -4.51140E+01 -4.87556E+01 -5.37505E+01 -6.13016E+01 -6.98128E+01 -7.64915E+01 -8.08517E+01 -8.49072E+01 -8.75780E+01 -8.82910E+01
  -8.86959E+01 -8.85453E+01 -8.78511E+01 -8.51825E+01 -8.13276E+01 -7.80107E+01 -7.43832E+01 -7.03934E+01 -6.58263E+01 -6.14023E+01
  -5.82777E+01 -5.61807E+01 -5.42225E+01 -5.20814E+01 -5.13673E+01 -5.41629E+01 -5.88566E+01 -6.51800E+01 -7.73753E+01 -9.02273E+01
  -1.04467E+02 -1.16284E+02 -1.22803E+02 -1.22985E+02 -1.15272E+02 -1.00396E+02 -7.94498E+01 -5.61497E+01 -3.47325E+01 -1.77750E+01
  -7.67039E+00 -4.04954E+00 -6.96684E+00 -1.29516E+01 -1.83588E+01 -2.26531E+01 -2.44947E+01 -2.42084E+01 -2.48690E+01 -2.78468E+01
  -3.30486E+01 -4.15892E+01 -5.24229E+01 -6.43839E+01 -7.67454E+01 -8.82200E+01 -9.85169E+01 -1.06429E+02 -1.12038E+02 -1.15286E+02
  -1.16522E+02 -1.15308E+02 -1.13311E+02 -1.09172E+02 -1.03696E+02 -9.57399E+01 -9.15683E+01 -9.11944E+01 -8.90226E+01 -8.31795E+01
  -9.29840E+01 -1.12958E+02 -1.31187E+02 -1.44310E+02 -1.54757E+02 -1.62747E+02 -1.62118E+02 -1.46087E+02 -1.13747E+02 -7.33897E+01
  -3.56506E+01 -1.67880E+00  3.20049E+01  6.06910E+01  7.18364E+01  6.52034E+01  5.48143E+01  4.58781E+01  3.83812E+01  3.22909E+01
   2.72567E+01  2.31115E+01  1.98066E+01  1.75237E+01  1.62931E+01  1.58927E+01  1.59581E+01  1.62713E+01  1.66812E+01  1.70096E+01
   1.70731E+01  1.68589E+01  1.63229E+01  1.56519E+01  1.48914E+01  1.38972E+01  1.28267E+01  1.16709E+01  1.04106E+01  8.79598E+00
   6.60766E+00  3.68814E+00  8.47137E-02 -4.08496E+00 -8.73885E+00 -1.35290E+01 -1.79482E+01 -2.15391E+01 -2.39707E+01 -2.51205E+01
  -2.49089E+01 -2.34943E+01 -2.12197E+01 -1.83291E+01 -1.51888E+01 -1.19411E+01 -8.72580E+00 -5.56136E+00 -2.34660E+00  9.72852E-01
   4.30966E+00  7.74573E+00  1.13720E+01  1.51580E+01  1.89202E+01  2.26525E+01  2.61487E+01  2.93127E+01  3.21429E+01  3.45055E+01
   3.65141E+01  3.81878E+01  3.94878E+01  4.03084E+01  4.05353E+01  4.00901E+01  3.85732E+01  3.55318E+01  3.04855E+01  2.33949E+01
   1.46103E+01  4.50644E+00 -6.18356E+00 -1.66000E+01 -2.49722E+01 -2.89967E+01 -3.02501E+01 -2.69947E+01 -2.14444E+01 -1.45356E+01
  -7.31637E+00 -1.54128E+00  1.55945E+00  1.31084E+00 -1.17027E+00 -4.63035E+00 -8.02450E+00 -9.88855E+00 -9.52483E+00 -6.40512E+00
  -1.50518E+00  3.82802E+00  8.16543E+00  9.78710E+00  9.08573E+00  6.58815E+00  2.87554E+00 -1.46867E+00 -5.65404E+00 -9.15756E+00
  -1.14521E+01 -1.21886E+01 -1.14559E+01 -9.51702E+00 -6.67568E+00 -3.24740E+00  4.45779E-01  4.15164E+00  7.69538E+00  1.08680E+01
   1.38544E+01  1.64995E+01  1.87337E+01  2.07745E+01  2.27982E+01  2.48456E+01  2.69029E+01  2.91984E+01  3.19730E+01  3.55001E+01
   4.01576E+01  4.61953E+01  5.40064E+01  6.36032E+01  7.47490E+01  8.66818E+01  9.85163E+01  1.09195E+02  1.17488E+02  1.22407E+02
   1.23553E+02  1.21023E+02  1.15353E+02  1.07551E+02  9.85523E+01  8.93103E+01  8.03750E+01  7.19355E+01  6.35074E+01  5.46678E+01
   4.52460E+01  3.53655E+01  2.53333E+01  1.57081E+01  7.04581E+00 -2.96464E-01 -6.22337E+00 -1.06714E+01 -1.39525E+01 -1.64969E+01
  -1.85313E+01 -2.00656E+01 -2.11993E+01 -2.22356E+01 -2.31482E+01 -2.37967E+01 -2.41954E+01 -2.44614E+01 -2.47062E+01 -2.48975E+01
  -2.50149E+01 -2.50814E+01 -2.52038E+01 -2.53809E+01 -2.55463E+01 -2.56283E+01 -2.56717E+01 -2.58330E+01 -2.60032E+01 -2.61224E+01
  -2.61309E+01 -2.62114E+01 -2.63578E+01 -2.65110E+01 -2.66563E+01 -2.68567E+01 -2.71290E+01 -2.73266E+01 -2.74416E+01 -2.74669E+01
  -2.74311E+01 -2.73869E+01 -2.73304E+01 -2.73884E+01 -2.75415E+01 -2.77434E+01 -2.80367E+01 -2.83204E+01 -2.85935E+01 -2.88467E+01
  -2.90901E+01 -2.92601E+01 -2.94018E+01 -2.95295E+01 -2.96676E+01 -2.97681E+01 -2.98099E+01 -2.98376E+01 -2.98362E+01 -2.97644E+01
  -2.97484E+01 -2.98205E+01 -3.00207E+01 -3.02446E+01 -3.05040E+01 -3.06968E+01 -3.08682E+01 -3.10084E+01 -3.10326E+01 -3.09289E+01
  -3.08152E+01 -3.07549E+01 -3.07296E+01 -3.07435E+01 -3.09164E+01 -3.11603E+01 -3.15509E+01 -3.19468E+01 -3.23351E+01 -3.27010E+01
 NY background values follow
    -7.586E+01   -7.548E+01   -7.509E+01   -7.471E+01   -7.433E+01   -7.395E+01   -7.356E+01   -7.318E+01   -7.279E+01   -7.241E+01
    -7.202E+01   -7.163E+01   -7.124E+01   -7.085E+01   -7.046E+01   -7.006E+01   -6.967E+01   -6.927E+01   -6.888E+01   -6.848E+01
    -6.808E+01   -6.768E+01   -6.727E+01   -6.687E+01   -6.646E+01   -6.605E+01   -6.564E+01   -6.523E+01   -6.481E+01   -6.440E+01
    -6.398E+01   -6.356E+01   -6.313E+01   -6.271E+01   -6.228E+01   -6.185E+01   -6.143E+01   -6.100E+01   -6.057E+01   -6.014E+01
    -5.971E+01   -5.928E+01   -5.886E+01   -5.843E+01   -5.801E+01   -5.759E+01   -5.717E+01   -5.675E+01   -5.634E+01   -5.593E+01
    -5.552E+01   -5.512E+01   -5.472E+01   -5.432E+01   -5.393E+01   -5.355E+01   -5.317E+01   -5.279E+01   -5.242E+01   -5.206E+01
    -5.170E+01   -5.135E+01   -5.101E+01   -5.067E+01   -5.034E+01   -5.002E+01   -4.971E+01   -4.940E+01   -4.910E+01   -4.880E+01
    -4.852E+01   -4.824E+01   -4.797E+01   -4.770E+01   -4.745E+01   -4.720E+01   -4.696E+01   -4.672E+01   -4.650E+01   -4.628E+01
    -4.607E+01   -4.587E+01   -4.568E+01   -4.550E+01   -4.532E+01   -4.516E+01   -4.500E+01   -4.485E+01   -4.471E+01   -4.458E+01
    -4.446E+01   -4.434E+01   -4.424E+01   -4.414E+01   -4.405E+01   -4.397E+01   -4.390E+01   -4.384E+01   -4.378E+01   -4.373E+01
    -4.368E+01   -4.364E+01   -4.361E+01   -4.358E+01   -4.356E+01   -4.355E+01   -4.354E+01   -4.353E+01   -4.353E+01   -4.353E+01
    -4.354E+01   -4.355E+01   -4.356E+01   -4.358E+01   -4.360E+01   -4.362E+01   -4.365E+01   -4.367E+01   -4.370E+01   -4.373E+01
    -4.377E+01   -4.380E+01   -4.383E+01   -4.387E+01   -4.390E+01   -4.394E+01   -4.398E+01   -4.402E+01   -4.406E+01   -4.410E+01
    -4.414E+01   -4.418E+01   -4.423E+01   -4.427E+01   -4.432E+01   -4.436E+01   -4.441E+01   -4.446E+01   -4.451E+01   -4.455E+01
    -4.460E+01   -4.465E+01   -4.470E+01   -4.476E+01   -4.481E+01   -4.486E+01   -4.491E+01   -4.496E+01   -4.502E+01   -4.507E+01
    -4.513E+01   -4.518E+01   -4.524E+01   -4.529E+01   -4.535E+01   -4.540E+01   -4.546E+01   -4.552E+01   -4.558E+01   -4.564E+01
    -4.571E+01   -4.577E+01   -4.584E+01   -4.591E+01   -4.598E+01   -4.605E+01   -4.612E+01   -4.620E+01   -4.628E+01   -4.636E+01
    -4.644E+01   -4.653E+01   -4.662E+01   -4.671E+01   -4.681E+01   -4.691E+01   -4.701E+01   -4.711E+01   -4.722E+01   -4.734E+01
    -4.745E+01   -4.757E+01   -4.770E+01   -4.783E+01   -4.796E+01   -4.809E+01   -4.823E+01   -4.837E+01   -4.851E+01   -4.865E+01
    -4.880E+01   -4.894E+01   -4.909E+01   -4.924E+01   -4.939E+01   -4.954E+01   -4.969E+01   -4.984E+01   -5.000E+01   -5.015E+01
    -5.030E+01   -5.045E+01   -5.060E+01   -5.075E+01   -5.089E+01   -5.104E+01   -5.118E+01   -5.133E+01   -5.147E+01   -5.160E+01
    -5.174E+01   -5.187E+01   -5.200E+01   -5.213E+01   -5.225E+01   -5.237E+01   -5.249E+01   -5.260E+01   -5.271E+01   -5.282E+01
    -5.292E+01   -5.302E+01   -5.312E+01   -5.321E+01   -5.330E+01   -5.338E+01   -5.346E+01   -5.354E+01   -5.361E+01   -5.368E+01
    -5.374E+01   -5.380E+01   -5.386E+01   -5.391E+01   -5.396E+01   -5.400E+01   -5.404E+01   -5.407E+01   -5.410E+01   -5.412E+01
    -5.414E+01   -5.415E+01   -5.416E+01   -5.416E+01   -5.416E+01   -5.415E+01   -5.414E+01   -5.412E+01   -5.410E+01   -5.408E+01
    -5.405E+01   -5.401E+01   -5.397E+01   -5.393E+01   -5.388E+01   -5.383E+01   -5.377E+01   -5.371E+01   -5.365E+01   -5.358E+01
    -5.351E+01   -5.343E+01   -5.335E+01   -5.327E+01   -5.318E+01   -5.309E+01   -5.299E+01   -5.290E+01   -5.279E+01   -5.269E+01
    -5.258E+01   -5.247E+01   -5.235E+01   -5.223E+01   -5.210E+01   -5.196E+01   -5.182E+01   -5.167E+01   -5.151E+01   -5.134E+01
    -5.116E+01   -5.097E+01   -5.077E+01   -5.055E+01   -5.033E+01   -5.008E+01   -4.983E+01   -4.956E+01   -4.927E+01   -4.896E+01
    -4.864E+01   -4.830E+01   -4.794E+01   -4.756E+01   -4.716E+01   -4.674E+01   -4.630E+01   -4.584E+01   -4.535E+01   -4.484E+01
    -4.430E+01   -4.374E+01   -4.315E+01   -4.254E+01   -4.192E+01   -4.127E+01   -4.060E+01   -3.992E+01   -3.921E+01   -3.849E+01
    -3.776E+01   -3.701E+01   -3.625E+01   -3.548E+01   -3.470E+01   -3.390E+01   -3.310E+01   -3.229E+01   -3.148E+01   -3.066E+01
    -2.983E+01   -2.900E+01   -2.817E+01   -2.734E+01   -2.651E+01   -2.568E+01   -2.485E+01   -2.402E+01   -2.319E+01   -2.238E+01
    -2.156E+01   -2.076E+01   -1.996E+01   -1.917E+01   -1.838E+01   -1.761E+01   -1.685E+01   -1.609E+01   -1.535E+01   -1.461E+01
    -1.389E+01   -1.318E+01   -1.248E+01   -1.179E+01   -1.112E+01   -1.046E+01   -9.817E+00   -9.187E+00   -8.573E+00   -7.975E+00
    -7.393E+00   -6.828E+00   -6.280E+00   -5.750E+00   -5.239E+00   -4.747E+00   -4.274E+00   -3.821E+00   -3.388E+00   -2.977E+00
    -2.586E+00   -2.217E+00   -1.870E+00   -1.543E+00   -1.237E+00   -9.505E-01   -6.844E-01   -4.380E-01   -2.110E-01   -3.004E-03
     1.862E-01    3.568E-01    5.092E-01    6.437E-01    7.606E-01    8.601E-01    9.425E-01    1.008E+00    1.057E+00    1.090E+00
     1.107E+00    1.109E+00    1.095E+00    1.066E+00    1.023E+00    9.644E-01    8.922E-01    8.060E-01    7.062E-01    5.932E-01
     4.673E-01    3.285E-01    1.773E-01    1.395E-02   -1.612E-01   -3.479E-01   -5.458E-01   -7.547E-01   -9.742E-01   -1.204E+00
    -1.444E+00   -1.693E+00   -1.952E+00   -2.221E+00   -2.498E+00   -2.783E+00   -3.077E+00   -3.379E+00   -3.688E+00   -4.005E+00
    -4.329E+00   -4.660E+00   -4.997E+00   -5.340E+00   -5.689E+00   -6.044E+00   -6.404E+00   -6.769E+00   -7.139E+00   -7.513E+00
    -7.891E+00   -8.273E+00   -8.659E+00   -9.048E+00   -9.441E+00   -9.837E+00   -1.024E+01   -1.064E+01   -1.104E+01   -1.145E+01
    -1.186E+01   -1.227E+01   -1.268E+01   -1.310E+01   -1.352E+01   -1.394E+01   -1.436E+01   -1.478E+01   -1.520E+01   -1.562E+01
    -1.605E+01   -1.647E+01   -1.690E+01   -1.732E+01   -1.775E+01   -1.817E+01   -1.860E+01   -1.902E+01   -1.944E+01   -1.987E+01
    -2.029E+01   -2.071E+01   -2.113E+01   -2.155E+01   -2.196E+01   -2.238E+01   -2.280E+01   -2.321E+01   -2.363E+01   -2.404E+01
    -2.445E+01   -2.487E+01   -2.528E+01   -2.569E+01   -2.610E+01   -2.651E+01   -2.692E+01   -2.733E+01   -2.774E+01   -2.815E+01
    -2.856E+01   -2.897E+01   -2.937E+01   -2.978E+01   -3.019E+01   -3.060E+01   -3.100E+01   -3.141E+01   -3.182E+01   -3.223E+01
 Mac      Conc. = 2.56E-04
  -9.19436E+01 -9.17969E+01 -9.15374E+01 -9.11399E+01 -9.08480E+01 -9.06831E+01 -9.07653E+01 -9.10721E+01 -9.15891E+01 -9.22479E+01
  -9.29766E+01 -9.41150E+01 -9.56338E+01 -9.70558E+01 -9.85060E+01 -1.00252E+02 -1.02113E+02 -1.03676E+02 -1.04482E+02 -1.04400E+02
  -1.03236E+02 -1.01031E+02 -9.77622E+01 -9.36279E+01 -8.92508E+01 -8.53748E+01 -8.23293E+01 -7.96693E+01 -7.71508E+01 -7.47838E+01
  -7.25064E+01 -7.03541E+01 -6.83891E+01 -6.66210E+01 -6.50535E+01 -6.38895E+01 -6.31302E+01 -6.24632E+01 -6.16464E+01 -6.04746E+01
  -5.91247E+01 -5.76052E+01 -5.59044E+01 -5.39409E+01 -5.19037E+01 -5.01604E+01 -4.86540E+01 -4.72804E+01 -4.59684E+01 -4.48922E+01
  -4.44245E+01 -4.47417E+01 -4.56557E+01 -4.68633E+01 -4.82753E+01 -4.96898E+01 -5.07002E+01 -5.11711E+01 -5.09342E+01 -5.01647E+01
  -4.89138E+01 -4.72646E+01 -4.52964E+01 -4.33326E+01 -4.19151E+01 -4.13074E+01 -4.12935E+01 -4.16959E+01 -4.25695E+01 -4.35950E+01
  -4.43784E+01 -4.44653E+01 -4.36863E+01 -4.21987E+01 -4.02420E+01 -3.80110E+01 -3.57255E+01 -3.38233E+01 -3.26270E+01 -3.22905E+01
  -3.25680E+01 -3.32984E+01 -3.41930E+01 -3.50315E+01 -3.56194E+01 -3.58346E+01 -3.56407E+01 -3.51616E+01 -3.43473E+01 -3.31795E+01
  -3.17979E+01 -3.03087E+01 -2.87994E+01 -2.74007E+01 -2.62536E+01 -2.53632E+01 -2.48806E+01 -2.49135E+01 -2.53732E+01 -2.60779E+01
  -2.67185E+01 -2.74574E+01 -2.85143E+01 -2.99781E+01 -3.21564E+01 -3.52639E+01 -3.97317E+01 -4.55950E+01 -5.24535E+01 -5.95700E+01
