 LCModel (Version 6.3-1N) Copyright: S.W. Provencher.          Ref.: Magn. Reson. Med. 30:672-679 (1993).                
 Slice_N1@20_16  28-Feb-2025 11:42:18
 27 lines in following concentration table = NCONC+1
    Conc.  %SD /Cr+PCr  Metabolite                                         
 2.16E-04   7% 2.4E-04 Mac                                                 
    3.922  52%   4.266 Cr                                                  
    3.433  57%   3.734 PCr                                                 
    5.189  22%   5.643 Ins                                                 
    7.048  14%   7.665 NAA                                                 
    4.386  26%   4.771 Tau                                                 
    2.024  16%   2.201 PCho                                                
    0.000 999%   0.000 GPC                                                 
    6.805  19%   7.401 Glu                                                 
    2.237  45%   2.433 Gln                                                 
    0.000 999%   0.000 Ala                                                 
    2.325  66%   2.529 Asc                                                 
    1.649  74%   1.794 Asp                                                 
    0.842  78%   0.916 GABA                                                
    0.685 118%   0.745 Glc                                                 
    1.513  40%   1.646 GSH                                                 
    4.665  20%   5.074 Lac                                                 
    2.702  30%   2.938 NAAG                                                
    0.000 999%   0.000 PE                                                  
    2.024  16%   2.201 GPC+PCho                                            
    9.749  11%  10.604 NAA+NAAG                                            
    9.042  18%   9.835 Glu+Gln                                             
    7.355  13%   8.000 Cr+PCr                                              
    9.749  11%  10.604 NAA+NAAG                                            
    7.355  13%   8.000 Cr+PCr                                              
    9.042  18%   9.835 Glu+Gln                                             
   6 lines in following misc. output table
  FWHM = 0.033 ppm    S/N =   2                                            
  Data shift = 0.000 ppm                                                   
  Ph: -94 deg       0.0 deg/ppm                                            
  alphaB,S = 9.7E-02,   3.1E-01                                            
   19 spline knots.   Ns = 5(1)                                            
   2 inflections.     2 extrema                                            
  480 points on ppm-axis = NY
      4.100000     4.091866     4.083733     4.075600     4.067466     4.059333     4.051199     4.043066     4.034933     4.026799
      4.018666     4.010532     4.002399     3.994265     3.986132     3.977998     3.969864     3.961731     3.953597     3.945463
      3.937330     3.929196     3.921062     3.912929     3.904795     3.896662     3.888528     3.880394     3.872261     3.864127
      3.855993     3.847860     3.839726     3.831592     3.823459     3.815325     3.807191     3.799058     3.790924     3.782790
      3.774657     3.766523     3.758389     3.750256     3.742122     3.733989     3.725855     3.717721     3.709588     3.701454
      3.693320     3.685187     3.677053     3.668919     3.660786     3.652652     3.644518     3.636385     3.628251     3.620117
      3.611984     3.603850     3.595716     3.587583     3.579449     3.571316     3.563182     3.555048     3.546915     3.538781
      3.530647     3.522514     3.514380     3.506246     3.498113     3.489979     3.481845     3.473712     3.465578     3.457444
      3.449311     3.441177     3.433043     3.424910     3.416776     3.408643     3.400509     3.392375     3.384242     3.376108
      3.367974     3.359841     3.351707     3.343573     3.335440     3.327306     3.319172     3.311039     3.302905     3.294771
      3.286638     3.278504     3.270370     3.262237     3.254103     3.245970     3.237836     3.229702     3.221569     3.213435
      3.205301     3.197168     3.189034     3.180900     3.172767     3.164633     3.156499     3.148366     3.140232     3.132098
      3.123965     3.115831     3.107697     3.099564     3.091430     3.083297     3.075163     3.067029     3.058896     3.050762
      3.042628     3.034495     3.026361     3.018227     3.010094     3.001960     2.993826     2.985693     2.977559     2.969425
      2.961292     2.953158     2.945024     2.936891     2.928757     2.920624     2.912490     2.904356     2.896223     2.888089
      2.879955     2.871822     2.863688     2.855554     2.847421     2.839287     2.831153     2.823020     2.814886     2.806752
      2.798619     2.790485     2.782351     2.774218     2.766084     2.757951     2.749817     2.741683     2.733550     2.725416
      2.717282     2.709149     2.701015     2.692881     2.684748     2.676614     2.668480     2.660347     2.652213     2.644079
      2.635946     2.627812     2.619678     2.611545     2.603411     2.595278     2.587144     2.579010     2.570877     2.562743
      2.554609     2.546476     2.538342     2.530208     2.522075     2.513941     2.505807     2.497674     2.489540     2.481406
      2.473273     2.465139     2.457006     2.448872     2.440738     2.432605     2.424471     2.416337     2.408204     2.400070
      2.391936     2.383803     2.375669     2.367535     2.359402     2.351268     2.343134     2.335001     2.326867     2.318733
      2.310600     2.302466     2.294333     2.286199     2.278065     2.269932     2.261798     2.253664     2.245531     2.237397
      2.229263     2.221130     2.212996     2.204862     2.196729     2.188595     2.180461     2.172328     2.164194     2.156060
      2.147927     2.139793     2.131660     2.123526     2.115392     2.107259     2.099125     2.090991     2.082858     2.074724
      2.066590     2.058457     2.050323     2.042189     2.034056     2.025922     2.017788     2.009655     2.001521     1.993387
      1.985254     1.977120     1.968987     1.960853     1.952719     1.944586     1.936452     1.928318     1.920185     1.912051
      1.903917     1.895784     1.887650     1.879516     1.871383     1.863249     1.855115     1.846982     1.838848     1.830714
      1.822581     1.814447     1.806314     1.798180     1.790046     1.781913     1.773779     1.765645     1.757512     1.749378
      1.741244     1.733111     1.724977     1.716843     1.708710     1.700576     1.692442     1.684309     1.676175     1.668041
      1.659908     1.651774     1.643641     1.635507     1.627373     1.619240     1.611106     1.602972     1.594839     1.586705
      1.578571     1.570438     1.562304     1.554170     1.546037     1.537903     1.529769     1.521636     1.513502     1.505368
      1.497235     1.489101     1.480968     1.472834     1.464700     1.456567     1.448433     1.440299     1.432166     1.424032
      1.415898     1.407765     1.399631     1.391497     1.383364     1.375230     1.367096     1.358963     1.350829     1.342695
      1.334562     1.326428     1.318295     1.310161     1.302027     1.293894     1.285760     1.277626     1.269493     1.261359
      1.253225     1.245092     1.236958     1.228824     1.220691     1.212557     1.204423     1.196290     1.188156     1.180022
      1.171889     1.163755     1.155622     1.147488     1.139354     1.131221     1.123087     1.114953     1.106820     1.098686
      1.090552     1.082419     1.074285     1.066151     1.058018     1.049884     1.041750     1.033617     1.025483     1.017349
      1.009216     1.001082     0.992949     0.984815     0.976681     0.968548     0.960414     0.952280     0.944147     0.936013
      0.927879     0.919746     0.911612     0.903478     0.895345     0.887211     0.879077     0.870944     0.862810     0.854676
      0.846543     0.838409     0.830276     0.822142     0.814008     0.805875     0.797741     0.789607     0.781474     0.773340
      0.765206     0.757073     0.748939     0.740805     0.732672     0.724538     0.716404     0.708271     0.700137     0.692003
      0.683870     0.675736     0.667603     0.659469     0.651335     0.643202     0.635068     0.626934     0.618801     0.610667
      0.602533     0.594400     0.586266     0.578132     0.569999     0.561865     0.553731     0.545598     0.537464     0.529330
      0.521197     0.513063     0.504930     0.496796     0.488662     0.480529     0.472395     0.464261     0.456128     0.447994
      0.439861     0.431727     0.423593     0.415460     0.407326     0.399192     0.391059     0.382925     0.374792     0.366658
      0.358524     0.350391     0.342257     0.334124     0.325990     0.317856     0.309723     0.301589     0.293455     0.285322
      0.277188     0.269055     0.260921     0.252787     0.244654     0.236520     0.228386     0.220253     0.212119     0.203986
 NY phased data points follow
   1.31992E+01  1.55770E+01  1.01350E+01  8.30310E+00 -2.50669E-01  7.94637E+00  1.04914E+01  8.30040E+00  1.85704E+01  1.14820E+01
   9.61383E+00  1.09067E+01 -3.70276E-01 -4.69545E+00 -1.07041E+01 -1.64394E+01 -1.17660E+01 -1.42057E+01 -2.03036E+01 -2.80951E+01
  -4.60671E+01 -5.08002E+01 -4.22940E+01 -3.60613E+01 -1.83959E+01 -8.65738E+00  4.42617E-01  2.33665E+01  2.31388E+01  2.56222E+01
   2.61395E+01  2.68476E+01  3.21016E+01  1.72299E+01  2.12128E+01  2.00325E+01  1.87591E+01  1.48673E+01  2.85316E+00 -1.07380E+00
  -1.76095E+01 -1.24716E+01 -1.99431E+01 -2.11026E+01 -7.28983E+00 -1.45539E+01  9.31530E-01  1.53337E+01  2.87597E+01  3.96561E+01
   4.61070E+01  5.02032E+01  4.25063E+01  5.16658E+01  5.33937E+01  3.67287E+01  2.27307E+01  3.22231E+01  2.88086E+01  1.06296E+01
   1.29497E+01  8.16654E+00  2.16493E+01  3.88893E+01  3.96255E+01  4.45654E+01  5.82614E+01  5.27457E+01  3.16317E+01  2.13476E+01
  -4.67549E+00  6.91760E+00  1.06656E+01  4.95354E+00  2.71254E+01  1.90324E+01  3.40242E+01  3.95633E+01  4.25755E+01  5.32422E+01
   5.36430E+01  5.86156E+01  4.48324E+01  4.77474E+01  3.54174E+01  2.94417E+01  3.34385E+01  2.80095E+01  3.10851E+01  3.19975E+01
   4.77793E+01  5.61124E+01  7.25171E+01  7.55232E+01  7.58765E+01  7.98210E+01  7.62629E+01  9.69303E+01  8.87819E+01  9.48801E+01
   1.01830E+02  8.57002E+01  8.95116E+01  6.69312E+01  5.79053E+01  6.09064E+01  4.73466E+01  4.68108E+01  3.58283E+01  8.72795E+00
  -3.17682E+01 -6.17012E+01 -7.24316E+01 -8.57718E+01 -6.60097E+01 -3.47147E+01 -2.44003E+01 -1.29313E+01 -8.41421E+00  2.82596E+00
   1.22595E+01  1.67087E+01  2.14558E+01  2.00156E+01  4.10359E+01  4.99405E+01  5.12299E+01  6.49932E+01  7.06746E+01  9.54624E+01
   1.17540E+02  1.16289E+02  1.04988E+02  8.43185E+01  4.72973E+01 -8.12858E-01 -2.52321E+01 -3.27821E+01 -4.21869E+01 -3.39832E+01
  -2.80133E+01 -3.68645E+01 -2.87432E+01 -3.51182E+01 -4.23102E+01 -2.99638E+01 -3.74567E+01 -3.78942E+01 -3.67697E+01 -3.63831E+01
  -2.43667E+01 -3.70037E+01 -4.29180E+01 -2.45718E+01 -2.38790E+01 -2.06728E+01 -1.75158E+01 -2.50986E+01 -1.74219E+01 -5.62463E+00
  -1.98371E+00 -1.38789E+01 -7.39222E+00  7.98559E+00  1.15251E+01  7.96654E+00 -4.33614E+00  2.91394E+00 -2.93693E+00 -1.44917E+00
   7.24857E+00  9.49239E+00  1.91854E+01  1.65056E+01  2.31721E+01  2.04797E+01  2.37443E+01  1.94360E+01  5.21990E+00  1.23783E+01
   7.56315E+00 -9.47478E-01 -7.28379E+00 -1.05229E+01 -1.31577E+01 -1.55416E+01 -2.84119E+01 -3.58851E+01 -2.21886E+01 -2.05148E+01
  -1.90092E+01 -1.20917E+01 -1.36232E+01 -1.88833E+01 -1.03148E+01 -1.06702E+01 -1.95455E+01 -1.99627E+01 -1.54528E+01  1.11427E+01
   5.13522E+00 -1.45363E+01  6.25217E+00  1.43459E+01  8.13295E+00  1.04986E+01 -2.65546E+00 -1.78197E+01 -9.71201E+00 -1.71450E+01
  -3.52962E+01 -3.83423E+01 -4.31590E+01 -4.22992E+01 -3.39060E+01 -1.49012E+01  2.53765E+00  2.67321E+00  8.31213E+00  9.81204E+00
  -2.46731E+00  1.52730E+00  2.40649E+00 -7.14775E+00  2.30808E+00 -3.48754E+00 -1.08606E+01  1.20566E+01  1.46961E+01  3.68786E+00
   8.97015E+00  7.15965E+00  9.79762E+00 -1.44711E+00 -2.16710E+01 -8.37497E+00 -6.91343E+00 -1.17703E+01 -2.71829E+01 -3.49996E+01
  -2.34739E+01 -3.44131E+01 -3.18682E+01 -2.94948E+01 -1.53179E+01 -1.17321E+01 -1.57927E+01 -1.30490E+01 -1.95718E+01 -1.22917E+01
  -2.71512E+01 -4.00821E+01 -5.88261E+01 -4.47798E+01 -4.14447E+01 -5.95809E+01 -4.70146E+01 -4.73408E+01  1.06277E+01  5.45766E+01
   9.96167E+01  1.38584E+02  1.22392E+02  1.19648E+02  1.03669E+02  1.02011E+02  9.34622E+01  8.14787E+01  6.80685E+01  6.46989E+01
   7.08641E+01  6.43954E+01  6.98891E+01  7.80245E+01  7.71761E+01  6.84500E+01  7.89344E+01  6.54354E+01  7.08663E+01  7.72055E+01
   6.89538E+01  7.95327E+01  6.62626E+01  7.05891E+01  6.32447E+01  6.48825E+01  6.52127E+01  5.27691E+01  5.02437E+01  4.10355E+01
   3.99125E+01  2.55193E+01  2.77768E+01  3.12991E+01  1.87154E+01  1.10866E+01  8.44825E+00 -1.80931E+00 -1.49554E+01 -1.99241E+01
  -1.50524E+01 -1.65047E+01 -1.89851E+01 -1.12185E+01 -3.25658E+01 -2.40249E+01 -1.83692E+01 -2.98487E+01 -1.73272E+01 -2.64597E+01
  -3.58657E+01 -3.53182E+01 -2.57119E+01 -2.09209E+01 -1.48369E+01 -1.31490E+01 -1.51151E+01 -1.72601E+01 -1.01345E+01 -5.93534E+00
  -2.69286E+01 -1.30545E+01 -2.45510E+00 -9.72528E+00 -5.74601E+00  1.49818E+01  3.44766E+01  3.61660E+01  4.77891E+01  5.65388E+01
   6.33941E+01  6.41196E+01  6.81052E+01  6.93034E+01  6.32401E+01  6.86549E+01  7.48767E+01  7.61327E+01  7.65051E+01  7.68292E+01
   8.04239E+01  8.00674E+01  7.67015E+01  7.43366E+01  4.92894E+01  4.30361E+01  4.18005E+01  3.37389E+01  3.41821E+01  2.16089E+01
   2.15498E+01  2.33201E+01  3.25235E+01  2.22551E+01  8.46782E+00  2.11621E+01  1.81201E+01  4.01774E+00  5.66521E-01  1.12785E+01
   1.02764E+01  7.89061E+00  1.64441E+01  2.70404E+01  2.75218E+01  3.00639E+01  3.97905E+01  4.39930E+01  4.62720E+01  5.20732E+01
   5.72119E+01  5.27606E+01  7.17627E+01  7.82309E+01  7.50525E+01  7.81370E+01  7.26236E+01  8.52194E+01  8.55834E+01  8.93271E+01
   9.23905E+01  8.91306E+01  1.01890E+02  1.03625E+02  1.14865E+02  1.35750E+02  1.35026E+02  1.40396E+02  1.38326E+02  1.37661E+02
   1.49769E+02  1.35685E+02  1.29651E+02  1.16574E+02  1.12458E+02  1.12861E+02  9.84269E+01  1.05382E+02  9.22811E+01  7.95061E+01
   7.46561E+01  5.95519E+01  3.52577E+01  2.87487E+01  3.48323E+01  1.38264E+01  1.24223E+01  1.45014E+01  3.27436E+00  5.23864E+00
   9.23587E+00  1.16019E+01  1.22210E+01  7.48021E+00  8.10259E+00  5.08429E+00 -2.98609E+00 -1.90707E+00 -3.98975E+00  3.06607E+00
   1.12472E+01  4.74427E+00  7.18145E+00  1.44810E+01  3.31869E+00 -5.99441E+00 -6.77732E+00  1.59252E+00  4.54619E+00 -1.08697E+01
  -1.01071E+01 -6.05366E+00  5.96716E-01  5.58552E+00  1.21920E+01  4.27010E+00 -1.06607E+01 -3.58284E+00 -7.08525E+00 -8.39587E-01
  -4.63961E+00 -2.29160E+00 -5.57471E+00 -1.56464E+01  3.91362E-01 -5.54085E+00 -2.74408E+00 -2.80240E+00 -2.97073E+00  4.67341E+00
   7.05992E+00  6.61508E+00 -2.73540E+00  2.31769E+00 -5.89548E+00 -1.28467E+01 -1.75611E+00  5.78511E+00 -1.67931E+00 -4.20447E+00
   2.85050E+00 -3.23974E-01  4.55495E+00  6.16984E+00  6.23784E+00  3.66035E+00  3.90423E+00  1.44431E+01  5.65279E+00 -3.95094E+00
  -4.70743E-01  4.80228E+00  6.05430E+00 -4.12516E+00 -6.85843E+00 -4.76808E+00  6.02655E+00  1.52834E+01  1.61782E+00  4.13050E+00
 NY points of the fit to the data follow
  -8.78637E+00 -8.40896E+00 -8.78000E+00 -9.86615E+00 -9.53630E+00 -6.49491E+00 -5.90211E-01  5.24308E+00  9.09622E+00  9.72756E+00
   7.16195E+00  3.50161E+00  1.11104E-01 -1.87138E+00 -2.25097E+00 -2.44443E+00 -6.45307E+00 -9.73642E+00 -1.61738E+01 -2.96661E+01
  -3.65463E+01 -4.39530E+01 -4.41581E+01 -3.55637E+01 -2.11088E+01 -1.16916E+00  1.44990E+01  2.77353E+01  3.42533E+01  3.82390E+01
   3.87511E+01  3.87478E+01  3.84615E+01  3.77178E+01  3.64141E+01  3.55843E+01  3.22000E+01  2.89033E+01  2.32455E+01  1.21453E+01
   1.63685E+00 -9.76026E+00 -1.48017E+01 -1.64366E+01 -1.20453E+01 -3.59981E+00  6.73621E+00  1.80709E+01  2.78478E+01  3.68004E+01
   4.23519E+01  4.60751E+01  4.59137E+01  4.39238E+01  3.95055E+01  2.98285E+01  2.37261E+01  1.75015E+01  1.05796E+01  9.37243E+00
   8.72136E+00  1.09455E+01  1.46729E+01  2.12222E+01  3.07465E+01  3.83996E+01  4.53909E+01  4.88277E+01  4.37888E+01  3.41957E+01
   2.39258E+01  1.60396E+01  1.25643E+01  1.40460E+01  2.03686E+01  2.90712E+01  3.83834E+01  4.59939E+01  5.37671E+01  5.72942E+01
   5.89003E+01  5.68927E+01  4.92243E+01  4.19040E+01  3.03645E+01  2.47222E+01  2.05421E+01  2.37870E+01  2.88077E+01  3.66812E+01
   4.36924E+01  4.99616E+01  5.48573E+01  5.90625E+01  6.31731E+01  6.61882E+01  6.93801E+01  7.34231E+01  7.50441E+01  7.67028E+01
   8.03929E+01  7.92851E+01  7.75393E+01  7.27571E+01  7.07518E+01  6.27750E+01  5.63970E+01  5.79426E+01  3.74279E+01  1.43407E+01
  -2.51218E+01 -5.01708E+01 -6.87406E+01 -6.74270E+01 -5.71824E+01 -4.05816E+01 -2.62466E+01 -1.58372E+01 -7.52461E+00 -6.76924E-01
   5.43132E+00  1.10204E+01  1.63942E+01  2.20863E+01  2.83336E+01  3.46047E+01  4.11123E+01  5.68099E+01  7.10440E+01  8.77268E+01
   1.13386E+02  1.22719E+02  1.13319E+02  7.97822E+01  3.81805E+01 -1.69495E+00 -2.87689E+01 -4.06409E+01 -4.16596E+01 -3.72924E+01
  -3.45831E+01 -3.31264E+01 -3.24021E+01 -3.26882E+01 -3.28078E+01 -3.32006E+01 -3.27625E+01 -3.17952E+01 -3.01752E+01 -2.81696E+01
  -2.60544E+01 -2.39811E+01 -2.20893E+01 -2.02831E+01 -1.83920E+01 -1.64375E+01 -1.46560E+01 -1.30381E+01 -1.18489E+01 -1.09432E+01
  -9.83991E+00 -8.71710E+00 -7.69718E+00 -7.13905E+00 -6.96470E+00 -6.71384E+00 -6.58172E+00 -6.58836E+00 -6.36407E+00 -5.92217E+00
  -3.63126E+00  1.35354E+00  7.11799E+00  1.09129E+01  1.23731E+01  1.20208E+01  1.24025E+01  1.33261E+01  1.27137E+01  1.06854E+01
   5.73311E+00 -2.82966E-01 -6.71896E+00 -1.18175E+01 -1.52265E+01 -1.76050E+01 -1.90938E+01 -1.92532E+01 -1.96836E+01 -1.90722E+01
  -1.65272E+01 -1.46600E+01 -1.23929E+01 -8.20132E+00 -4.53798E+00 -5.72934E-01  1.94075E+00  3.37487E+00  5.77430E+00  6.24012E+00
   6.75951E+00  6.91215E+00  7.64300E+00  8.07968E+00  7.18726E+00  5.81216E+00  2.50331E+00 -1.51496E+00 -7.53273E+00 -1.26680E+01
  -1.82620E+01 -2.46174E+01 -2.61885E+01 -2.89017E+01 -2.46122E+01 -1.52881E+01 -4.86307E+00  1.03123E+01  1.92540E+01  2.72875E+01
   2.73091E+01  2.55415E+01  2.18283E+01  1.95246E+01  1.87581E+01  1.91062E+01  1.95372E+01  1.84173E+01  1.48521E+01  9.69101E+00
   1.67690E+00 -7.59826E+00 -1.61540E+01 -2.67005E+01 -3.42346E+01 -4.06421E+01 -4.53376E+01 -4.69659E+01 -4.64792E+01 -4.41869E+01
  -4.07458E+01 -3.64872E+01 -3.28872E+01 -2.78965E+01 -2.46236E+01 -2.10252E+01 -1.82370E+01 -1.68281E+01 -2.07099E+01 -2.47554E+01
  -3.08604E+01 -3.81119E+01 -5.27629E+01 -5.33044E+01 -5.34993E+01 -6.24170E+01 -5.38864E+01 -3.89454E+01 -3.08841E-01  3.49409E+01
   7.16246E+01  9.17309E+01  1.00226E+02  9.59590E+01  8.84997E+01  8.16962E+01  7.59181E+01  7.05004E+01  6.51093E+01  6.06584E+01
   5.61009E+01  5.34305E+01  5.12777E+01  5.06264E+01  5.06620E+01  5.11002E+01  5.18263E+01  5.21300E+01  5.23959E+01  5.20395E+01
   5.14261E+01  5.01695E+01  4.87367E+01  4.69831E+01  4.51015E+01  4.32312E+01  4.11961E+01  3.92667E+01  3.71793E+01  3.48993E+01
   3.23337E+01  2.94769E+01  2.62958E+01  2.29386E+01  1.96848E+01  1.69065E+01  1.49470E+01  1.40463E+01  1.41474E+01  1.50162E+01
   1.65235E+01  1.83358E+01  2.04337E+01  2.25395E+01  2.47559E+01  2.68663E+01  2.88937E+01  3.09580E+01  3.30651E+01  3.52819E+01
   3.75709E+01  3.97519E+01  4.18296E+01  4.38646E+01  4.57426E+01  4.74056E+01  4.89229E+01  5.00793E+01  5.07385E+01  5.09254E+01
   5.07343E+01  5.01055E+01  4.92993E+01  4.80586E+01  4.67158E+01  4.48926E+01  4.24619E+01  3.89463E+01  3.44071E+01  2.89619E+01
   2.31371E+01  1.74949E+01  1.28251E+01  9.59888E+00  8.33162E+00  9.21173E+00  1.19142E+01  1.84330E+01  2.53688E+01  3.42455E+01
   4.59794E+01  5.08378E+01  5.24710E+01  4.53099E+01  3.08693E+01  1.58219E+01  2.26058E+00 -2.50436E+00 -2.20750E+00  3.96722E+00
   1.03176E+01  1.63339E+01  1.97345E+01  2.10172E+01  2.07912E+01  1.98111E+01  1.85369E+01  1.77350E+01  1.76044E+01  1.84261E+01
   2.01171E+01  2.25363E+01  2.55761E+01  2.89044E+01  3.24502E+01  3.59349E+01  3.93529E+01  4.25296E+01  4.56065E+01  4.85719E+01
   5.13675E+01  5.41695E+01  5.69301E+01  5.96331E+01  6.24389E+01  6.54860E+01  6.87339E+01  7.22733E+01  7.62808E+01  8.06606E+01
   8.54384E+01  9.06435E+01  9.64312E+01  1.02691E+02  1.09292E+02  1.15615E+02  1.21051E+02  1.24475E+02  1.25266E+02  1.22704E+02
   1.17568E+02  1.10532E+02  1.02874E+02  9.54434E+01  8.88766E+01  8.31465E+01  7.74472E+01  7.17154E+01  6.52817E+01  5.83517E+01
   5.11421E+01  4.42128E+01  3.80321E+01  3.27650E+01  2.85288E+01  2.53049E+01  2.28234E+01  2.10073E+01  1.94802E+01  1.82654E+01
   1.70787E+01  1.60685E+01  1.52267E+01  1.45157E+01  1.39740E+01  1.34440E+01  1.31887E+01  1.27253E+01  1.23135E+01  1.18992E+01
   1.15507E+01  1.12817E+01  1.09443E+01  1.06872E+01  1.03267E+01  1.00487E+01  9.62439E+00  9.27570E+00  9.00505E+00  8.78164E+00
   8.60665E+00  8.35979E+00  8.10630E+00  7.63594E+00  7.25478E+00  6.81861E+00  6.50301E+00  6.26057E+00  6.06564E+00  5.94238E+00
   5.75570E+00  5.61847E+00  5.38307E+00  5.17599E+00  4.75614E+00  4.34825E+00  3.97117E+00  3.62016E+00  3.35307E+00  3.18171E+00
   2.97472E+00  2.69784E+00  2.43422E+00  2.16541E+00  1.96246E+00  1.83180E+00  1.70680E+00  1.62652E+00  1.47377E+00  1.39957E+00
   1.18569E+00  1.08064E+00  7.34679E-01  4.85785E-01  1.08007E-01 -1.62852E-01 -3.57188E-01 -3.83787E-01 -2.81365E-01 -2.23439E-01
  -1.95044E-01 -4.07321E-01 -7.14915E-01 -9.98851E-01 -1.26393E+00 -1.48731E+00 -1.59181E+00 -1.70684E+00 -1.91901E+00 -2.09420E+00
 NY background values follow
     1.528E+01    1.524E+01    1.520E+01    1.516E+01    1.512E+01    1.508E+01    1.504E+01    1.500E+01    1.497E+01    1.493E+01
     1.490E+01    1.487E+01    1.485E+01    1.482E+01    1.480E+01    1.479E+01    1.478E+01    1.477E+01    1.477E+01    1.477E+01
     1.478E+01    1.479E+01    1.482E+01    1.484E+01    1.488E+01    1.492E+01    1.496E+01    1.502E+01    1.508E+01    1.516E+01
     1.524E+01    1.533E+01    1.542E+01    1.553E+01    1.565E+01    1.577E+01    1.590E+01    1.604E+01    1.618E+01    1.633E+01
     1.649E+01    1.665E+01    1.682E+01    1.700E+01    1.718E+01    1.737E+01    1.756E+01    1.775E+01    1.795E+01    1.816E+01
     1.836E+01    1.858E+01    1.879E+01    1.901E+01    1.923E+01    1.945E+01    1.968E+01    1.991E+01    2.013E+01    2.037E+01
     2.060E+01    2.083E+01    2.106E+01    2.130E+01    2.153E+01    2.176E+01    2.200E+01    2.223E+01    2.246E+01    2.269E+01
     2.292E+01    2.315E+01    2.337E+01    2.360E+01    2.382E+01    2.404E+01    2.425E+01    2.446E+01    2.467E+01    2.488E+01
     2.508E+01    2.527E+01    2.546E+01    2.565E+01    2.583E+01    2.601E+01    2.618E+01    2.634E+01    2.650E+01    2.666E+01
     2.680E+01    2.694E+01    2.707E+01    2.720E+01    2.732E+01    2.743E+01    2.753E+01    2.763E+01    2.772E+01    2.780E+01
     2.788E+01    2.795E+01    2.801E+01    2.807E+01    2.812E+01    2.816E+01    2.820E+01    2.823E+01    2.825E+01    2.826E+01
     2.827E+01    2.827E+01    2.827E+01    2.825E+01    2.823E+01    2.821E+01    2.817E+01    2.813E+01    2.809E+01    2.803E+01
     2.797E+01    2.790E+01    2.783E+01    2.774E+01    2.766E+01    2.756E+01    2.746E+01    2.735E+01    2.724E+01    2.712E+01
     2.699E+01    2.686E+01    2.673E+01    2.658E+01    2.644E+01    2.629E+01    2.613E+01    2.597E+01    2.580E+01    2.563E+01
     2.545E+01    2.527E+01    2.509E+01    2.490E+01    2.470E+01    2.451E+01    2.431E+01    2.410E+01    2.389E+01    2.368E+01
     2.347E+01    2.325E+01    2.303E+01    2.281E+01    2.258E+01    2.235E+01    2.212E+01    2.189E+01    2.165E+01    2.141E+01
     2.117E+01    2.093E+01    2.069E+01    2.044E+01    2.020E+01    1.995E+01    1.970E+01    1.946E+01    1.921E+01    1.896E+01
     1.871E+01    1.846E+01    1.821E+01    1.795E+01    1.770E+01    1.745E+01    1.720E+01    1.695E+01    1.670E+01    1.646E+01
     1.621E+01    1.596E+01    1.572E+01    1.548E+01    1.524E+01    1.500E+01    1.476E+01    1.453E+01    1.430E+01    1.407E+01
     1.384E+01    1.362E+01    1.340E+01    1.319E+01    1.298E+01    1.278E+01    1.258E+01    1.238E+01    1.219E+01    1.201E+01
     1.183E+01    1.166E+01    1.149E+01    1.133E+01    1.118E+01    1.103E+01    1.090E+01    1.076E+01    1.064E+01    1.052E+01
     1.042E+01    1.032E+01    1.022E+01    1.014E+01    1.006E+01    9.988E+00    9.920E+00    9.857E+00    9.798E+00    9.743E+00
     9.691E+00    9.641E+00    9.594E+00    9.548E+00    9.502E+00    9.458E+00    9.413E+00    9.367E+00    9.320E+00    9.271E+00
     9.220E+00    9.166E+00    9.109E+00    9.047E+00    8.981E+00    8.910E+00    8.833E+00    8.750E+00    8.660E+00    8.563E+00
     8.458E+00    8.345E+00    8.223E+00    8.093E+00    7.955E+00    7.807E+00    7.651E+00    7.486E+00    7.311E+00    7.127E+00
     6.934E+00    6.731E+00    6.518E+00    6.296E+00    6.063E+00    5.820E+00    5.567E+00    5.303E+00    5.029E+00    4.744E+00
     4.447E+00    4.140E+00    3.822E+00    3.492E+00    3.151E+00    2.798E+00    2.433E+00    2.057E+00    1.668E+00    1.267E+00
     8.541E-01    4.295E-01   -4.798E-03   -4.471E-01   -8.958E-01   -1.349E+00   -1.805E+00   -2.262E+00   -2.719E+00   -3.173E+00
    -3.623E+00   -4.068E+00   -4.505E+00   -4.933E+00   -5.350E+00   -5.754E+00   -6.144E+00   -6.518E+00   -6.874E+00   -7.210E+00
    -7.526E+00   -7.818E+00   -8.085E+00   -8.327E+00   -8.540E+00   -8.723E+00   -8.875E+00   -8.993E+00   -9.076E+00   -9.123E+00
    -9.132E+00   -9.101E+00   -9.033E+00   -8.929E+00   -8.788E+00   -8.613E+00   -8.403E+00   -8.160E+00   -7.885E+00   -7.578E+00
    -7.241E+00   -6.874E+00   -6.479E+00   -6.055E+00   -5.604E+00   -5.127E+00   -4.625E+00   -4.099E+00   -3.549E+00   -2.976E+00
    -2.382E+00   -1.767E+00   -1.132E+00   -4.778E-01    1.946E-01    8.842E-01    1.590E+00    2.312E+00    3.048E+00    3.798E+00
     4.561E+00    5.335E+00    6.121E+00    6.915E+00    7.718E+00    8.528E+00    9.344E+00    1.017E+01    1.099E+01    1.182E+01
     1.264E+01    1.347E+01    1.430E+01    1.512E+01    1.595E+01    1.676E+01    1.757E+01    1.838E+01    1.917E+01    1.996E+01
     2.074E+01    2.150E+01    2.225E+01    2.299E+01    2.371E+01    2.442E+01    2.511E+01    2.578E+01    2.643E+01    2.706E+01
     2.767E+01    2.825E+01    2.881E+01    2.935E+01    2.987E+01    3.037E+01    3.084E+01    3.129E+01    3.171E+01    3.211E+01
     3.249E+01    3.285E+01    3.318E+01    3.349E+01    3.378E+01    3.404E+01    3.428E+01    3.449E+01    3.469E+01    3.485E+01
     3.500E+01    3.512E+01    3.521E+01    3.529E+01    3.533E+01    3.536E+01    3.536E+01    3.533E+01    3.528E+01    3.521E+01
     3.511E+01    3.499E+01    3.484E+01    3.468E+01    3.449E+01    3.428E+01    3.405E+01    3.380E+01    3.353E+01    3.324E+01
     3.294E+01    3.262E+01    3.228E+01    3.193E+01    3.157E+01    3.119E+01    3.080E+01    3.040E+01    2.998E+01    2.956E+01
     2.913E+01    2.868E+01    2.823E+01    2.778E+01    2.731E+01    2.684E+01    2.637E+01    2.589E+01    2.541E+01    2.492E+01
     2.443E+01    2.394E+01    2.345E+01    2.296E+01    2.247E+01    2.197E+01    2.148E+01    2.098E+01    2.049E+01    2.000E+01
     1.950E+01    1.901E+01    1.852E+01    1.802E+01    1.753E+01    1.705E+01    1.656E+01    1.607E+01    1.559E+01    1.511E+01
     1.463E+01    1.416E+01    1.369E+01    1.322E+01    1.276E+01    1.230E+01    1.184E+01    1.139E+01    1.094E+01    1.050E+01
     1.006E+01    9.631E+00    9.204E+00    8.781E+00    8.362E+00    7.948E+00    7.537E+00    7.130E+00    6.726E+00    6.325E+00
     5.928E+00    5.533E+00    5.141E+00    4.751E+00    4.364E+00    3.978E+00    3.594E+00    3.212E+00    2.831E+00    2.451E+00
     2.072E+00    1.694E+00    1.316E+00    9.382E-01    5.607E-01    1.830E-01   -1.950E-01   -5.736E-01   -9.530E-01   -1.334E+00
 Mac      Conc. = 2.16E-04
   6.07960E-01  1.41811E-01 -2.24165E-01 -4.83936E-01 -7.29956E-01 -1.07488E+00 -1.73150E+00 -2.67004E+00 -3.91714E+00 -5.19355E+00
  -6.23114E+00 -7.05129E+00 -7.45920E+00 -8.02734E+00 -8.44604E+00 -9.43064E+00 -1.07283E+01 -1.13946E+01 -1.11189E+01 -9.62806E+00
  -7.20265E+00 -4.13260E+00 -1.07060E+00  1.49959E+00  3.43324E+00  4.90867E+00  6.04715E+00  7.23388E+00  8.48493E+00  1.00085E+01
   1.15263E+01  1.29693E+01  1.41778E+01  1.49952E+01  1.54536E+01  1.55855E+01  1.57357E+01  1.62127E+01  1.72783E+01  1.86150E+01
   1.99142E+01  2.09284E+01  2.15532E+01  2.21684E+01  2.28654E+01  2.38445E+01  2.48125E+01  2.55546E+01  2.59496E+01  2.57647E+01
   2.52976E+01  2.45350E+01  2.37668E+01  2.30600E+01  2.25698E+01  2.21714E+01  2.20274E+01  2.23894E+01  2.29981E+01  2.39876E+01
   2.52740E+01  2.66014E+01  2.78515E+01  2.87503E+01  2.92052E+01  2.92298E+01  2.88346E+01  2.84727E+01  2.79163E+01  2.76409E+01
   2.77271E+01  2.85445E+01  2.99088E+01  3.16598E+01  3.33785E+01  3.48332E+01  3.57488E+01  3.61557E+01  3.61171E+01  3.58616E+01
   3.55603E+01  3.51365E+01  3.49032E+01  3.48297E+01  3.50007E+01  3.54636E+01  3.60285E+01  3.68655E+01  3.75562E+01  3.83309E+01
   3.89708E+01  3.96287E+01  4.01115E+01  4.06531E+01  4.07899E+01  4.06523E+01  3.99548E+01  3.88743E+01  3.73069E+01  3.57350E+01
   3.42283E+01  3.28903E+01  3.15909E+01  3.00249E+01  2.79515E+01  2.50577E+01  2.10396E+01  1.63857E+01  1.16843E+01  7.79634E+00
