 LCModel (Version 6.3-1N) Copyright: S.W. Provencher.          Ref.: Magn. Reson. Med. 30:672-679 (1993).                
 Slice_N1@23_19  28-Feb-2025 11:43:41
 27 lines in following concentration table = NCONC+1
    Conc.  %SD /Cr+PCr  Metabolite                                         
 2.58E-04   3% 3.5E-04 Mac                                                 
    5.851  11%   8.000 Cr                                                  
    0.000 999%   0.000 PCr                                                 
    6.421  14%   8.780 Ins                                                 
    4.363  19%   5.966 NAA                                                 
    4.255  23%   5.818 Tau                                                 
    0.000 999%   0.000 PCho                                                
    2.057  11%   2.812 GPC                                                 
    8.183  11%  11.190 Glu                                                 
    4.035  20%   5.517 Gln                                                 
    0.000 999%   0.000 Ala                                                 
    1.932  60%   2.642 Asc                                                 
    2.102  48%   2.874 Asp                                                 
    1.130  50%   1.545 GABA                                                
    1.160  65%   1.586 Glc                                                 
    2.131  24%   2.914 GSH                                                 
    5.640  12%   7.711 Lac                                                 
    5.542  11%   7.578 NAAG                                                
    0.000 999%   0.000 PE                                                  
    2.057  11%   2.812 GPC+PCho                                            
    9.905   7%  13.544 NAA+NAAG                                            
   12.218  10%  16.706 Glu+Gln                                             
    5.851  11%   8.000 Cr+PCr                                              
    9.905   7%  13.544 NAA+NAAG                                            
    5.851  11%   8.000 Cr+PCr                                              
   12.218  10%  16.706 Glu+Gln                                             
   6 lines in following misc. output table
  FWHM = 0.065 ppm    S/N =   3                                            
  Data shift =-0.024 ppm                                                   
  Ph: -52 deg       0.0 deg/ppm                                            
  alphaB,S = 7.3E-01,   4.6E+01                                            
   19 spline knots.   Ns = 8(1)                                            
  (10) 2 infls.   ( 5) 1 extrs.                                            
  480 points on ppm-axis = NY
      4.100000     4.091866     4.083733     4.075600     4.067466     4.059333     4.051199     4.043066     4.034933     4.026799
      4.018666     4.010532     4.002399     3.994265     3.986132     3.977998     3.969864     3.961731     3.953597     3.945463
      3.937330     3.929196     3.921062     3.912929     3.904795     3.896662     3.888528     3.880394     3.872261     3.864127
      3.855993     3.847860     3.839726     3.831592     3.823459     3.815325     3.807191     3.799058     3.790924     3.782790
      3.774657     3.766523     3.758389     3.750256     3.742122     3.733989     3.725855     3.717721     3.709588     3.701454
      3.693320     3.685187     3.677053     3.668919     3.660786     3.652652     3.644518     3.636385     3.628251     3.620117
      3.611984     3.603850     3.595716     3.587583     3.579449     3.571316     3.563182     3.555048     3.546915     3.538781
      3.530647     3.522514     3.514380     3.506246     3.498113     3.489979     3.481845     3.473712     3.465578     3.457444
      3.449311     3.441177     3.433043     3.424910     3.416776     3.408643     3.400509     3.392375     3.384242     3.376108
      3.367974     3.359841     3.351707     3.343573     3.335440     3.327306     3.319172     3.311039     3.302905     3.294771
      3.286638     3.278504     3.270370     3.262237     3.254103     3.245970     3.237836     3.229702     3.221569     3.213435
      3.205301     3.197168     3.189034     3.180900     3.172767     3.164633     3.156499     3.148366     3.140232     3.132098
      3.123965     3.115831     3.107697     3.099564     3.091430     3.083297     3.075163     3.067029     3.058896     3.050762
      3.042628     3.034495     3.026361     3.018227     3.010094     3.001960     2.993826     2.985693     2.977559     2.969425
      2.961292     2.953158     2.945024     2.936891     2.928757     2.920624     2.912490     2.904356     2.896223     2.888089
      2.879955     2.871822     2.863688     2.855554     2.847421     2.839287     2.831153     2.823020     2.814886     2.806752
      2.798619     2.790485     2.782351     2.774218     2.766084     2.757951     2.749817     2.741683     2.733550     2.725416
      2.717282     2.709149     2.701015     2.692881     2.684748     2.676614     2.668480     2.660347     2.652213     2.644079
      2.635946     2.627812     2.619678     2.611545     2.603411     2.595278     2.587144     2.579010     2.570877     2.562743
      2.554609     2.546476     2.538342     2.530208     2.522075     2.513941     2.505807     2.497674     2.489540     2.481406
      2.473273     2.465139     2.457006     2.448872     2.440738     2.432605     2.424471     2.416337     2.408204     2.400070
      2.391936     2.383803     2.375669     2.367535     2.359402     2.351268     2.343134     2.335001     2.326867     2.318733
      2.310600     2.302466     2.294333     2.286199     2.278065     2.269932     2.261798     2.253664     2.245531     2.237397
      2.229263     2.221130     2.212996     2.204862     2.196729     2.188595     2.180461     2.172328     2.164194     2.156060
      2.147927     2.139793     2.131660     2.123526     2.115392     2.107259     2.099125     2.090991     2.082858     2.074724
      2.066590     2.058457     2.050323     2.042189     2.034056     2.025922     2.017788     2.009655     2.001521     1.993387
      1.985254     1.977120     1.968987     1.960853     1.952719     1.944586     1.936452     1.928318     1.920185     1.912051
      1.903917     1.895784     1.887650     1.879516     1.871383     1.863249     1.855115     1.846982     1.838848     1.830714
      1.822581     1.814447     1.806314     1.798180     1.790046     1.781913     1.773779     1.765645     1.757512     1.749378
      1.741244     1.733111     1.724977     1.716843     1.708710     1.700576     1.692442     1.684309     1.676175     1.668041
      1.659908     1.651774     1.643641     1.635507     1.627373     1.619240     1.611106     1.602972     1.594839     1.586705
      1.578571     1.570438     1.562304     1.554170     1.546037     1.537903     1.529769     1.521636     1.513502     1.505368
      1.497235     1.489101     1.480968     1.472834     1.464700     1.456567     1.448433     1.440299     1.432166     1.424032
      1.415898     1.407765     1.399631     1.391497     1.383364     1.375230     1.367096     1.358963     1.350829     1.342695
      1.334562     1.326428     1.318295     1.310161     1.302027     1.293894     1.285760     1.277626     1.269493     1.261359
      1.253225     1.245092     1.236958     1.228824     1.220691     1.212557     1.204423     1.196290     1.188156     1.180022
      1.171889     1.163755     1.155622     1.147488     1.139354     1.131221     1.123087     1.114953     1.106820     1.098686
      1.090552     1.082419     1.074285     1.066151     1.058018     1.049884     1.041750     1.033617     1.025483     1.017349
      1.009216     1.001082     0.992949     0.984815     0.976681     0.968548     0.960414     0.952280     0.944147     0.936013
      0.927879     0.919746     0.911612     0.903478     0.895345     0.887211     0.879077     0.870944     0.862810     0.854676
      0.846543     0.838409     0.830276     0.822142     0.814008     0.805875     0.797741     0.789607     0.781474     0.773340
      0.765206     0.757073     0.748939     0.740805     0.732672     0.724538     0.716404     0.708271     0.700137     0.692003
      0.683870     0.675736     0.667603     0.659469     0.651335     0.643202     0.635068     0.626934     0.618801     0.610667
      0.602533     0.594400     0.586266     0.578132     0.569999     0.561865     0.553731     0.545598     0.537464     0.529330
      0.521197     0.513063     0.504930     0.496796     0.488662     0.480529     0.472395     0.464261     0.456128     0.447994
      0.439861     0.431727     0.423593     0.415460     0.407326     0.399192     0.391059     0.382925     0.374792     0.366658
      0.358524     0.350391     0.342257     0.334124     0.325990     0.317856     0.309723     0.301589     0.293455     0.285322
      0.277188     0.269055     0.260921     0.252787     0.244654     0.236520     0.228386     0.220253     0.212119     0.203986
 NY phased data points follow
  -2.48652E+01 -6.52351E+00 -1.47188E+01 -1.64642E+01 -1.98664E+01 -1.89839E+01 -9.26640E+00 -2.69563E+01 -2.22996E+01 -9.04283E+00
  -1.15841E+01 -3.02488E+01 -2.42555E+01 -3.51737E+01 -4.69493E+01 -3.99171E+01 -6.09610E+01 -5.57736E+01 -4.71684E+01 -5.46826E+01
  -7.00157E+01 -6.32699E+01 -4.94127E+01 -5.42425E+01 -4.99088E+01 -5.18133E+01 -4.65524E+01 -2.31820E+01 -1.47785E+01 -1.72827E+01
  -1.30871E+01 -6.77524E+00 -5.46811E+00 -2.10800E+01 -1.83927E+01 -1.99997E+01 -3.85127E+01 -3.52006E+01 -3.86209E+01 -4.81622E+01
  -5.04220E+01 -5.28876E+01 -6.14728E+01 -4.31943E+01 -3.74696E+01 -4.10949E+01 -2.04057E+01 -1.64902E+01 -1.54121E+01 -1.66876E+01
  -6.27843E+00 -8.78817E+00 -1.38346E+01 -7.48253E+00 -1.68829E+01 -1.57808E+01 -2.08275E+01 -2.08899E+01 -2.68475E+01 -3.28569E+01
  -2.20368E+01 -2.47710E+01 -1.93447E+01 -8.13523E+00 -1.45024E+01 -1.41193E+01 -4.42545E+00 -1.37235E+01 -2.04009E+01 -9.35521E+00
  -1.81542E+01 -2.68436E+01 -1.31109E+01 -7.84358E+00 -9.57899E+00 -7.35191E+00  3.10444E+00  6.34147E+00  8.11467E+00  1.03141E+01
   9.05569E+00  2.00005E+01  1.00175E+01  3.95108E+00 -3.41022E+00 -9.95539E+00  7.63085E+00 -4.76167E-01 -3.67349E+00  1.12169E+01
   8.10828E+00  1.23737E+01  3.05203E+01  3.82813E+01  3.62499E+01  3.25293E+01  4.90228E+01  4.10732E+01  2.61580E+01  3.58935E+01
   2.13714E+01  2.38571E+01  1.68540E+01  1.21428E+01  6.79012E+00 -1.20533E+01 -1.36683E+01 -3.71560E+01 -5.76617E+01 -8.12081E+01
  -9.63904E+01 -1.14430E+02 -1.11177E+02 -8.58165E+01 -8.83614E+01 -7.55118E+01 -6.02389E+01 -3.80293E+01 -4.11611E+01 -4.29038E+01
  -2.04269E+01 -2.40199E+01 -1.99031E+01 -4.58116E+00  1.35468E+01  8.05319E+00  1.05780E+01  3.98658E+01  4.07618E+01  3.58905E+01
   2.86473E+01  2.01195E+01  1.96892E+01 -1.45534E+01 -4.84793E+01 -5.37216E+01 -5.94529E+01 -6.08928E+01 -6.91233E+01 -8.49508E+01
  -8.69996E+01 -7.27405E+01 -6.70426E+01 -6.52614E+01 -6.22922E+01 -7.15434E+01 -7.94877E+01 -7.42547E+01 -7.17967E+01 -7.04455E+01
  -5.43581E+01 -6.64612E+01 -6.71217E+01 -4.54398E+01 -3.47129E+01 -4.04153E+01 -6.36455E+01 -4.56694E+01 -4.45712E+01 -5.24508E+01
  -4.32953E+01 -4.43056E+01 -2.72657E+01 -2.75630E+01 -4.40476E+01 -4.27022E+01 -4.15666E+01 -4.26723E+01 -1.86490E+01 -2.58272E+01
  -2.71360E+01 -4.42686E+00 -8.20444E+00 -1.23513E+01 -1.98576E+01 -4.56340E+00 -1.94517E+01 -2.75916E+01 -1.62662E+01 -2.63983E+01
  -2.54720E+01 -5.11994E+01 -4.72437E+01 -4.21172E+01 -5.19072E+01 -4.90780E+01 -6.23187E+01 -5.61059E+01 -4.74902E+01 -3.99277E+01
  -3.30145E+01 -4.76235E+01 -4.84818E+01 -3.46086E+01 -4.10675E+01 -3.46816E+01 -3.22177E+01 -3.65074E+01 -2.73281E+01 -2.32205E+01
  -1.29705E+01 -2.90374E+01 -3.11319E+01 -1.60593E+01 -2.37748E+01 -2.67539E+01 -2.40521E+01 -3.02430E+01 -4.98668E+01 -4.59539E+01
  -4.10718E+01 -4.38622E+01 -3.60747E+01 -2.92620E+01 -1.96734E+01 -1.93839E+01 -1.35699E+01 -8.98850E+00 -1.13672E+01 -4.87695E+00
  -8.59232E+00 -1.35905E+01 -1.19364E+01 -2.65068E+01 -2.61124E+01 -1.42435E+01 -1.97254E+01 -1.61389E+01 -3.10724E+01 -4.20558E+01
  -2.70716E+01 -3.81801E+01 -4.15818E+01 -4.13552E+01 -4.87721E+01 -4.28309E+01 -4.78493E+01 -4.75088E+01 -5.81618E+01 -6.34739E+01
  -5.18313E+01 -6.08856E+01 -5.34876E+01 -5.14003E+01 -5.74299E+01 -3.48005E+01 -2.87202E+01 -4.17422E+01 -3.94237E+01 -4.79548E+01
  -5.34091E+01 -4.24450E+01 -4.30753E+01 -3.66832E+01 -3.27175E+01 -2.17979E+01 -7.76610E+00  1.44793E+01  5.73979E+01  7.70124E+01
   8.36495E+01  8.52861E+01  8.85609E+01  9.55901E+01  9.13348E+01  7.69511E+01  6.86749E+01  6.86323E+01  6.98347E+01  5.44575E+01
   4.55826E+01  6.06218E+01  5.68660E+01  6.11716E+01  5.12129E+01  5.14375E+01  5.42632E+01  4.46313E+01  5.66994E+01  4.63052E+01
   5.72424E+01  4.34206E+01  3.66534E+01  6.02848E+01  6.32563E+01  6.13816E+01  4.54591E+01  5.10404E+01  3.37973E+01  3.65939E+01
   5.52770E+01  4.30551E+01  3.41555E+01  2.34434E+01  2.17192E+01  1.53402E+01  2.28809E+01  3.29742E+01  2.14921E+01  5.63956E+00
   1.66230E+01  2.31565E+01  7.74322E+00  9.76371E+00  3.37601E+01  3.51333E+01  2.95221E+01  4.41653E+01  1.55360E+01  3.60797E+01
   4.65862E+01  1.07069E+01  3.24956E+01  3.64343E+01  3.89705E+01  4.28216E+01  3.91185E+01  3.58362E+01  2.48722E+01  1.60866E+01
   3.18761E+01  3.63239E+01  1.42585E+01  2.57953E+01  3.67135E+01  4.46986E+01  3.24599E+01  2.41698E+01  2.62767E+01  2.63073E+01
   4.06201E+01  3.34078E+01  2.60922E+01  1.97239E+01  1.50495E+01  9.55215E+00  1.75792E+01  1.82333E+01  8.92021E+00  1.12616E+01
   7.40485E+00  1.85263E+01  2.51234E+01  1.83873E+01  2.03264E+01  1.85351E+01  1.07255E+01  2.13587E+01 -1.02171E+01 -2.16725E+01
  -2.36205E+00 -2.53601E+01 -1.43848E+01 -2.52838E+01 -3.25227E+01 -2.65486E+01 -3.84048E+01 -3.15499E+01 -2.56176E+01 -3.19544E+01
  -4.91926E+01 -3.38732E+01 -2.78872E+01 -2.60116E+01 -9.22180E+00 -1.22122E+01 -2.28043E+01 -2.82060E+00  1.57951E+01  7.52729E+00
   1.79267E+01  1.89337E+01  2.70828E+01  2.30916E+01  2.41487E+01  3.42467E+01  4.00204E+01  5.09893E+01  4.29873E+01  5.63892E+01
   5.40009E+01  6.97223E+01  7.88803E+01  7.85028E+01  8.45198E+01  6.96947E+01  9.10087E+01  8.78962E+01  9.59429E+01  9.35302E+01
   7.50353E+01  7.90389E+01  6.51343E+01  5.90145E+01  4.73185E+01  4.49108E+01  3.67881E+01  4.30458E+01  2.92230E+01  2.04992E+00
   1.44823E+01 -6.67865E-01 -2.17917E+00 -1.51287E+01 -3.16550E+01 -1.38434E+01 -2.40473E+01 -3.02154E+01 -2.74296E+01 -4.43992E+01
  -4.39860E+01 -2.62657E+01 -2.12509E+01 -3.10405E+01 -4.27990E+01 -4.03994E+01 -4.85033E+01 -3.14694E+01 -1.48926E+01 -4.30426E+01
  -3.43192E+01 -2.73201E+01 -4.28842E+01 -3.61882E+01 -3.24266E+01 -4.49513E+01 -3.46572E+01 -2.66848E+01 -3.38169E+01 -2.67623E+01
  -3.45589E+01 -2.47195E+01 -3.04075E+01 -3.42453E+01 -1.43276E+01 -2.36430E+01 -3.17120E+01 -3.56172E+01 -2.59961E+01 -3.16132E+01
  -3.82602E+01 -3.41936E+01 -3.01209E+01 -2.67965E+01 -3.18090E+01 -2.57650E+01 -3.06202E+01 -2.08800E+01 -2.09042E+01 -2.43944E+01
  -2.22175E+01 -3.28538E+01 -2.57572E+01 -3.24361E+01 -4.12283E+01 -2.53149E+01 -1.66211E+01 -3.32066E+01 -2.76421E+01 -1.86142E+01
  -2.15012E+01 -1.63299E+01 -1.28111E+01 -1.45692E+01 -1.38070E+01 -1.07432E+01 -2.30940E+01 -1.06097E+01 -2.54069E+01 -2.42524E+01
   2.44662E-01 -3.19787E+01 -1.69923E+01  2.81633E+00 -1.56493E+01 -2.01959E+01 -2.02544E+01 -1.62434E+01 -1.87536E+01 -2.74871E+01
 NY points of the fit to the data follow
  -4.52346E+01 -4.34074E+01 -4.14147E+01 -3.92329E+01 -3.68043E+01 -3.41696E+01 -3.15730E+01 -2.94875E+01 -2.83611E+01 -2.84049E+01
  -2.96373E+01 -3.18558E+01 -3.48376E+01 -3.83572E+01 -4.21567E+01 -4.58471E+01 -4.93614E+01 -5.29577E+01 -5.67019E+01 -6.00436E+01
  -6.22985E+01 -6.27989E+01 -6.07882E+01 -5.57883E+01 -4.78177E+01 -3.78512E+01 -2.71893E+01 -1.70861E+01 -8.57481E+00 -2.06028E+00
   1.93136E+00  3.23436E+00  2.47448E+00  4.90457E-01 -2.56123E+00 -6.73871E+00 -1.21386E+01 -1.85535E+01 -2.55188E+01 -3.24268E+01
  -3.84025E+01 -4.24373E+01 -4.36382E+01 -4.17665E+01 -3.71575E+01 -3.05467E+01 -2.29968E+01 -1.55967E+01 -9.54479E+00 -5.71046E+00
  -4.31270E+00 -4.95314E+00 -7.04521E+00 -1.00105E+01 -1.33430E+01 -1.65204E+01 -1.91605E+01 -2.11787E+01 -2.24396E+01 -2.26787E+01
  -2.17189E+01 -1.96783E+01 -1.67436E+01 -1.31577E+01 -9.65207E+00 -6.97575E+00 -5.60608E+00 -6.07073E+00 -8.30851E+00 -1.14310E+01
  -1.44064E+01 -1.63069E+01 -1.64101E+01 -1.44583E+01 -1.06702E+01 -5.65075E+00 -1.86851E-01  4.65640E+00  7.98580E+00  9.57147E+00
   9.48908E+00  7.80772E+00  4.91326E+00  1.56372E+00 -1.50298E+00 -3.60297E+00 -4.26854E+00 -3.28637E+00 -6.67800E-01  3.21614E+00
   7.90591E+00  1.28667E+01  1.76618E+01  2.19879E+01  2.56561E+01  2.85671E+01  3.08061E+01  3.23311E+01  3.30561E+01  3.29527E+01
   3.16002E+01  2.86770E+01  2.41708E+01  1.78390E+01  8.85380E+00 -3.07517E+00 -1.75973E+01 -3.41589E+01 -5.16804E+01 -6.83356E+01
  -8.15720E+01 -8.98317E+01 -9.25187E+01 -9.00003E+01 -8.37154E+01 -7.46283E+01 -6.40269E+01 -5.39104E+01 -4.53601E+01 -3.78693E+01
  -3.09036E+01 -2.41019E+01 -1.71443E+01 -9.76990E+00 -2.24125E+00  5.17397E+00  1.24423E+01  1.91416E+01  2.39824E+01  2.58297E+01
   2.39625E+01  1.77313E+01  7.05332E+00 -7.25759E+00 -2.30728E+01 -3.82145E+01 -5.10547E+01 -6.06773E+01 -6.72193E+01 -7.05262E+01
  -7.10984E+01 -7.05917E+01 -7.03398E+01 -7.02645E+01 -7.01337E+01 -6.98142E+01 -6.91589E+01 -6.80983E+01 -6.66595E+01 -6.48864E+01
  -6.28842E+01 -6.07579E+01 -5.85788E+01 -5.63971E+01 -5.42759E+01 -5.22525E+01 -5.03426E+01 -4.85492E+01 -4.68707E+01 -4.53153E+01
  -4.38782E+01 -4.25261E+01 -4.12061E+01 -3.98802E+01 -3.85203E+01 -3.71067E+01 -3.56343E+01 -3.40577E+01 -3.23638E+01 -3.05724E+01
  -2.86999E+01 -2.68598E+01 -2.53261E+01 -2.44382E+01 -2.43983E+01 -2.51797E+01 -2.66245E+01 -2.86337E+01 -3.11286E+01 -3.39945E+01
  -3.69627E+01 -3.97372E+01 -4.22454E+01 -4.44454E+01 -4.62230E+01 -4.74000E+01 -4.77136E+01 -4.70561E+01 -4.55950E+01 -4.34695E+01
  -4.07537E+01 -3.76512E+01 -3.44640E+01 -3.14891E+01 -2.88464E+01 -2.66573E+01 -2.50521E+01 -2.40337E+01 -2.35326E+01 -2.32992E+01
  -2.31717E+01 -2.32120E+01 -2.34224E+01 -2.37609E+01 -2.43653E+01 -2.54696E+01 -2.72512E+01 -2.96302E+01 -3.23348E+01 -3.50567E+01
  -3.73374E+01 -3.85276E+01 -3.80259E+01 -3.55425E+01 -3.10474E+01 -2.49392E+01 -1.79551E+01 -1.10773E+01 -5.25251E+00 -1.01067E+00
   1.25923E+00  1.67994E+00  6.42928E-01 -1.54399E+00 -4.49142E+00 -8.07015E+00 -1.24937E+01 -1.79537E+01 -2.45452E+01 -3.23186E+01
  -4.10118E+01 -5.00503E+01 -5.86675E+01 -6.61751E+01 -7.18849E+01 -7.53509E+01 -7.64229E+01 -7.52264E+01 -7.21770E+01 -6.77458E+01
  -6.26151E+01 -5.73759E+01 -5.24034E+01 -4.81784E+01 -4.51259E+01 -4.33389E+01 -4.27786E+01 -4.35595E+01 -4.56585E+01 -4.84795E+01
  -5.05071E+01 -5.05691E+01 -4.77472E+01 -4.09165E+01 -2.93979E+01 -1.38581E+01  4.01873E+00  2.26260E+01  4.05816E+01  5.66056E+01
   6.92628E+01  7.72984E+01  8.08965E+01  8.14663E+01  7.99006E+01  7.61561E+01  7.09230E+01  6.54728E+01  6.06011E+01  5.64693E+01
   5.31548E+01  5.07490E+01  4.92862E+01  4.87341E+01  4.89625E+01  4.97377E+01  5.08090E+01  5.18909E+01  5.27640E+01  5.32723E+01
   5.33087E+01  5.28499E+01  5.19291E+01  5.06015E+01  4.89301E+01  4.69771E+01  4.47889E+01  4.24096E+01  3.98660E+01  3.71882E+01
   3.44231E+01  3.16564E+01  2.90140E+01  2.66387E+01  2.46861E+01  2.32946E+01  2.25609E+01  2.25229E+01  2.31425E+01  2.43301E+01
   2.59686E+01  2.79223E+01  3.00556E+01  3.22640E+01  3.44780E+01  3.66604E+01  3.87997E+01  4.08877E+01  4.29143E+01  4.48638E+01
   4.67049E+01  4.83967E+01  4.98962E+01  5.11525E+01  5.21051E+01  5.26944E+01  5.28788E+01  5.26248E+01  5.19017E+01  5.06875E+01
   4.89668E+01  4.67320E+01  4.39769E+01  4.06803E+01  3.68235E+01  3.24158E+01  2.75103E+01  2.22117E+01  1.67286E+01  1.13657E+01
   6.48252E+00  2.45954E+00 -3.47171E-01 -1.64264E+00 -1.32818E+00  4.68732E-01  3.52943E+00  7.40053E+00  1.14180E+01  1.48119E+01
   1.68231E+01  1.66441E+01  1.38405E+01  8.51076E+00  1.29967E+00 -6.63966E+00 -1.40957E+01 -1.98889E+01 -2.34950E+01 -2.49110E+01
  -2.44255E+01 -2.29229E+01 -2.12182E+01 -1.98775E+01 -1.92294E+01 -1.92169E+01 -1.93282E+01 -1.91830E+01 -1.85440E+01 -1.72995E+01
  -1.54405E+01 -1.30298E+01 -1.01990E+01 -7.09852E+00 -3.85370E+00 -5.67436E-01  2.69113E+00  5.89440E+00  9.03679E+00  1.21416E+01
   1.52519E+01  1.84223E+01  2.17093E+01  2.51753E+01  2.88916E+01  3.29139E+01  3.72770E+01  4.20047E+01  4.70999E+01  5.25156E+01
   5.81482E+01  6.38379E+01  6.93480E+01  7.43831E+01  7.85813E+01  8.15458E+01  8.29230E+01  8.24838E+01  8.01502E+01  7.60268E+01
   7.04209E+01  6.37549E+01  5.64657E+01  4.89299E+01  4.14120E+01  3.40401E+01  2.68404E+01  1.97935E+01  1.28910E+01  6.19450E+00
  -1.63718E-01 -6.01397E+00 -1.12062E+01 -1.56254E+01 -1.92328E+01 -2.20774E+01 -2.42582E+01 -2.58988E+01 -2.71261E+01 -2.80526E+01
  -2.87490E+01 -2.92571E+01 -2.96074E+01 -2.98335E+01 -2.99593E+01 -2.99987E+01 -2.99677E+01 -2.98914E+01 -2.97898E+01 -2.96713E+01
  -2.95325E+01 -2.93785E+01 -2.92198E+01 -2.90629E+01 -2.89029E+01 -2.87321E+01 -2.85576E+01 -2.83839E+01 -2.82029E+01 -2.80083E+01
  -2.78142E+01 -2.76328E+01 -2.74639E+01 -2.72971E+01 -2.71211E+01 -2.69358E+01 -2.67345E+01 -2.65122E+01 -2.62718E+01 -2.60287E+01
  -2.57998E+01 -2.55951E+01 -2.54217E+01 -2.52775E+01 -2.51540E+01 -2.50340E+01 -2.49061E+01 -2.47611E+01 -2.45973E+01 -2.44188E+01
  -2.42253E+01 -2.40183E+01 -2.38004E+01 -2.35733E+01 -2.33395E+01 -2.30989E+01 -2.28544E+01 -2.26152E+01 -2.23863E+01 -2.21725E+01
  -2.19793E+01 -2.18049E+01 -2.16397E+01 -2.14730E+01 -2.12890E+01 -2.10788E+01 -2.08417E+01 -2.05857E+01 -2.03237E+01 -2.00686E+01
  -1.98394E+01 -1.96469E+01 -1.94813E+01 -1.93283E+01 -1.91744E+01 -1.90065E+01 -1.88052E+01 -1.85586E+01 -1.82543E+01 -1.78790E+01
 NY background values follow
    -1.538E+01   -1.537E+01   -1.536E+01   -1.535E+01   -1.534E+01   -1.532E+01   -1.531E+01   -1.530E+01   -1.529E+01   -1.528E+01
    -1.527E+01   -1.525E+01   -1.524E+01   -1.523E+01   -1.522E+01   -1.520E+01   -1.519E+01   -1.518E+01   -1.516E+01   -1.515E+01
    -1.514E+01   -1.512E+01   -1.511E+01   -1.510E+01   -1.508E+01   -1.507E+01   -1.505E+01   -1.504E+01   -1.502E+01   -1.500E+01
    -1.499E+01   -1.497E+01   -1.495E+01   -1.494E+01   -1.492E+01   -1.490E+01   -1.488E+01   -1.486E+01   -1.484E+01   -1.482E+01
    -1.480E+01   -1.478E+01   -1.476E+01   -1.474E+01   -1.472E+01   -1.470E+01   -1.467E+01   -1.465E+01   -1.463E+01   -1.460E+01
    -1.458E+01   -1.456E+01   -1.453E+01   -1.451E+01   -1.448E+01   -1.446E+01   -1.443E+01   -1.440E+01   -1.438E+01   -1.435E+01
    -1.432E+01   -1.429E+01   -1.427E+01   -1.424E+01   -1.421E+01   -1.418E+01   -1.415E+01   -1.412E+01   -1.409E+01   -1.406E+01
    -1.403E+01   -1.400E+01   -1.397E+01   -1.394E+01   -1.391E+01   -1.387E+01   -1.384E+01   -1.381E+01   -1.378E+01   -1.374E+01
    -1.371E+01   -1.368E+01   -1.364E+01   -1.361E+01   -1.358E+01   -1.354E+01   -1.351E+01   -1.347E+01   -1.344E+01   -1.340E+01
    -1.337E+01   -1.334E+01   -1.330E+01   -1.327E+01   -1.323E+01   -1.319E+01   -1.316E+01   -1.312E+01   -1.309E+01   -1.305E+01
    -1.302E+01   -1.298E+01   -1.294E+01   -1.291E+01   -1.287E+01   -1.284E+01   -1.280E+01   -1.276E+01   -1.273E+01   -1.269E+01
    -1.265E+01   -1.262E+01   -1.258E+01   -1.254E+01   -1.251E+01   -1.247E+01   -1.243E+01   -1.240E+01   -1.236E+01   -1.232E+01
    -1.229E+01   -1.225E+01   -1.221E+01   -1.218E+01   -1.214E+01   -1.210E+01   -1.207E+01   -1.203E+01   -1.199E+01   -1.196E+01
    -1.192E+01   -1.188E+01   -1.185E+01   -1.181E+01   -1.177E+01   -1.174E+01   -1.170E+01   -1.167E+01   -1.163E+01   -1.159E+01
    -1.156E+01   -1.152E+01   -1.149E+01   -1.145E+01   -1.142E+01   -1.138E+01   -1.135E+01   -1.131E+01   -1.128E+01   -1.124E+01
    -1.121E+01   -1.117E+01   -1.114E+01   -1.111E+01   -1.107E+01   -1.104E+01   -1.101E+01   -1.097E+01   -1.094E+01   -1.091E+01
    -1.088E+01   -1.084E+01   -1.081E+01   -1.078E+01   -1.075E+01   -1.072E+01   -1.069E+01   -1.066E+01   -1.063E+01   -1.060E+01
    -1.057E+01   -1.054E+01   -1.051E+01   -1.048E+01   -1.045E+01   -1.042E+01   -1.039E+01   -1.036E+01   -1.034E+01   -1.031E+01
    -1.028E+01   -1.026E+01   -1.023E+01   -1.020E+01   -1.018E+01   -1.015E+01   -1.013E+01   -1.010E+01   -1.008E+01   -1.006E+01
    -1.003E+01   -1.001E+01   -9.985E+00   -9.963E+00   -9.940E+00   -9.918E+00   -9.896E+00   -9.875E+00   -9.854E+00   -9.833E+00
    -9.813E+00   -9.793E+00   -9.773E+00   -9.754E+00   -9.735E+00   -9.716E+00   -9.698E+00   -9.680E+00   -9.662E+00   -9.645E+00
    -9.628E+00   -9.611E+00   -9.595E+00   -9.579E+00   -9.564E+00   -9.549E+00   -9.534E+00   -9.520E+00   -9.506E+00   -9.493E+00
    -9.479E+00   -9.467E+00   -9.455E+00   -9.443E+00   -9.432E+00   -9.421E+00   -9.411E+00   -9.401E+00   -9.392E+00   -9.383E+00
    -9.375E+00   -9.367E+00   -9.359E+00   -9.353E+00   -9.347E+00   -9.341E+00   -9.336E+00   -9.331E+00   -9.327E+00   -9.324E+00
    -9.321E+00   -9.319E+00   -9.317E+00   -9.316E+00   -9.316E+00   -9.316E+00   -9.317E+00   -9.318E+00   -9.320E+00   -9.323E+00
    -9.326E+00   -9.329E+00   -9.334E+00   -9.338E+00   -9.344E+00   -9.349E+00   -9.356E+00   -9.363E+00   -9.370E+00   -9.379E+00
    -9.387E+00   -9.396E+00   -9.406E+00   -9.416E+00   -9.427E+00   -9.439E+00   -9.451E+00   -9.463E+00   -9.476E+00   -9.489E+00
    -9.503E+00   -9.518E+00   -9.533E+00   -9.549E+00   -9.565E+00   -9.581E+00   -9.598E+00   -9.615E+00   -9.633E+00   -9.652E+00
    -9.670E+00   -9.689E+00   -9.709E+00   -9.729E+00   -9.749E+00   -9.769E+00   -9.790E+00   -9.811E+00   -9.833E+00   -9.855E+00
    -9.877E+00   -9.899E+00   -9.922E+00   -9.945E+00   -9.968E+00   -9.992E+00   -1.002E+01   -1.004E+01   -1.006E+01   -1.009E+01
    -1.011E+01   -1.014E+01   -1.016E+01   -1.019E+01   -1.021E+01   -1.024E+01   -1.026E+01   -1.029E+01   -1.031E+01   -1.034E+01
    -1.037E+01   -1.039E+01   -1.042E+01   -1.044E+01   -1.047E+01   -1.050E+01   -1.053E+01   -1.055E+01   -1.058E+01   -1.061E+01
    -1.064E+01   -1.067E+01   -1.070E+01   -1.072E+01   -1.075E+01   -1.078E+01   -1.081E+01   -1.084E+01   -1.087E+01   -1.090E+01
    -1.093E+01   -1.096E+01   -1.100E+01   -1.103E+01   -1.106E+01   -1.109E+01   -1.112E+01   -1.116E+01   -1.119E+01   -1.122E+01
    -1.125E+01   -1.129E+01   -1.132E+01   -1.135E+01   -1.139E+01   -1.142E+01   -1.146E+01   -1.149E+01   -1.153E+01   -1.156E+01
    -1.160E+01   -1.163E+01   -1.167E+01   -1.170E+01   -1.174E+01   -1.177E+01   -1.181E+01   -1.185E+01   -1.188E+01   -1.192E+01
    -1.196E+01   -1.200E+01   -1.203E+01   -1.207E+01   -1.211E+01   -1.215E+01   -1.219E+01   -1.222E+01   -1.226E+01   -1.230E+01
    -1.234E+01   -1.238E+01   -1.242E+01   -1.246E+01   -1.250E+01   -1.254E+01   -1.258E+01   -1.262E+01   -1.266E+01   -1.270E+01
    -1.274E+01   -1.278E+01   -1.282E+01   -1.286E+01   -1.291E+01   -1.295E+01   -1.299E+01   -1.303E+01   -1.307E+01   -1.312E+01
    -1.316E+01   -1.320E+01   -1.325E+01   -1.329E+01   -1.333E+01   -1.338E+01   -1.342E+01   -1.347E+01   -1.351E+01   -1.355E+01
    -1.360E+01   -1.364E+01   -1.369E+01   -1.373E+01   -1.378E+01   -1.382E+01   -1.387E+01   -1.391E+01   -1.396E+01   -1.400E+01
    -1.405E+01   -1.409E+01   -1.414E+01   -1.418E+01   -1.423E+01   -1.428E+01   -1.432E+01   -1.437E+01   -1.441E+01   -1.446E+01
    -1.450E+01   -1.455E+01   -1.459E+01   -1.464E+01   -1.468E+01   -1.473E+01   -1.478E+01   -1.482E+01   -1.487E+01   -1.491E+01
    -1.496E+01   -1.500E+01   -1.505E+01   -1.509E+01   -1.514E+01   -1.518E+01   -1.523E+01   -1.527E+01   -1.532E+01   -1.536E+01
    -1.541E+01   -1.545E+01   -1.550E+01   -1.554E+01   -1.559E+01   -1.563E+01   -1.567E+01   -1.572E+01   -1.576E+01   -1.581E+01
    -1.585E+01   -1.590E+01   -1.594E+01   -1.598E+01   -1.603E+01   -1.607E+01   -1.612E+01   -1.616E+01   -1.620E+01   -1.625E+01
    -1.629E+01   -1.634E+01   -1.638E+01   -1.642E+01   -1.647E+01   -1.651E+01   -1.655E+01   -1.660E+01   -1.664E+01   -1.668E+01
    -1.673E+01   -1.677E+01   -1.682E+01   -1.686E+01   -1.690E+01   -1.695E+01   -1.699E+01   -1.703E+01   -1.708E+01   -1.712E+01
 Mac      Conc. = 2.58E-04
  -3.35971E+01 -3.40790E+01 -3.45951E+01 -3.51678E+01 -3.58270E+01 -3.65882E+01 -3.74421E+01 -3.83711E+01 -3.93399E+01 -4.02903E+01
  -4.11608E+01 -4.19182E+01 -4.25441E+01 -4.29950E+01 -4.32160E+01 -4.31500E+01 -4.27109E+01 -4.18074E+01 -4.03940E+01 -3.85153E+01
  -3.62907E+01 -3.38704E+01 -3.14170E+01 -2.90767E+01 -2.69522E+01 -2.50936E+01 -2.34575E+01 -2.19649E+01 -2.05778E+01 -1.92892E+01
  -1.80989E+01 -1.70240E+01 -1.60916E+01 -1.52927E+01 -1.45867E+01 -1.39155E+01 -1.32231E+01 -1.24639E+01 -1.16292E+01 -1.07567E+01
  -9.89504E+00 -9.08633E+00 -8.35623E+00 -7.72774E+00 -7.23004E+00 -6.89583E+00 -6.74652E+00 -6.78289E+00 -7.01195E+00 -7.42913E+00
  -7.99768E+00 -8.64762E+00 -9.27788E+00 -9.78873E+00 -1.01096E+01 -1.02052E+01 -1.00568E+01 -9.67432E+00 -9.11191E+00 -8.44711E+00
  -7.76479E+00 -7.15120E+00 -6.67812E+00 -6.38536E+00 -6.28382E+00 -6.33711E+00 -6.44801E+00 -6.51530E+00 -6.45542E+00 -6.19122E+00
  -5.67900E+00 -4.93462E+00 -4.03542E+00 -3.10038E+00 -2.25765E+00 -1.59580E+00 -1.17057E+00 -9.97935E-01 -1.05481E+00 -1.25843E+00
  -1.50036E+00 -1.69368E+00 -1.77355E+00 -1.69952E+00 -1.46468E+00 -1.09194E+00 -6.20634E-01 -1.09271E-01  3.91022E-01  8.29428E-01
   1.14820E+00  1.29768E+00  1.23434E+00  9.18216E-01  3.10355E-01 -6.05537E-01 -1.82481E+00 -3.32814E+00 -5.09293E+00 -7.08462E+00
  -9.28990E+00 -1.17241E+01 -1.44176E+01 -1.73906E+01 -2.06215E+01 -2.40261E+01 -2.74407E+01 -3.06368E+01 -3.33353E+01 -3.52871E+01
