 LCModel (Version 6.3-1N) Copyright: S.W. Provencher.          Ref.: Magn. Reson. Med. 30:672-679 (1993).                
 Slice_N1@15_10  28-Feb-2025 11:37:56
 27 lines in following concentration table = NCONC+1
    Conc.  %SD /Cr+PCr  Metabolite                                         
 2.89E-04   4% 3.1E-04 Mac                                                 
    3.446  33%   3.648 Cr                                                  
    4.111  27%   4.352 PCr                                                 
    5.214  14%   5.520 Ins                                                 
   10.320   7%  10.926 NAA                                                 
    5.054  14%   5.351 Tau                                                 
    1.347  17%   1.426 PCho                                                
    0.000 999%   0.000 GPC                                                 
    8.755  10%   9.268 Glu                                                 
    4.304  15%   4.557 Gln                                                 
    3.171  17%   3.358 Ala                                                 
    1.818  51%   1.925 Asc                                                 
    3.426  25%   3.627 Asp                                                 
 8.19E-02 541% 8.7E-02 GABA                                                
    0.686  88%   0.727 Glc                                                 
    0.597  67%   0.632 GSH                                                 
    2.156  25%   2.282 Lac                                                 
    3.009  18%   3.186 NAAG                                                
    1.668  55%   1.765 PE                                                  
    1.347  17%   1.426 GPC+PCho                                            
   13.330   6%  14.111 NAA+NAAG                                            
   13.059   8%  13.825 Glu+Gln                                             
    7.557   8%   8.000 Cr+PCr                                              
   13.330   6%  14.111 NAA+NAAG                                            
    7.557   8%   8.000 Cr+PCr                                              
   13.059   8%  13.825 Glu+Gln                                             
   6 lines in following misc. output table
  FWHM = 0.041 ppm    S/N =   6                                            
  Data shift = 0.000 ppm                                                   
  Ph: 159 deg       0.0 deg/ppm                                            
  alphaB,S = 1.4E-01,   1.2E+01                                            
   19 spline knots.   Ns = 5(1)                                            
  ( 5) 2 infls.   ( 2) 2 extrs.                                            
  480 points on ppm-axis = NY
      4.100000     4.091866     4.083733     4.075600     4.067466     4.059333     4.051199     4.043066     4.034933     4.026799
      4.018666     4.010532     4.002399     3.994265     3.986132     3.977998     3.969864     3.961731     3.953597     3.945463
      3.937330     3.929196     3.921062     3.912929     3.904795     3.896662     3.888528     3.880394     3.872261     3.864127
      3.855993     3.847860     3.839726     3.831592     3.823459     3.815325     3.807191     3.799058     3.790924     3.782790
      3.774657     3.766523     3.758389     3.750256     3.742122     3.733989     3.725855     3.717721     3.709588     3.701454
      3.693320     3.685187     3.677053     3.668919     3.660786     3.652652     3.644518     3.636385     3.628251     3.620117
      3.611984     3.603850     3.595716     3.587583     3.579449     3.571316     3.563182     3.555048     3.546915     3.538781
      3.530647     3.522514     3.514380     3.506246     3.498113     3.489979     3.481845     3.473712     3.465578     3.457444
      3.449311     3.441177     3.433043     3.424910     3.416776     3.408643     3.400509     3.392375     3.384242     3.376108
      3.367974     3.359841     3.351707     3.343573     3.335440     3.327306     3.319172     3.311039     3.302905     3.294771
      3.286638     3.278504     3.270370     3.262237     3.254103     3.245970     3.237836     3.229702     3.221569     3.213435
      3.205301     3.197168     3.189034     3.180900     3.172767     3.164633     3.156499     3.148366     3.140232     3.132098
      3.123965     3.115831     3.107697     3.099564     3.091430     3.083297     3.075163     3.067029     3.058896     3.050762
      3.042628     3.034495     3.026361     3.018227     3.010094     3.001960     2.993826     2.985693     2.977559     2.969425
      2.961292     2.953158     2.945024     2.936891     2.928757     2.920624     2.912490     2.904356     2.896223     2.888089
      2.879955     2.871822     2.863688     2.855554     2.847421     2.839287     2.831153     2.823020     2.814886     2.806752
      2.798619     2.790485     2.782351     2.774218     2.766084     2.757951     2.749817     2.741683     2.733550     2.725416
      2.717282     2.709149     2.701015     2.692881     2.684748     2.676614     2.668480     2.660347     2.652213     2.644079
      2.635946     2.627812     2.619678     2.611545     2.603411     2.595278     2.587144     2.579010     2.570877     2.562743
      2.554609     2.546476     2.538342     2.530208     2.522075     2.513941     2.505807     2.497674     2.489540     2.481406
      2.473273     2.465139     2.457006     2.448872     2.440738     2.432605     2.424471     2.416337     2.408204     2.400070
      2.391936     2.383803     2.375669     2.367535     2.359402     2.351268     2.343134     2.335001     2.326867     2.318733
      2.310600     2.302466     2.294333     2.286199     2.278065     2.269932     2.261798     2.253664     2.245531     2.237397
      2.229263     2.221130     2.212996     2.204862     2.196729     2.188595     2.180461     2.172328     2.164194     2.156060
      2.147927     2.139793     2.131660     2.123526     2.115392     2.107259     2.099125     2.090991     2.082858     2.074724
      2.066590     2.058457     2.050323     2.042189     2.034056     2.025922     2.017788     2.009655     2.001521     1.993387
      1.985254     1.977120     1.968987     1.960853     1.952719     1.944586     1.936452     1.928318     1.920185     1.912051
      1.903917     1.895784     1.887650     1.879516     1.871383     1.863249     1.855115     1.846982     1.838848     1.830714
      1.822581     1.814447     1.806314     1.798180     1.790046     1.781913     1.773779     1.765645     1.757512     1.749378
      1.741244     1.733111     1.724977     1.716843     1.708710     1.700576     1.692442     1.684309     1.676175     1.668041
      1.659908     1.651774     1.643641     1.635507     1.627373     1.619240     1.611106     1.602972     1.594839     1.586705
      1.578571     1.570438     1.562304     1.554170     1.546037     1.537903     1.529769     1.521636     1.513502     1.505368
      1.497235     1.489101     1.480968     1.472834     1.464700     1.456567     1.448433     1.440299     1.432166     1.424032
      1.415898     1.407765     1.399631     1.391497     1.383364     1.375230     1.367096     1.358963     1.350829     1.342695
      1.334562     1.326428     1.318295     1.310161     1.302027     1.293894     1.285760     1.277626     1.269493     1.261359
      1.253225     1.245092     1.236958     1.228824     1.220691     1.212557     1.204423     1.196290     1.188156     1.180022
      1.171889     1.163755     1.155622     1.147488     1.139354     1.131221     1.123087     1.114953     1.106820     1.098686
      1.090552     1.082419     1.074285     1.066151     1.058018     1.049884     1.041750     1.033617     1.025483     1.017349
      1.009216     1.001082     0.992949     0.984815     0.976681     0.968548     0.960414     0.952280     0.944147     0.936013
      0.927879     0.919746     0.911612     0.903478     0.895345     0.887211     0.879077     0.870944     0.862810     0.854676
      0.846543     0.838409     0.830276     0.822142     0.814008     0.805875     0.797741     0.789607     0.781474     0.773340
      0.765206     0.757073     0.748939     0.740805     0.732672     0.724538     0.716404     0.708271     0.700137     0.692003
      0.683870     0.675736     0.667603     0.659469     0.651335     0.643202     0.635068     0.626934     0.618801     0.610667
      0.602533     0.594400     0.586266     0.578132     0.569999     0.561865     0.553731     0.545598     0.537464     0.529330
      0.521197     0.513063     0.504930     0.496796     0.488662     0.480529     0.472395     0.464261     0.456128     0.447994
      0.439861     0.431727     0.423593     0.415460     0.407326     0.399192     0.391059     0.382925     0.374792     0.366658
      0.358524     0.350391     0.342257     0.334124     0.325990     0.317856     0.309723     0.301589     0.293455     0.285322
      0.277188     0.269055     0.260921     0.252787     0.244654     0.236520     0.228386     0.220253     0.212119     0.203986
 NY phased data points follow
  -1.31990E+02 -1.29415E+02 -1.31114E+02 -1.36666E+02 -1.46616E+02 -1.30281E+02 -1.46953E+02 -1.50648E+02 -1.27275E+02 -1.47668E+02
  -1.54819E+02 -1.54915E+02 -1.50659E+02 -1.71832E+02 -1.73706E+02 -1.58581E+02 -1.77559E+02 -1.75890E+02 -1.87233E+02 -1.65035E+02
  -1.64807E+02 -1.65055E+02 -1.19055E+02 -1.16314E+02 -8.87153E+01 -8.28258E+01 -8.14830E+01 -7.26607E+01 -8.34667E+01 -7.78853E+01
  -8.29288E+01 -7.06996E+01 -8.01816E+01 -8.17280E+01 -8.31322E+01 -1.07068E+02 -1.07791E+02 -1.22165E+02 -1.43612E+02 -1.51163E+02
  -1.45318E+02 -1.48287E+02 -1.19407E+02 -9.98141E+01 -8.78106E+01 -4.89342E+01 -4.94133E+01 -2.89370E+01 -3.32308E+01 -4.09835E+01
  -3.09133E+01 -5.73388E+01 -5.24265E+01 -6.73130E+01 -8.94073E+01 -8.36069E+01 -9.03056E+01 -9.25255E+01 -9.11798E+01 -8.30909E+01
  -6.66884E+01 -7.39713E+01 -5.47385E+01 -3.18959E+01 -5.94362E+01 -5.75262E+01 -7.34049E+01 -8.85092E+01 -8.75895E+01 -1.01760E+02
  -8.60936E+01 -9.80574E+01 -7.70235E+01 -3.93484E+01 -4.07956E+01 -3.20807E+01 -4.04423E+01 -3.40787E+01 -3.58901E+01 -6.42365E+01
  -5.61934E+01 -4.88327E+01 -6.29794E+01 -6.77487E+01 -7.45511E+01 -8.02277E+01 -7.19192E+01 -4.92773E+01 -3.79163E+01 -3.24152E+01
  -1.93350E+01 -2.19647E+01 -9.32361E+00 -4.58337E+00 -1.10890E+01 -3.98542E+00 -1.62690E+01 -2.28491E+01 -2.93622E+01 -4.63958E+01
  -4.45994E+01 -5.22729E+01 -7.69225E+01 -8.65142E+01 -1.02541E+02 -1.18294E+02 -1.20138E+02 -1.27788E+02 -1.57524E+02 -1.89551E+02
  -1.70356E+02 -1.67921E+02 -1.86643E+02 -1.65294E+02 -1.26756E+02 -8.60032E+01 -6.93446E+01 -7.44384E+01 -7.81928E+01 -5.72703E+01
  -5.31833E+01 -5.49912E+01 -4.15774E+01 -4.79710E+01 -2.64940E+01 -1.63991E+01 -7.89780E+00  1.64134E+01  2.19703E+01  1.89914E+01
  -1.63490E+01 -5.88103E+01 -1.17074E+02 -1.52889E+02 -1.69754E+02 -2.15757E+02 -2.03461E+02 -1.48078E+02 -1.34417E+02 -1.46238E+02
  -1.54078E+02 -1.50445E+02 -1.27465E+02 -1.36534E+02 -1.37845E+02 -1.22201E+02 -1.27012E+02 -1.09551E+02 -1.26117E+02 -1.10103E+02
  -8.51067E+01 -1.07614E+02 -9.07223E+01 -9.15017E+01 -9.78449E+01 -9.48091E+01 -8.93949E+01 -7.75436E+01 -7.71879E+01 -8.56121E+01
  -8.58056E+01 -7.50164E+01 -8.47817E+01 -7.61493E+01 -8.42501E+01 -8.36254E+01 -6.92940E+01 -7.19675E+01 -5.07661E+01 -6.43356E+01
  -5.28141E+01 -2.64250E+01 -3.91355E+01 -5.00739E+01 -4.67120E+01 -2.67208E+01 -5.43124E+01 -8.15276E+01 -7.21822E+01 -7.40442E+01
  -7.96615E+01 -1.04889E+02 -1.19833E+02 -1.07345E+02 -1.18488E+02 -1.05035E+02 -9.49010E+01 -1.15415E+02 -8.06472E+01 -7.86195E+01
  -9.99714E+01 -8.49851E+01 -7.72056E+01 -6.88659E+01 -7.18812E+01 -6.53941E+01 -5.92431E+01 -6.53748E+01 -6.43812E+01 -5.35970E+01
  -6.67536E+01 -7.18391E+01 -5.21959E+01 -6.56290E+01 -6.53068E+01 -7.27841E+01 -7.20399E+01 -7.65878E+01 -9.51913E+01 -7.25528E+01
  -8.83750E+01 -7.99408E+01 -5.09469E+01 -4.34608E+01 -2.09663E+01 -2.26280E+01 -9.46557E+00 -1.45739E+00 -5.83190E+00 -1.56133E+01
  -5.23123E+01 -5.84705E+01 -6.86632E+01 -7.37086E+01 -5.77816E+01 -6.84373E+01 -5.45113E+01 -6.47789E+01 -7.49373E+01 -5.40074E+01
  -8.59580E+01 -9.61015E+01 -9.28726E+01 -1.19803E+02 -1.32910E+02 -1.14524E+02 -1.14132E+02 -1.33030E+02 -1.22854E+02 -1.11663E+02
  -8.62986E+01 -8.43592E+01 -9.20493E+01 -8.52738E+01 -6.53792E+01 -4.98159E+01 -7.74716E+01 -7.98038E+01 -9.76183E+01 -1.00538E+02
  -9.08134E+01 -1.14502E+02 -1.11520E+02 -1.19882E+02 -1.12001E+02 -6.01117E+01  3.07660E+00  7.25784E+01  1.19388E+02  1.25741E+02
   1.69874E+02  1.72865E+02  9.17250E+01  7.47956E+01  5.75135E+01  3.71789E+01  4.10146E+01  2.54299E+01  2.63281E+01  3.11704E+01
   3.34403E+01  3.50158E+01  2.77738E+01  2.98534E+01  2.37731E+01  1.59990E+01  3.42283E+01  1.29534E+01  1.70806E+01  2.18372E+01
  -4.90665E-02  2.97258E+01  9.55853E+00  1.05243E+01  2.30576E+01  5.07760E+00  1.53958E+01  6.54175E+00  2.99824E+00  1.17991E+01
   2.21067E+01  1.05450E+01  7.71272E+00  1.57795E+01  3.88875E+00 -8.33077E+00 -1.56488E+01 -1.53659E+01 -8.35255E+00 -6.17766E+00
  -1.39423E+01  2.08830E+01  3.20366E+01  2.47106E+01  3.45327E+01  3.26285E+01  4.53543E+01  4.47536E+01  6.01135E+01  6.44246E+01
   7.37732E+01  8.24214E+01  8.20315E+01  1.10245E+02  1.01860E+02  9.28052E+01  8.73956E+01  8.74045E+01  7.30825E+01  5.90188E+01
   6.17180E+01  2.23619E+01  7.77166E+00 -1.00039E+00 -1.80800E+01 -3.05139E+01 -4.39457E+01 -3.39598E+01 -2.87571E+01 -1.63764E+01
  -6.50466E+00 -1.93961E+01 -2.92984E+01 -2.21591E+01 -1.60514E+01 -8.95659E+00  1.24355E+00 -2.44762E+00 -7.59482E+00 -1.12886E+01
  -1.74744E+01 -1.84326E+01 -8.27202E+00 -1.31442E+01 -1.17892E+01  5.52297E+00 -6.22079E+00 -4.42995E+00  4.27827E+00 -4.44148E+00
  -6.42092E+00 -1.60262E+01 -2.90634E+01 -3.72994E+01 -3.82159E+01 -4.21883E+01 -3.77365E+01 -3.44122E+01 -4.18704E+01 -4.20624E+01
  -4.94954E+01 -3.66391E+01 -3.03417E+01 -3.66397E+01 -2.73067E+01 -2.92047E+01 -2.70987E+01 -1.94768E+01 -2.01791E+01 -2.38951E+01
  -8.62133E+00 -7.18889E+00 -1.66696E+01 -6.92701E+00 -3.61432E+00  9.74763E+00  2.24587E+01  2.58271E+01  3.20285E+01  4.46766E+01
   4.04586E+01  3.78268E+01  5.83580E+01  6.48043E+01  6.72076E+01  6.62681E+01  6.74857E+01  6.78587E+01  7.39132E+01  6.27362E+01
   4.60428E+01  3.84871E+01  1.83303E+00 -7.34771E+00 -1.62254E+01 -2.93507E+01 -3.65514E+01 -4.55242E+01 -4.53737E+01 -5.40623E+01
  -4.91632E+01 -7.09019E+01 -8.37638E+01 -7.94281E+01 -7.76579E+01 -7.99260E+01 -9.07205E+01 -7.56874E+01 -7.57531E+01 -6.83633E+01
  -7.40765E+01 -7.95287E+01 -6.51474E+01 -8.21468E+01 -8.67456E+01 -7.86719E+01 -7.04800E+01 -7.15098E+01 -6.90376E+01 -5.53912E+01
  -5.29190E+01 -6.11243E+01 -6.58279E+01 -5.16226E+01 -5.29379E+01 -7.21829E+01 -7.25688E+01 -5.77689E+01 -6.64052E+01 -7.41768E+01
  -6.77443E+01 -6.42141E+01 -5.86807E+01 -7.56898E+01 -7.14566E+01 -5.54313E+01 -5.95415E+01 -5.58312E+01 -7.40118E+01 -7.11214E+01
  -5.28916E+01 -6.55945E+01 -5.90762E+01 -5.74265E+01 -4.98266E+01 -4.72474E+01 -5.98584E+01 -4.98355E+01 -6.01780E+01 -5.95671E+01
  -6.45011E+01 -5.36748E+01 -4.81138E+01 -7.19137E+01 -4.78176E+01 -6.14873E+01 -5.36990E+01 -4.82214E+01 -7.58584E+01 -4.69110E+01
  -5.26610E+01 -5.77930E+01 -4.38567E+01 -4.38054E+01 -4.25628E+01 -3.99019E+01 -3.45601E+01 -4.14647E+01 -4.48048E+01 -3.91397E+01
  -4.31321E+01 -5.58877E+01 -4.86586E+01 -4.50166E+01 -4.28488E+01 -4.78448E+01 -5.41948E+01 -4.30033E+01 -5.11887E+01 -4.03152E+01
 NY points of the fit to the data follow
  -1.43525E+02 -1.45901E+02 -1.46861E+02 -1.44837E+02 -1.40701E+02 -1.36124E+02 -1.33955E+02 -1.33018E+02 -1.34836E+02 -1.42085E+02
  -1.52093E+02 -1.58017E+02 -1.58658E+02 -1.57860E+02 -1.57700E+02 -1.59395E+02 -1.63014E+02 -1.68190E+02 -1.72598E+02 -1.70703E+02
  -1.61558E+02 -1.46649E+02 -1.27522E+02 -1.03697E+02 -7.93129E+01 -6.63766E+01 -6.44646E+01 -6.19125E+01 -6.52864E+01 -7.51693E+01
  -7.68550E+01 -7.84326E+01 -8.25845E+01 -8.86679E+01 -9.49774E+01 -1.02270E+02 -1.12662E+02 -1.25514E+02 -1.37993E+02 -1.46276E+02
  -1.47277E+02 -1.40400E+02 -1.25659E+02 -1.03468E+02 -7.80691E+01 -5.68787E+01 -4.57816E+01 -4.30811E+01 -4.42416E+01 -4.95461E+01
  -5.66049E+01 -6.26437E+01 -6.95752E+01 -7.81714E+01 -8.66418E+01 -9.35635E+01 -9.88794E+01 -1.01582E+02 -9.86035E+01 -8.99652E+01
  -7.98169E+01 -7.10069E+01 -6.00251E+01 -4.93026E+01 -4.94906E+01 -5.61675E+01 -6.21523E+01 -7.45548E+01 -8.78344E+01 -9.30023E+01
  -9.29916E+01 -8.76894E+01 -7.39333E+01 -5.47238E+01 -4.17993E+01 -3.84132E+01 -3.47028E+01 -3.23133E+01 -3.83470E+01 -4.86799E+01
  -6.01166E+01 -7.21558E+01 -8.25722E+01 -8.94014E+01 -8.96306E+01 -8.29406E+01 -7.11505E+01 -5.68014E+01 -4.27882E+01 -3.42493E+01
  -2.80855E+01 -2.64839E+01 -2.56443E+01 -2.38206E+01 -2.23645E+01 -2.13994E+01 -2.10124E+01 -2.16717E+01 -2.32472E+01 -2.62475E+01
  -3.33536E+01 -4.46612E+01 -5.79308E+01 -7.12939E+01 -8.46321E+01 -9.97944E+01 -1.12134E+02 -1.28293E+02 -1.50779E+02 -1.66484E+02
  -1.70640E+02 -1.71877E+02 -1.67788E+02 -1.53455E+02 -1.18716E+02 -8.55767E+01 -8.00110E+01 -7.84391E+01 -7.47221E+01 -6.94947E+01
  -6.31823E+01 -5.56922E+01 -4.68028E+01 -3.62177E+01 -2.45439E+01 -1.19346E+01  3.26814E+00  1.79002E+01  2.54993E+01  1.75501E+01
  -1.39050E+01 -6.26944E+01 -1.11101E+02 -1.48672E+02 -1.82096E+02 -2.07610E+02 -1.97298E+02 -1.53731E+02 -1.28815E+02 -1.28038E+02
  -1.28911E+02 -1.29290E+02 -1.28825E+02 -1.27424E+02 -1.25316E+02 -1.22726E+02 -1.19482E+02 -1.15801E+02 -1.12171E+02 -1.08915E+02
  -1.05985E+02 -1.03206E+02 -1.00370E+02 -9.75680E+01 -9.50514E+01 -9.32415E+01 -9.15651E+01 -8.97207E+01 -8.80807E+01 -8.70891E+01
  -8.70324E+01 -8.71662E+01 -8.69714E+01 -8.68598E+01 -8.78431E+01 -8.98288E+01 -8.97930E+01 -8.45203E+01 -7.55344E+01 -6.60687E+01
  -5.80492E+01 -5.28147E+01 -4.92086E+01 -4.60577E+01 -4.50775E+01 -5.01162E+01 -6.02379E+01 -6.77715E+01 -7.03950E+01 -7.61992E+01
  -8.83111E+01 -1.00878E+02 -1.07712E+02 -1.05684E+02 -1.01469E+02 -1.00316E+02 -9.80447E+01 -9.53376E+01 -9.30879E+01 -9.03750E+01
  -8.71972E+01 -8.28789E+01 -7.70345E+01 -7.12075E+01 -6.67963E+01 -6.33573E+01 -5.84336E+01 -5.42849E+01 -5.68028E+01 -5.89603E+01
  -5.48403E+01 -5.27015E+01 -5.51635E+01 -5.81744E+01 -5.99842E+01 -6.25010E+01 -7.11596E+01 -8.15710E+01 -8.80875E+01 -9.18068E+01
  -9.07641E+01 -8.31237E+01 -6.81994E+01 -4.72466E+01 -2.71690E+01 -1.07463E+01 -1.45561E+00 -8.00244E-01 -7.18159E+00 -2.00477E+01
  -3.38030E+01 -3.86310E+01 -4.33789E+01 -4.50878E+01 -4.32799E+01 -4.61205E+01 -5.28493E+01 -6.27453E+01 -7.47470E+01 -8.74556E+01
  -1.00031E+02 -1.10755E+02 -1.19070E+02 -1.24245E+02 -1.25719E+02 -1.23837E+02 -1.20165E+02 -1.15549E+02 -1.10090E+02 -1.03678E+02
  -9.81856E+01 -9.17489E+01 -8.31099E+01 -7.73203E+01 -7.23498E+01 -6.93493E+01 -7.17678E+01 -7.95795E+01 -9.08200E+01 -1.03180E+02
  -1.12682E+02 -1.20726E+02 -1.23993E+02 -1.21367E+02 -1.07434E+02 -6.53757E+01 -1.95690E-01  5.88551E+01  9.15480E+01  1.20573E+02
   1.58891E+02  1.48565E+02  8.80343E+01  5.12599E+01  4.56045E+01  4.36309E+01  4.21154E+01  4.04412E+01  3.89015E+01  3.79988E+01
   3.80312E+01  3.86393E+01  3.96054E+01  4.05484E+01  4.10674E+01  4.11786E+01  4.10929E+01  4.04497E+01  3.93357E+01  3.82030E+01
   3.67374E+01  3.49759E+01  3.28276E+01  3.06351E+01  2.85673E+01  2.64095E+01  2.40111E+01  2.10490E+01  1.77742E+01  1.43119E+01
   1.05969E+01  6.94137E+00  4.02111E+00  2.30888E+00  2.37577E+00  3.91536E+00  6.66294E+00  1.06073E+01  1.50798E+01  1.94952E+01
   2.34382E+01  2.68204E+01  2.98071E+01  3.27853E+01  3.56783E+01  3.84356E+01  4.11967E+01  4.41132E+01  4.69261E+01  4.96426E+01
   5.22714E+01  5.46477E+01  5.65005E+01  5.79278E+01  5.91940E+01  6.01989E+01  6.08150E+01  6.03859E+01  5.73174E+01  5.08180E+01
   3.85492E+01  2.14658E+01  2.87048E+00 -1.47345E+01 -2.96482E+01 -4.01295E+01 -4.30135E+01 -4.01601E+01 -3.80829E+01 -3.75770E+01
  -3.65016E+01 -4.06878E+01 -4.06191E+01 -3.65374E+01 -2.98583E+01 -2.15981E+01 -1.37053E+01 -7.77960E+00 -5.74296E+00 -8.55268E+00
  -1.45773E+01 -2.16196E+01 -2.75659E+01 -3.15206E+01 -3.15736E+01 -2.67856E+01 -2.02941E+01 -1.57937E+01 -1.22318E+01 -1.37272E+01
  -1.88157E+01 -2.41786E+01 -2.97657E+01 -3.50954E+01 -3.92189E+01 -4.16273E+01 -4.22448E+01 -4.07330E+01 -3.74884E+01 -3.34339E+01
  -2.91001E+01 -2.47758E+01 -2.07373E+01 -1.71353E+01 -1.39282E+01 -1.10703E+01 -8.53976E+00 -6.13726E+00 -3.68376E+00 -1.03847E+00
   1.73722E+00  4.89644E+00  8.36476E+00  1.22463E+01  1.68125E+01  2.21181E+01  2.80875E+01  3.46755E+01  4.18777E+01  4.94967E+01
   5.74600E+01  6.56294E+01  7.28646E+01  7.82568E+01  8.10380E+01  8.00779E+01  7.42127E+01  6.39844E+01  5.08525E+01  3.65903E+01
   2.27369E+01  1.07938E+01  1.48138E+00 -5.46893E+00 -1.18219E+01 -1.89015E+01 -2.71475E+01 -3.59467E+01 -4.50197E+01 -5.35028E+01
  -6.00302E+01 -6.44008E+01 -6.70657E+01 -6.83726E+01 -6.84535E+01 -6.84639E+01 -6.87129E+01 -6.88516E+01 -6.88789E+01 -6.91166E+01
  -6.93551E+01 -6.94972E+01 -6.93413E+01 -6.90850E+01 -6.87357E+01 -6.85376E+01 -6.85483E+01 -6.84220E+01 -6.80766E+01 -6.78152E+01
  -6.78425E+01 -6.76419E+01 -6.71450E+01 -6.68146E+01 -6.69099E+01 -6.67829E+01 -6.61919E+01 -6.57074E+01 -6.53478E+01 -6.50866E+01
  -6.47557E+01 -6.44764E+01 -6.43419E+01 -6.42705E+01 -6.39989E+01 -6.34398E+01 -6.28473E+01 -6.21965E+01 -6.15925E+01 -6.11388E+01
  -6.08745E+01 -6.05662E+01 -6.03991E+01 -6.02690E+01 -5.99757E+01 -5.96486E+01 -5.92954E+01 -5.88766E+01 -5.83161E+01 -5.77791E+01
  -5.73519E+01 -5.70549E+01 -5.65866E+01 -5.60595E+01 -5.56137E+01 -5.49480E+01 -5.42628E+01 -5.38796E+01 -5.35609E+01 -5.32617E+01
  -5.30329E+01 -5.28519E+01 -5.25531E+01 -5.22988E+01 -5.18282E+01 -5.11384E+01 -5.02397E+01 -4.95776E+01 -4.90737E+01 -4.87962E+01
  -4.86420E+01 -4.86340E+01 -4.86684E+01 -4.84962E+01 -4.80710E+01 -4.75188E+01 -4.70535E+01 -4.67880E+01 -4.64931E+01 -4.59218E+01
 NY background values follow
    -1.164E+02   -1.158E+02   -1.152E+02   -1.147E+02   -1.141E+02   -1.136E+02   -1.130E+02   -1.124E+02   -1.118E+02   -1.113E+02
    -1.107E+02   -1.101E+02   -1.096E+02   -1.090E+02   -1.084E+02   -1.078E+02   -1.073E+02   -1.067E+02   -1.061E+02   -1.056E+02
    -1.050E+02   -1.044E+02   -1.038E+02   -1.033E+02   -1.027E+02   -1.021E+02   -1.015E+02   -1.010E+02   -1.004E+02   -9.983E+01
    -9.926E+01   -9.869E+01   -9.813E+01   -9.756E+01   -9.700E+01   -9.644E+01   -9.588E+01   -9.532E+01   -9.477E+01   -9.422E+01
    -9.367E+01   -9.313E+01   -9.259E+01   -9.205E+01   -9.152E+01   -9.100E+01   -9.048E+01   -8.996E+01   -8.945E+01   -8.895E+01
    -8.845E+01   -8.796E+01   -8.747E+01   -8.700E+01   -8.653E+01   -8.606E+01   -8.561E+01   -8.516E+01   -8.472E+01   -8.429E+01
    -8.387E+01   -8.345E+01   -8.305E+01   -8.265E+01   -8.227E+01   -8.189E+01   -8.152E+01   -8.116E+01   -8.080E+01   -8.046E+01
    -8.012E+01   -7.979E+01   -7.946E+01   -7.914E+01   -7.884E+01   -7.853E+01   -7.824E+01   -7.795E+01   -7.766E+01   -7.739E+01
    -7.712E+01   -7.685E+01   -7.659E+01   -7.634E+01   -7.609E+01   -7.585E+01   -7.561E+01   -7.538E+01   -7.516E+01   -7.493E+01
    -7.472E+01   -7.450E+01   -7.429E+01   -7.409E+01   -7.389E+01   -7.369E+01   -7.350E+01   -7.330E+01   -7.311E+01   -7.293E+01
    -7.274E+01   -7.256E+01   -7.238E+01   -7.219E+01   -7.201E+01   -7.183E+01   -7.166E+01   -7.148E+01   -7.130E+01   -7.112E+01
    -7.093E+01   -7.075E+01   -7.057E+01   -7.038E+01   -7.020E+01   -7.001E+01   -6.982E+01   -6.962E+01   -6.942E+01   -6.922E+01
    -6.902E+01   -6.881E+01   -6.860E+01   -6.838E+01   -6.817E+01   -6.794E+01   -6.772E+01   -6.749E+01   -6.726E+01   -6.703E+01
    -6.679E+01   -6.656E+01   -6.632E+01   -6.608E+01   -6.583E+01   -6.559E+01   -6.534E+01   -6.509E+01   -6.485E+01   -6.460E+01
    -6.435E+01   -6.409E+01   -6.384E+01   -6.359E+01   -6.334E+01   -6.309E+01   -6.283E+01   -6.258E+01   -6.233E+01   -6.208E+01
    -6.183E+01   -6.158E+01   -6.133E+01   -6.108E+01   -6.083E+01   -6.059E+01   -6.034E+01   -6.010E+01   -5.985E+01   -5.961E+01
    -5.937E+01   -5.913E+01   -5.889E+01   -5.865E+01   -5.842E+01   -5.818E+01   -5.795E+01   -5.771E+01   -5.748E+01   -5.725E+01
    -5.702E+01   -5.679E+01   -5.657E+01   -5.634E+01   -5.612E+01   -5.590E+01   -5.568E+01   -5.546E+01   -5.524E+01   -5.502E+01
    -5.481E+01   -5.460E+01   -5.438E+01   -5.417E+01   -5.396E+01   -5.376E+01   -5.355E+01   -5.334E+01   -5.313E+01   -5.292E+01
    -5.272E+01   -5.251E+01   -5.230E+01   -5.209E+01   -5.188E+01   -5.167E+01   -5.146E+01   -5.124E+01   -5.102E+01   -5.081E+01
    -5.059E+01   -5.036E+01   -5.014E+01   -4.991E+01   -4.968E+01   -4.945E+01   -4.921E+01   -4.897E+01   -4.872E+01   -4.847E+01
    -4.822E+01   -4.797E+01   -4.771E+01   -4.744E+01   -4.717E+01   -4.690E+01   -4.663E+01   -4.635E+01   -4.607E+01   -4.579E+01
    -4.551E+01   -4.522E+01   -4.493E+01   -4.464E+01   -4.435E+01   -4.406E+01   -4.376E+01   -4.347E+01   -4.317E+01   -4.287E+01
    -4.258E+01   -4.228E+01   -4.198E+01   -4.168E+01   -4.139E+01   -4.109E+01   -4.080E+01   -4.050E+01   -4.021E+01   -3.992E+01
    -3.963E+01   -3.934E+01   -3.905E+01   -3.877E+01   -3.848E+01   -3.820E+01   -3.792E+01   -3.764E+01   -3.735E+01   -3.707E+01
    -3.679E+01   -3.651E+01   -3.623E+01   -3.595E+01   -3.567E+01   -3.539E+01   -3.510E+01   -3.482E+01   -3.453E+01   -3.425E+01
    -3.396E+01   -3.367E+01   -3.338E+01   -3.309E+01   -3.279E+01   -3.250E+01   -3.220E+01   -3.189E+01   -3.159E+01   -3.128E+01
    -3.097E+01   -3.066E+01   -3.034E+01   -3.003E+01   -2.971E+01   -2.939E+01   -2.906E+01   -2.874E+01   -2.842E+01   -2.809E+01
    -2.777E+01   -2.745E+01   -2.712E+01   -2.680E+01   -2.648E+01   -2.616E+01   -2.585E+01   -2.554E+01   -2.523E+01   -2.492E+01
    -2.462E+01   -2.432E+01   -2.402E+01   -2.373E+01   -2.344E+01   -2.316E+01   -2.289E+01   -2.262E+01   -2.235E+01   -2.210E+01
    -2.185E+01   -2.160E+01   -2.137E+01   -2.114E+01   -2.093E+01   -2.072E+01   -2.052E+01   -2.034E+01   -2.016E+01   -2.000E+01
    -1.985E+01   -1.971E+01   -1.959E+01   -1.948E+01   -1.939E+01   -1.931E+01   -1.924E+01   -1.920E+01   -1.917E+01   -1.916E+01
    -1.917E+01   -1.919E+01   -1.924E+01   -1.931E+01   -1.939E+01   -1.950E+01   -1.963E+01   -1.978E+01   -1.996E+01   -2.016E+01
    -2.038E+01   -2.063E+01   -2.090E+01   -2.119E+01   -2.151E+01   -2.184E+01   -2.219E+01   -2.256E+01   -2.295E+01   -2.336E+01
    -2.378E+01   -2.421E+01   -2.467E+01   -2.513E+01   -2.560E+01   -2.609E+01   -2.659E+01   -2.710E+01   -2.761E+01   -2.813E+01
    -2.866E+01   -2.920E+01   -2.974E+01   -3.029E+01   -3.084E+01   -3.139E+01   -3.194E+01   -3.250E+01   -3.305E+01   -3.360E+01
    -3.415E+01   -3.470E+01   -3.525E+01   -3.579E+01   -3.633E+01   -3.687E+01   -3.740E+01   -3.792E+01   -3.844E+01   -3.896E+01
    -3.946E+01   -3.997E+01   -4.046E+01   -4.095E+01   -4.143E+01   -4.190E+01   -4.237E+01   -4.282E+01   -4.327E+01   -4.370E+01
    -4.413E+01   -4.455E+01   -4.495E+01   -4.535E+01   -4.573E+01   -4.610E+01   -4.646E+01   -4.680E+01   -4.714E+01   -4.745E+01
    -4.776E+01   -4.805E+01   -4.833E+01   -4.859E+01   -4.884E+01   -4.908E+01   -4.930E+01   -4.951E+01   -4.971E+01   -4.989E+01
    -5.006E+01   -5.022E+01   -5.037E+01   -5.051E+01   -5.063E+01   -5.074E+01   -5.084E+01   -5.093E+01   -5.100E+01   -5.107E+01
    -5.112E+01   -5.117E+01   -5.120E+01   -5.122E+01   -5.123E+01   -5.123E+01   -5.122E+01   -5.120E+01   -5.117E+01   -5.113E+01
    -5.108E+01   -5.102E+01   -5.095E+01   -5.088E+01   -5.079E+01   -5.070E+01   -5.059E+01   -5.048E+01   -5.036E+01   -5.024E+01
    -5.010E+01   -4.996E+01   -4.981E+01   -4.966E+01   -4.950E+01   -4.933E+01   -4.916E+01   -4.898E+01   -4.879E+01   -4.860E+01
    -4.841E+01   -4.821E+01   -4.800E+01   -4.779E+01   -4.758E+01   -4.736E+01   -4.714E+01   -4.692E+01   -4.669E+01   -4.646E+01
    -4.622E+01   -4.599E+01   -4.575E+01   -4.551E+01   -4.526E+01   -4.502E+01   -4.477E+01   -4.452E+01   -4.426E+01   -4.401E+01
    -4.375E+01   -4.350E+01   -4.324E+01   -4.298E+01   -4.272E+01   -4.246E+01   -4.219E+01   -4.193E+01   -4.167E+01   -4.140E+01
    -4.114E+01   -4.087E+01   -4.060E+01   -4.034E+01   -4.007E+01   -3.981E+01   -3.954E+01   -3.928E+01   -3.901E+01   -3.875E+01
 Mac      Conc. = 2.89E-04
  -1.37851E+02 -1.37843E+02 -1.37976E+02 -1.38165E+02 -1.38738E+02 -1.39857E+02 -1.41156E+02 -1.42380E+02 -1.43255E+02 -1.43587E+02
  -1.43372E+02 -1.43028E+02 -1.42955E+02 -1.43085E+02 -1.43008E+02 -1.41877E+02 -1.39185E+02 -1.35161E+02 -1.30181E+02 -1.24235E+02
  -1.18205E+02 -1.13842E+02 -1.12013E+02 -1.11032E+02 -1.09331E+02 -1.07896E+02 -1.06505E+02 -1.04363E+02 -1.01840E+02 -9.96325E+01
  -9.80058E+01 -9.70067E+01 -9.66734E+01 -9.64977E+01 -9.57028E+01 -9.42172E+01 -9.23316E+01 -9.02663E+01 -8.81923E+01 -8.61916E+01
  -8.45463E+01 -8.35452E+01 -8.30431E+01 -8.24287E+01 -8.12817E+01 -8.01552E+01 -7.98528E+01 -8.05224E+01 -8.18810E+01 -8.33883E+01
  -8.44491E+01 -8.50555E+01 -8.51910E+01 -8.47705E+01 -8.37697E+01 -8.22430E+01 -8.03918E+01 -7.83233E+01 -7.61993E+01 -7.40802E+01
  -7.24367E+01 -7.18518E+01 -7.21092E+01 -7.25610E+01 -7.32585E+01 -7.43996E+01 -7.50677E+01 -7.47442E+01 -7.34412E+01 -7.10989E+01
  -6.83416E+01 -6.57769E+01 -6.33593E+01 -6.13677E+01 -6.04498E+01 -6.11529E+01 -6.24983E+01 -6.35985E+01 -6.44175E+01 -6.49155E+01
  -6.49502E+01 -6.44598E+01 -6.34033E+01 -6.22558E+01 -6.10293E+01 -5.96164E+01 -5.82000E+01 -5.71286E+01 -5.64536E+01 -5.58473E+01
  -5.54414E+01 -5.55643E+01 -5.60839E+01 -5.72420E+01 -5.90908E+01 -6.15466E+01 -6.42233E+01 -6.70270E+01 -6.96745E+01 -7.20520E+01
  -7.43562E+01 -7.72956E+01 -8.10683E+01 -8.61422E+01 -9.24663E+01 -9.89501E+01 -1.04104E+02 -1.07323E+02 -1.08243E+02 -1.06511E+02
