 LCModel (Version 6.3-1N) Copyright: S.W. Provencher.          Ref.: Magn. Reson. Med. 30:672-679 (1993).                
 Slice_N1@24_20  28-Feb-2025 11:44:01
 27 lines in following concentration table = NCONC+1
    Conc.  %SD /Cr+PCr  Metabolite                                         
 2.28E-04   4% 1.9E-04 Mac                                                 
    9.696  11%   8.000 Cr                                                  
    0.000 999%   0.000 PCr                                                 
    4.705  26%   3.882 Ins                                                 
    4.505  26%   3.717 NAA                                                 
    6.217  25%   5.129 Tau                                                 
    0.000 999%   0.000 PCho                                                
    1.723  17%   1.422 GPC                                                 
    9.969  13%   8.225 Glu                                                 
    3.408  33%   2.812 Gln                                                 
    0.000 999%   0.000 Ala                                                 
    4.876  36%   4.023 Asc                                                 
    3.245  31%   2.678 Asp                                                 
    0.277 214%   0.229 GABA                                                
    0.728  92%   0.600 Glc                                                 
    3.040  24%   2.508 GSH                                                 
    9.580  10%   7.904 Lac                                                 
    2.892  32%   2.386 NAAG                                                
    0.000 999%   0.000 PE                                                  
    1.723  17%   1.422 GPC+PCho                                            
    7.396  12%   6.103 NAA+NAAG                                            
   13.378  12%  11.038 Glu+Gln                                             
    9.696  11%   8.000 Cr+PCr                                              
    7.396  12%   6.103 NAA+NAAG                                            
    9.696  11%   8.000 Cr+PCr                                              
   13.378  12%  11.038 Glu+Gln                                             
   6 lines in following misc. output table
  FWHM = 0.098 ppm    S/N =   2                                            
  Data shift =-0.049 ppm                                                   
  Ph: -35 deg       0.0 deg/ppm                                            
  alphaB,S = 1.5E+00,   4.5E+01                                            
   16 spline knots.   Ns = 7(2)                                            
  ( 8) 4 infls.   ( 6) 1 extrs.                                            
  480 points on ppm-axis = NY
      4.100000     4.091866     4.083733     4.075600     4.067466     4.059333     4.051199     4.043066     4.034933     4.026799
      4.018666     4.010532     4.002399     3.994265     3.986132     3.977998     3.969864     3.961731     3.953597     3.945463
      3.937330     3.929196     3.921062     3.912929     3.904795     3.896662     3.888528     3.880394     3.872261     3.864127
      3.855993     3.847860     3.839726     3.831592     3.823459     3.815325     3.807191     3.799058     3.790924     3.782790
      3.774657     3.766523     3.758389     3.750256     3.742122     3.733989     3.725855     3.717721     3.709588     3.701454
      3.693320     3.685187     3.677053     3.668919     3.660786     3.652652     3.644518     3.636385     3.628251     3.620117
      3.611984     3.603850     3.595716     3.587583     3.579449     3.571316     3.563182     3.555048     3.546915     3.538781
      3.530647     3.522514     3.514380     3.506246     3.498113     3.489979     3.481845     3.473712     3.465578     3.457444
      3.449311     3.441177     3.433043     3.424910     3.416776     3.408643     3.400509     3.392375     3.384242     3.376108
      3.367974     3.359841     3.351707     3.343573     3.335440     3.327306     3.319172     3.311039     3.302905     3.294771
      3.286638     3.278504     3.270370     3.262237     3.254103     3.245970     3.237836     3.229702     3.221569     3.213435
      3.205301     3.197168     3.189034     3.180900     3.172767     3.164633     3.156499     3.148366     3.140232     3.132098
      3.123965     3.115831     3.107697     3.099564     3.091430     3.083297     3.075163     3.067029     3.058896     3.050762
      3.042628     3.034495     3.026361     3.018227     3.010094     3.001960     2.993826     2.985693     2.977559     2.969425
      2.961292     2.953158     2.945024     2.936891     2.928757     2.920624     2.912490     2.904356     2.896223     2.888089
      2.879955     2.871822     2.863688     2.855554     2.847421     2.839287     2.831153     2.823020     2.814886     2.806752
      2.798619     2.790485     2.782351     2.774218     2.766084     2.757951     2.749817     2.741683     2.733550     2.725416
      2.717282     2.709149     2.701015     2.692881     2.684748     2.676614     2.668480     2.660347     2.652213     2.644079
      2.635946     2.627812     2.619678     2.611545     2.603411     2.595278     2.587144     2.579010     2.570877     2.562743
      2.554609     2.546476     2.538342     2.530208     2.522075     2.513941     2.505807     2.497674     2.489540     2.481406
      2.473273     2.465139     2.457006     2.448872     2.440738     2.432605     2.424471     2.416337     2.408204     2.400070
      2.391936     2.383803     2.375669     2.367535     2.359402     2.351268     2.343134     2.335001     2.326867     2.318733
      2.310600     2.302466     2.294333     2.286199     2.278065     2.269932     2.261798     2.253664     2.245531     2.237397
      2.229263     2.221130     2.212996     2.204862     2.196729     2.188595     2.180461     2.172328     2.164194     2.156060
      2.147927     2.139793     2.131660     2.123526     2.115392     2.107259     2.099125     2.090991     2.082858     2.074724
      2.066590     2.058457     2.050323     2.042189     2.034056     2.025922     2.017788     2.009655     2.001521     1.993387
      1.985254     1.977120     1.968987     1.960853     1.952719     1.944586     1.936452     1.928318     1.920185     1.912051
      1.903917     1.895784     1.887650     1.879516     1.871383     1.863249     1.855115     1.846982     1.838848     1.830714
      1.822581     1.814447     1.806314     1.798180     1.790046     1.781913     1.773779     1.765645     1.757512     1.749378
      1.741244     1.733111     1.724977     1.716843     1.708710     1.700576     1.692442     1.684309     1.676175     1.668041
      1.659908     1.651774     1.643641     1.635507     1.627373     1.619240     1.611106     1.602972     1.594839     1.586705
      1.578571     1.570438     1.562304     1.554170     1.546037     1.537903     1.529769     1.521636     1.513502     1.505368
      1.497235     1.489101     1.480968     1.472834     1.464700     1.456567     1.448433     1.440299     1.432166     1.424032
      1.415898     1.407765     1.399631     1.391497     1.383364     1.375230     1.367096     1.358963     1.350829     1.342695
      1.334562     1.326428     1.318295     1.310161     1.302027     1.293894     1.285760     1.277626     1.269493     1.261359
      1.253225     1.245092     1.236958     1.228824     1.220691     1.212557     1.204423     1.196290     1.188156     1.180022
      1.171889     1.163755     1.155622     1.147488     1.139354     1.131221     1.123087     1.114953     1.106820     1.098686
      1.090552     1.082419     1.074285     1.066151     1.058018     1.049884     1.041750     1.033617     1.025483     1.017349
      1.009216     1.001082     0.992949     0.984815     0.976681     0.968548     0.960414     0.952280     0.944147     0.936013
      0.927879     0.919746     0.911612     0.903478     0.895345     0.887211     0.879077     0.870944     0.862810     0.854676
      0.846543     0.838409     0.830276     0.822142     0.814008     0.805875     0.797741     0.789607     0.781474     0.773340
      0.765206     0.757073     0.748939     0.740805     0.732672     0.724538     0.716404     0.708271     0.700137     0.692003
      0.683870     0.675736     0.667603     0.659469     0.651335     0.643202     0.635068     0.626934     0.618801     0.610667
      0.602533     0.594400     0.586266     0.578132     0.569999     0.561865     0.553731     0.545598     0.537464     0.529330
      0.521197     0.513063     0.504930     0.496796     0.488662     0.480529     0.472395     0.464261     0.456128     0.447994
      0.439861     0.431727     0.423593     0.415460     0.407326     0.399192     0.391059     0.382925     0.374792     0.366658
      0.358524     0.350391     0.342257     0.334124     0.325990     0.317856     0.309723     0.301589     0.293455     0.285322
      0.277188     0.269055     0.260921     0.252787     0.244654     0.236520     0.228386     0.220253     0.212119     0.203986
 NY phased data points follow
  -3.70446E+01 -4.57036E+01 -4.21531E+01 -3.56071E+01 -6.09128E+01 -5.85499E+01 -5.80167E+01 -6.91186E+01 -5.03636E+01 -5.86478E+01
  -5.39603E+01 -6.57244E+01 -5.10950E+01 -4.14255E+01 -7.41328E+01 -5.51553E+01 -7.23669E+01 -8.13628E+01 -6.88092E+01 -7.53879E+01
  -8.37955E+01 -7.98786E+01 -8.09411E+01 -8.01268E+01 -5.99800E+01 -7.79147E+01 -5.94258E+01 -5.31398E+01 -5.79164E+01 -3.37709E+01
  -4.08389E+01 -4.57329E+01 -3.78196E+01 -3.73200E+01 -4.36215E+01 -2.19183E+01 -3.13838E+01 -4.85331E+01 -5.06336E+01 -6.12616E+01
  -5.42728E+01 -6.36537E+01 -7.02910E+01 -6.31478E+01 -5.62715E+01 -5.99523E+01 -5.04390E+01 -3.23469E+01 -3.56988E+01 -4.02869E+01
  -3.02977E+01 -1.83312E+01 -1.50910E+01 -1.62881E+01 -1.08410E+00 -7.25820E-01 -2.36811E+01 -2.17785E+01 -3.68671E+01 -1.44957E+01
  -1.00333E+01 -2.64407E+01 -1.11532E+01 -3.21533E+01 -1.46369E+01 -2.19904E+01 -2.55100E+01 -1.65693E+01 -2.06433E+01 -5.00393E+00
  -1.43352E+01 -1.33354E+01 -2.14400E+01 -1.05673E+01 -8.38031E+00 -1.87978E+01 -9.93084E+00  1.35589E+01  1.10044E+01 -1.38073E+01
  -4.41298E+00 -1.44862E+01 -1.17756E+01 -2.12955E+00  2.21605E+00 -9.41085E+00 -6.40660E+00 -1.04209E+01 -2.72515E+01  1.30117E+00
  -3.46479E+00  7.95613E+00  3.98111E+00  1.98836E+00  2.16061E+01  1.50433E+01  2.44935E+01  2.47814E+01  2.38982E+01  1.59417E+01
   2.35700E+01  1.53842E+01  1.02717E+00  2.31698E+00 -8.22161E+00 -1.19619E+01 -2.51653E+01 -3.61877E+01 -4.86291E+01 -5.62270E+01
  -5.92746E+01 -7.04555E+01 -9.40797E+01 -9.69897E+01 -7.57494E+01 -6.44177E+01 -6.86073E+01 -6.94830E+01 -5.57378E+01 -4.53099E+01
  -1.53335E+01 -1.78365E+01 -1.34747E+01  5.77044E+00 -9.53658E+00  1.18271E+00  5.68673E+00  3.33238E+00 -6.88166E-01  6.63681E+00
   2.01729E+01  1.04437E+01  6.83014E+00 -7.60095E+00 -1.92199E+01 -2.36190E+01 -4.67533E+01 -4.99331E+01 -5.63543E+01 -8.07169E+01
  -8.73511E+01 -8.79829E+01 -6.08373E+01 -6.28313E+01 -7.70684E+01 -7.34403E+01 -8.50469E+01 -7.14163E+01 -7.80948E+01 -8.34872E+01
  -8.03115E+01 -8.60353E+01 -7.50882E+01 -6.52333E+01 -7.63204E+01 -7.93971E+01 -5.94601E+01 -5.69473E+01 -5.48469E+01 -6.57030E+01
  -4.72461E+01 -3.94870E+01 -5.82063E+01 -4.18049E+01 -5.06401E+01 -5.62849E+01 -4.47831E+01 -3.75880E+01 -3.98683E+01 -3.65340E+01
  -4.69253E+01 -5.36980E+01 -4.51974E+01 -4.11038E+01 -2.96915E+01 -3.64810E+01 -2.10008E+01 -3.55189E+01 -4.69179E+01 -4.73595E+01
  -5.35519E+01 -3.87408E+01 -5.53968E+01 -3.60880E+01 -4.12667E+01 -6.05330E+01 -6.60124E+01 -6.17282E+01 -5.11358E+01 -6.86032E+01
  -4.76571E+01 -5.78525E+01 -5.29853E+01 -3.12943E+01 -4.66669E+01 -5.37421E+01 -5.81287E+01 -4.46939E+01 -3.67727E+01 -4.03341E+01
  -4.94012E+01 -3.14903E+01 -3.29682E+01 -4.69326E+01 -3.43587E+01 -4.90694E+01 -4.06151E+01 -3.91293E+01 -5.55906E+01 -3.88630E+01
  -3.96351E+01 -6.50877E+01 -5.57305E+01 -3.77096E+01 -4.46188E+01 -4.31424E+01 -5.09012E+01 -4.00685E+01 -1.81021E+01 -2.07296E+01
  -1.87590E+01 -2.21997E+01 -1.84240E+01 -1.35132E+01 -2.48901E+01 -3.47149E+01 -3.78139E+01 -3.63044E+01 -3.24696E+01 -3.30178E+01
  -3.88393E+01 -3.41390E+01 -3.59490E+01 -4.23628E+01 -4.00349E+01 -5.14938E+01 -6.84635E+01 -6.17326E+01 -5.40626E+01 -6.31987E+01
  -7.13497E+01 -7.58557E+01 -5.24732E+01 -5.69042E+01 -7.46629E+01 -5.45846E+01 -5.64484E+01 -5.88971E+01 -5.81976E+01 -5.50723E+01
  -5.60300E+01 -5.36213E+01 -4.76782E+01 -4.10377E+01 -2.68069E+01 -2.92765E+01 -1.96700E+01 -2.55206E+01  1.15026E+01  2.44893E+01
   1.20617E+01  5.57869E+01  3.70034E+01  3.26786E+01  4.95801E+01  7.78655E+01  7.79933E+01  2.80581E+01  3.05558E+01  3.99046E+01
   5.50361E+01  5.41503E+01  4.61415E+01  3.86818E+01  2.28132E+01  3.73021E+01  4.23541E+01  2.18647E+01  2.99482E+01  2.72380E+01
   1.80302E+01  4.65070E+01  3.26805E+01  4.06507E+01  3.58258E+01  1.37423E+01  3.98596E+01  3.52046E+01  3.66496E+01  2.65671E+01
   5.89192E+00  1.83906E+01  3.24815E+01  2.42406E+01  1.08399E+01  1.85165E+00  1.91258E+01  1.42713E+01 -9.05267E+00  1.25804E+01
   1.14189E+01  1.90074E+00 -1.55678E+01  6.59970E+00  9.63787E+00 -6.26333E-01  1.77827E+01 -1.05272E+01  1.38782E+01 -1.99793E+00
  -1.12579E+01 -5.29723E+00 -2.38097E+01 -3.46044E+00 -2.19777E+01 -1.19809E+01 -1.19970E+01 -1.51637E+01  6.72371E-01 -1.88964E+00
  -7.19705E+00 -6.66890E+00  1.38326E+01  3.02697E+01  4.00575E+01  2.79459E+01  2.17757E+01  3.10306E+01  4.17732E+01  3.04972E+01
   1.94919E+01  1.87470E+01  2.07717E+01  2.47568E+01  3.45676E+01  4.13389E+01  1.12916E+01  2.41689E+01  2.86780E+00 -1.97134E+01
   4.22894E+00 -6.94612E+00 -1.22979E+01 -2.74697E+01 -3.04927E+01 -3.10142E+01 -3.54023E+01 -3.94515E+01 -3.53659E+01 -4.28947E+01
  -3.87192E+01 -3.31687E+01 -5.49293E+01 -4.05074E+01 -5.05114E+01 -4.12034E+01 -4.15049E+01 -5.28052E+01 -5.25653E+01 -5.79594E+01
  -3.26001E+01 -4.25517E+01 -4.63557E+01 -4.73905E+01 -3.60999E+01 -3.91832E+01 -3.68163E+01 -1.11904E+01 -2.53304E+01 -2.82849E+01
  -1.46481E+01  1.15315E+01 -6.61087E+00 -1.58833E+01  3.79009E+00  1.10151E+01  2.64661E+00 -2.40066E+00  2.90952E+01  2.39641E+01
   1.27617E+01  6.95971E+00  2.71971E+01  4.72546E+01  4.02471E+01  4.23218E+01  5.17735E+01  5.87012E+01  3.95033E+01  5.72116E+01
   4.71611E+01  3.24469E+01  4.07469E+01  3.00728E+01  4.06415E+01  2.32465E+01  2.09992E+01  2.38846E+01  2.62975E+00 -2.54985E+00
  -6.94330E+00 -2.20708E+01 -3.23995E+01 -3.08014E+01 -2.94866E+01 -3.39533E+01 -4.85628E+01 -5.53044E+01 -4.49062E+01 -4.48092E+01
  -6.46121E+01 -4.94068E+01 -5.60940E+01 -6.15548E+01 -4.27114E+01 -6.33979E+01 -4.63590E+01 -6.60348E+01 -7.27820E+01 -4.77840E+01
  -5.95083E+01 -5.01818E+01 -6.30260E+01 -4.73946E+01 -5.05498E+01 -5.55512E+01 -3.71910E+01 -5.91919E+01 -5.21684E+01 -5.01944E+01
  -4.10305E+01 -3.54258E+01 -6.20870E+01 -6.08260E+01 -4.17533E+01 -4.81878E+01 -5.33153E+01 -3.30123E+01 -5.01177E+01 -6.56008E+01
  -5.30186E+01 -5.26921E+01 -5.44275E+01 -5.49686E+01 -4.36126E+01 -4.31934E+01 -5.20007E+01 -4.45088E+01 -4.59711E+01 -5.23828E+01
  -4.92328E+01 -4.55339E+01 -4.50185E+01 -4.42788E+01 -5.62945E+01 -6.18028E+01 -4.28990E+01 -5.27639E+01 -4.74227E+01 -5.02078E+01
  -7.40634E+01 -4.32035E+01 -4.57308E+01 -6.10458E+01 -4.72681E+01 -2.62325E+01 -4.16641E+01 -6.14362E+01 -3.74334E+01 -5.16377E+01
  -2.95193E+01 -3.67801E+01 -5.60089E+01 -2.33022E+01 -5.30855E+01 -4.53818E+01 -2.83081E+01 -5.00422E+01 -4.80791E+01 -3.90980E+01
 NY points of the fit to the data follow
  -6.29852E+01 -5.77711E+01 -5.99660E+01 -5.57194E+01 -5.68638E+01 -5.41446E+01 -5.42352E+01 -5.27413E+01 -5.13348E+01 -5.16091E+01
  -5.26225E+01 -5.43712E+01 -5.64273E+01 -5.96242E+01 -6.21089E+01 -6.63125E+01 -6.81700E+01 -7.20615E+01 -7.26534E+01 -7.55368E+01
  -7.47256E+01 -7.64376E+01 -7.29823E+01 -7.29042E+01 -6.48645E+01 -6.23942E+01 -5.05379E+01 -4.76113E+01 -3.61287E+01 -3.35507E+01
  -2.56995E+01 -2.49781E+01 -2.34782E+01 -2.45660E+01 -2.74524E+01 -2.90246E+01 -3.28293E+01 -3.45748E+01 -3.96095E+01 -4.13966E+01
  -4.85624E+01 -4.93604E+01 -5.38289E+01 -5.33954E+01 -5.38288E+01 -5.18217E+01 -4.82865E+01 -4.59171E+01 -3.97919E+01 -3.79431E+01
  -3.24635E+01 -3.14486E+01 -2.79698E+01 -2.72604E+01 -2.48182E+01 -2.40007E+01 -2.15422E+01 -2.14968E+01 -1.96753E+01 -1.90491E+01
  -1.80501E+01 -1.74365E+01 -1.74531E+01 -1.66240E+01 -1.68900E+01 -1.58063E+01 -1.58538E+01 -1.44319E+01 -1.41595E+01 -1.25864E+01
  -1.18660E+01 -1.08364E+01 -9.96271E+00 -9.10167E+00 -8.24030E+00 -7.29280E+00 -6.35755E+00 -6.15238E+00 -5.53206E+00 -6.10056E+00
  -6.90666E+00 -8.13891E+00 -1.02193E+01 -1.11170E+01 -1.36795E+01 -1.32675E+01 -1.51432E+01 -1.34197E+01 -1.41858E+01 -1.01129E+01
  -9.58471E+00 -4.18261E+00 -2.37633E+00  2.23144E+00  4.03055E+00  8.59207E+00  1.09214E+01  1.32403E+01  1.50641E+01  1.42869E+01
   1.54038E+01  1.00343E+01  9.79663E+00 -2.63236E-01 -1.80510E+00 -1.50332E+01 -1.71322E+01 -3.18809E+01 -3.41133E+01 -4.81798E+01
  -5.00262E+01 -6.07013E+01 -6.13500E+01 -6.69585E+01 -6.55509E+01 -6.69680E+01 -6.40004E+01 -6.31320E+01 -5.58206E+01 -4.92520E+01
  -4.07585E+01 -3.23920E+01 -2.47116E+01 -1.49927E+01 -9.32849E+00  8.84988E-01  4.17010E+00  1.12005E+01  1.06268E+01  1.48265E+01
   9.96184E+00  1.01269E+01  8.16711E-01 -4.23642E+00 -1.59259E+01 -2.48533E+01 -3.57779E+01 -4.56485E+01 -5.36241E+01 -6.16738E+01
  -6.59337E+01 -6.99935E+01 -7.26783E+01 -7.43541E+01 -7.75740E+01 -8.01525E+01 -8.21770E+01 -8.38165E+01 -8.22284E+01 -7.96256E+01
  -7.78473E+01 -7.55612E+01 -7.38118E+01 -7.15710E+01 -6.99920E+01 -6.76939E+01 -6.62917E+01 -6.43349E+01 -6.31838E+01 -6.13809E+01
  -6.02040E+01 -5.86202E+01 -5.75475E+01 -5.64151E+01 -5.53101E+01 -5.41870E+01 -5.28923E+01 -5.18159E+01 -5.03707E+01 -4.93492E+01
  -4.78208E+01 -4.68660E+01 -4.54647E+01 -4.47359E+01 -4.39548E+01 -4.38489E+01 -4.40799E+01 -4.48018E+01 -4.55040E+01 -4.68696E+01
  -4.80092E+01 -4.96693E+01 -5.06251E+01 -5.19204E+01 -5.26070E+01 -5.33844E+01 -5.38288E+01 -5.37403E+01 -5.36982E+01 -5.27168E+01
  -5.18512E+01 -5.04647E+01 -4.93558E+01 -4.77318E+01 -4.64460E+01 -4.47474E+01 -4.31822E+01 -4.21344E+01 -4.04024E+01 -4.03949E+01
  -3.92802E+01 -3.99826E+01 -4.03363E+01 -4.18933E+01 -4.27475E+01 -4.54259E+01 -4.57088E+01 -4.88329E+01 -4.79681E+01 -5.08000E+01
  -4.88482E+01 -5.03904E+01 -4.69954E+01 -4.67401E+01 -4.17076E+01 -3.94482E+01 -3.32829E+01 -2.92057E+01 -2.38422E+01 -1.90743E+01
  -1.63502E+01 -1.21368E+01 -1.32277E+01 -1.08414E+01 -1.51444E+01 -1.56556E+01 -2.12386E+01 -2.43813E+01 -3.05033E+01 -3.49486E+01
  -4.20887E+01 -4.70224E+01 -5.41444E+01 -5.94745E+01 -6.44009E+01 -6.89025E+01 -7.10203E+01 -7.34593E+01 -7.28131E+01 -7.40430E+01
  -7.28572E+01 -7.21264E+01 -6.99904E+01 -6.77549E+01 -6.77522E+01 -6.40691E+01 -6.46804E+01 -5.99768E+01 -6.00300E+01 -5.46811E+01
  -5.35459E+01 -4.69759E+01 -4.42206E+01 -3.65153E+01 -3.13049E+01 -2.36158E+01 -1.53136E+01 -8.50142E+00  2.13008E+00  7.14822E+00
   1.83660E+01  2.08654E+01  3.02916E+01  3.09048E+01  3.74885E+01  3.70495E+01  4.09518E+01  3.94136E+01  4.14581E+01  3.92148E+01
   4.03749E+01  3.85935E+01  3.92856E+01  3.75942E+01  3.61149E+01  3.49043E+01  3.36917E+01  3.29370E+01  3.17968E+01  3.11037E+01
   2.98735E+01  2.89466E+01  2.75389E+01  2.62399E+01  2.46136E+01  2.29526E+01  2.10920E+01  1.92072E+01  1.72383E+01  1.52676E+01
   1.34070E+01  1.15711E+01  9.99506E+00  8.56177E+00  7.50973E+00  6.71086E+00  6.33516E+00  6.28031E+00  6.55308E+00  7.22329E+00
   8.05773E+00  9.25370E+00  1.05226E+01  1.20897E+01  1.36488E+01  1.54580E+01  1.71916E+01  1.91394E+01  2.08669E+01  2.27726E+01
   2.42892E+01  2.60273E+01  2.72298E+01  2.86477E+01  2.93680E+01  3.02492E+01  3.02899E+01  3.04112E+01  2.95791E+01  2.87597E+01
   2.69214E+01  2.51277E+01  2.23842E+01  1.97193E+01  1.63281E+01  1.29726E+01  9.15793E+00  7.31377E+00  4.63486E+00  4.30395E+00
   4.24288E+00  3.97108E+00  5.39757E+00  4.46742E+00  6.75873E+00  4.61924E+00  6.90601E+00  3.34973E+00  4.94497E+00 -6.52668E-01
  -6.51542E-01 -8.64629E+00 -1.12941E+01 -2.03298E+01 -2.54505E+01 -3.30311E+01 -3.89130E+01 -4.32821E+01 -4.80305E+01 -4.89882E+01
  -5.14893E+01 -5.09303E+01 -5.16163E+01 -5.17254E+01 -5.23455E+01 -5.21301E+01 -5.26927E+01 -5.00780E+01 -4.86532E+01 -4.54269E+01
  -4.25124E+01 -3.98771E+01 -3.72966E+01 -3.47892E+01 -3.21967E+01 -2.96350E+01 -2.69331E+01 -2.42501E+01 -2.13618E+01 -1.84621E+01
  -1.53288E+01 -1.20805E+01 -8.49482E+00 -4.70642E+00 -5.36791E-01  3.80784E+00  8.38282E+00  1.30839E+01  1.77159E+01  2.23532E+01
   2.66318E+01  3.07534E+01  3.42204E+01  3.72837E+01  3.94690E+01  4.09040E+01  4.13572E+01  4.07774E+01  3.93197E+01  3.67509E+01
   3.35625E+01  2.94449E+01  2.50556E+01  1.99819E+01  1.49230E+01  9.42581E+00  4.03071E+00 -1.58856E+00 -7.04730E+00 -1.24406E+01
  -1.76057E+01 -2.23309E+01 -2.67048E+01 -3.04220E+01 -3.38360E+01 -3.65846E+01 -3.91536E+01 -4.11431E+01 -4.30698E+01 -4.44632E+01
  -4.58537E+01 -4.66959E+01 -4.76093E+01 -4.80657E+01 -4.85842E+01 -4.88000E+01 -4.90576E+01 -4.91447E+01 -4.92328E+01 -4.92640E+01
  -4.92740E+01 -4.92510E+01 -4.92257E+01 -4.91492E+01 -4.91090E+01 -4.89925E+01 -4.89586E+01 -4.88271E+01 -4.87618E+01 -4.86378E+01
  -4.85284E+01 -4.84457E+01 -4.82801E+01 -4.82391E+01 -4.80464E+01 -4.80431E+01 -4.77913E+01 -4.78216E+01 -4.75529E+01 -4.75838E+01
  -4.73371E+01 -4.73589E+01 -4.71630E+01 -4.71850E+01 -4.70250E+01 -4.70185E+01 -4.68602E+01 -4.68271E+01 -4.66577E+01 -4.66187E+01
  -4.64379E+01 -4.64084E+01 -4.62249E+01 -4.62172E+01 -4.60171E+01 -4.60157E+01 -4.57977E+01 -4.57889E+01 -4.55745E+01 -4.55501E+01
  -4.53704E+01 -4.53387E+01 -4.52144E+01 -4.51173E+01 -4.50565E+01 -4.49010E+01 -4.48839E+01 -4.47184E+01 -4.47636E+01 -4.45932E+01
  -4.46878E+01 -4.45237E+01 -4.46452E+01 -4.44732E+01 -4.45775E+01 -4.43699E+01 -4.44579E+01 -4.41781E+01 -4.42173E+01 -4.38649E+01
 NY background values follow
    -3.215E+01   -3.211E+01   -3.207E+01   -3.203E+01   -3.199E+01   -3.195E+01   -3.191E+01   -3.187E+01   -3.183E+01   -3.179E+01
    -3.175E+01   -3.171E+01   -3.167E+01   -3.163E+01   -3.159E+01   -3.155E+01   -3.151E+01   -3.147E+01   -3.143E+01   -3.139E+01
    -3.135E+01   -3.131E+01   -3.127E+01   -3.123E+01   -3.119E+01   -3.115E+01   -3.111E+01   -3.107E+01   -3.103E+01   -3.099E+01
    -3.095E+01   -3.091E+01   -3.087E+01   -3.083E+01   -3.079E+01   -3.075E+01   -3.071E+01   -3.067E+01   -3.063E+01   -3.059E+01
    -3.055E+01   -3.051E+01   -3.047E+01   -3.043E+01   -3.039E+01   -3.035E+01   -3.031E+01   -3.027E+01   -3.023E+01   -3.019E+01
    -3.015E+01   -3.010E+01   -3.006E+01   -3.002E+01   -2.998E+01   -2.994E+01   -2.991E+01   -2.987E+01   -2.983E+01   -2.979E+01
    -2.975E+01   -2.971E+01   -2.967E+01   -2.963E+01   -2.959E+01   -2.955E+01   -2.951E+01   -2.947E+01   -2.943E+01   -2.940E+01
    -2.936E+01   -2.932E+01   -2.928E+01   -2.924E+01   -2.920E+01   -2.917E+01   -2.913E+01   -2.909E+01   -2.905E+01   -2.902E+01
    -2.898E+01   -2.894E+01   -2.891E+01   -2.887E+01   -2.883E+01   -2.880E+01   -2.876E+01   -2.873E+01   -2.869E+01   -2.865E+01
    -2.862E+01   -2.858E+01   -2.855E+01   -2.852E+01   -2.848E+01   -2.845E+01   -2.841E+01   -2.838E+01   -2.834E+01   -2.831E+01
    -2.828E+01   -2.824E+01   -2.821E+01   -2.818E+01   -2.815E+01   -2.811E+01   -2.808E+01   -2.805E+01   -2.802E+01   -2.799E+01
    -2.796E+01   -2.793E+01   -2.790E+01   -2.786E+01   -2.783E+01   -2.780E+01   -2.778E+01   -2.775E+01   -2.772E+01   -2.769E+01
    -2.766E+01   -2.763E+01   -2.760E+01   -2.757E+01   -2.755E+01   -2.752E+01   -2.749E+01   -2.747E+01   -2.744E+01   -2.741E+01
    -2.739E+01   -2.736E+01   -2.734E+01   -2.731E+01   -2.729E+01   -2.726E+01   -2.724E+01   -2.721E+01   -2.719E+01   -2.717E+01
    -2.714E+01   -2.712E+01   -2.710E+01   -2.708E+01   -2.706E+01   -2.704E+01   -2.702E+01   -2.699E+01   -2.697E+01   -2.695E+01
    -2.694E+01   -2.692E+01   -2.690E+01   -2.688E+01   -2.686E+01   -2.684E+01   -2.683E+01   -2.681E+01   -2.679E+01   -2.678E+01
    -2.676E+01   -2.675E+01   -2.673E+01   -2.672E+01   -2.670E+01   -2.669E+01   -2.668E+01   -2.666E+01   -2.665E+01   -2.664E+01
    -2.663E+01   -2.662E+01   -2.660E+01   -2.659E+01   -2.658E+01   -2.657E+01   -2.657E+01   -2.656E+01   -2.655E+01   -2.654E+01
    -2.653E+01   -2.653E+01   -2.652E+01   -2.651E+01   -2.651E+01   -2.650E+01   -2.650E+01   -2.649E+01   -2.649E+01   -2.648E+01
    -2.648E+01   -2.648E+01   -2.648E+01   -2.647E+01   -2.647E+01   -2.647E+01   -2.647E+01   -2.647E+01   -2.647E+01   -2.647E+01
    -2.647E+01   -2.647E+01   -2.648E+01   -2.648E+01   -2.648E+01   -2.648E+01   -2.649E+01   -2.649E+01   -2.650E+01   -2.650E+01
    -2.651E+01   -2.651E+01   -2.652E+01   -2.653E+01   -2.654E+01   -2.654E+01   -2.655E+01   -2.656E+01   -2.657E+01   -2.658E+01
    -2.659E+01   -2.660E+01   -2.661E+01   -2.662E+01   -2.663E+01   -2.665E+01   -2.666E+01   -2.667E+01   -2.669E+01   -2.670E+01
    -2.671E+01   -2.673E+01   -2.674E+01   -2.676E+01   -2.678E+01   -2.679E+01   -2.681E+01   -2.683E+01   -2.685E+01   -2.687E+01
    -2.688E+01   -2.690E+01   -2.692E+01   -2.694E+01   -2.697E+01   -2.699E+01   -2.701E+01   -2.703E+01   -2.705E+01   -2.708E+01
    -2.710E+01   -2.713E+01   -2.715E+01   -2.718E+01   -2.720E+01   -2.723E+01   -2.726E+01   -2.728E+01   -2.731E+01   -2.734E+01
    -2.737E+01   -2.740E+01   -2.743E+01   -2.746E+01   -2.749E+01   -2.752E+01   -2.755E+01   -2.758E+01   -2.761E+01   -2.765E+01
    -2.768E+01   -2.771E+01   -2.775E+01   -2.778E+01   -2.782E+01   -2.785E+01   -2.789E+01   -2.792E+01   -2.796E+01   -2.800E+01
    -2.803E+01   -2.807E+01   -2.811E+01   -2.815E+01   -2.818E+01   -2.822E+01   -2.826E+01   -2.830E+01   -2.834E+01   -2.838E+01
    -2.842E+01   -2.846E+01   -2.850E+01   -2.854E+01   -2.859E+01   -2.863E+01   -2.867E+01   -2.871E+01   -2.875E+01   -2.880E+01
    -2.884E+01   -2.888E+01   -2.893E+01   -2.897E+01   -2.901E+01   -2.906E+01   -2.910E+01   -2.915E+01   -2.919E+01   -2.924E+01
    -2.928E+01   -2.933E+01   -2.938E+01   -2.942E+01   -2.947E+01   -2.951E+01   -2.956E+01   -2.961E+01   -2.966E+01   -2.970E+01
    -2.975E+01   -2.980E+01   -2.985E+01   -2.990E+01   -2.994E+01   -2.999E+01   -3.004E+01   -3.009E+01   -3.014E+01   -3.019E+01
    -3.024E+01   -3.029E+01   -3.034E+01   -3.039E+01   -3.044E+01   -3.050E+01   -3.055E+01   -3.060E+01   -3.065E+01   -3.070E+01
    -3.075E+01   -3.081E+01   -3.086E+01   -3.091E+01   -3.097E+01   -3.102E+01   -3.107E+01   -3.113E+01   -3.118E+01   -3.123E+01
    -3.129E+01   -3.134E+01   -3.140E+01   -3.145E+01   -3.151E+01   -3.157E+01   -3.162E+01   -3.168E+01   -3.173E+01   -3.179E+01
    -3.185E+01   -3.190E+01   -3.196E+01   -3.202E+01   -3.208E+01   -3.213E+01   -3.219E+01   -3.225E+01   -3.231E+01   -3.237E+01
    -3.243E+01   -3.249E+01   -3.255E+01   -3.261E+01   -3.267E+01   -3.273E+01   -3.279E+01   -3.285E+01   -3.291E+01   -3.297E+01
    -3.303E+01   -3.309E+01   -3.315E+01   -3.322E+01   -3.328E+01   -3.334E+01   -3.340E+01   -3.347E+01   -3.353E+01   -3.359E+01
    -3.366E+01   -3.372E+01   -3.378E+01   -3.385E+01   -3.391E+01   -3.397E+01   -3.404E+01   -3.410E+01   -3.417E+01   -3.423E+01
    -3.430E+01   -3.436E+01   -3.443E+01   -3.449E+01   -3.456E+01   -3.462E+01   -3.469E+01   -3.475E+01   -3.482E+01   -3.488E+01
    -3.495E+01   -3.502E+01   -3.508E+01   -3.515E+01   -3.522E+01   -3.528E+01   -3.535E+01   -3.542E+01   -3.548E+01   -3.555E+01
    -3.562E+01   -3.568E+01   -3.575E+01   -3.582E+01   -3.588E+01   -3.595E+01   -3.602E+01   -3.609E+01   -3.615E+01   -3.622E+01
    -3.629E+01   -3.636E+01   -3.642E+01   -3.649E+01   -3.656E+01   -3.663E+01   -3.669E+01   -3.676E+01   -3.683E+01   -3.690E+01
    -3.696E+01   -3.703E+01   -3.710E+01   -3.717E+01   -3.723E+01   -3.730E+01   -3.737E+01   -3.744E+01   -3.751E+01   -3.757E+01
    -3.764E+01   -3.771E+01   -3.778E+01   -3.784E+01   -3.791E+01   -3.798E+01   -3.805E+01   -3.811E+01   -3.818E+01   -3.825E+01
    -3.832E+01   -3.838E+01   -3.845E+01   -3.852E+01   -3.859E+01   -3.865E+01   -3.872E+01   -3.879E+01   -3.886E+01   -3.892E+01
    -3.899E+01   -3.906E+01   -3.913E+01   -3.919E+01   -3.926E+01   -3.933E+01   -3.940E+01   -3.946E+01   -3.953E+01   -3.960E+01
 Mac      Conc. = 2.28E-04
  -4.77697E+01 -4.80573E+01 -4.88438E+01 -4.92743E+01 -5.01755E+01 -5.07415E+01 -5.17485E+01 -5.23237E+01 -5.32824E+01 -5.37106E+01
  -5.44629E+01 -5.46423E+01 -5.50673E+01 -5.49616E+01 -5.49205E+01 -5.45016E+01 -5.39290E+01 -5.31554E+01 -5.20435E+01 -5.08869E+01
  -4.93550E+01 -4.79628E+01 -4.62834E+01 -4.49000E+01 -4.32664E+01 -4.20048E+01 -4.04822E+01 -3.93107E+01 -3.78972E+01 -3.67222E+01
  -3.54622E+01 -3.43525E+01 -3.33343E+01 -3.24011E+01 -3.14912E+01 -3.06337E+01 -2.98068E+01 -2.89583E+01 -2.81775E+01 -2.73804E+01
  -2.67302E+01 -2.60744E+01 -2.56643E+01 -2.51897E+01 -2.50389E+01 -2.47801E+01 -2.48335E+01 -2.47103E+01 -2.48527E+01 -2.48089E+01
  -2.49818E+01 -2.50432E+01 -2.51662E+01 -2.52057E+01 -2.51371E+01 -2.51162E+01 -2.49069E+01 -2.48783E+01 -2.45689E+01 -2.45689E+01
  -2.41546E+01 -2.41785E+01 -2.36649E+01 -2.37140E+01 -2.31481E+01 -2.31761E+01 -2.25795E+01 -2.25229E+01 -2.18964E+01 -2.16899E+01
  -2.10798E+01 -2.07385E+01 -2.02286E+01 -1.98639E+01 -1.94703E+01 -1.92207E+01 -1.89347E+01 -1.87972E+01 -1.85540E+01 -1.84818E+01
  -1.81358E+01 -1.80725E+01 -1.75202E+01 -1.74584E+01 -1.67712E+01 -1.68127E+01 -1.61022E+01 -1.62468E+01 -1.56069E+01 -1.58543E+01
  -1.53649E+01 -1.57053E+01 -1.55156E+01 -1.61353E+01 -1.64253E+01 -1.75041E+01 -1.83838E+01 -1.99812E+01 -2.14546E+01 -2.34672E+01
  -2.54011E+01 -2.76804E+01 -2.98958E+01 -3.22760E+01 -3.45506E+01 -3.68082E+01 -3.89028E+01 -4.06850E+01 -4.23148E+01 -4.33089E+01
