 LCModel (Version 6.3-1N) Copyright: S.W. Provencher.          Ref.: Magn. Reson. Med. 30:672-679 (1993).                
 Slice_N1@9_20  28-Feb-2025 11:44:23
 27 lines in following concentration table = NCONC+1
    Conc.  %SD /Cr+PCr  Metabolite                                         
 2.97E-04   4% 3.7E-04 Mac                                                 
    1.133 114%   1.395 Cr                                                  
    5.362  25%   6.605 PCr                                                 
    4.433  18%   5.460 Ins                                                 
    8.924   8%  10.993 NAA                                                 
    5.293  15%   6.519 Tau                                                 
    0.000 999%   0.000 PCho                                                
    1.701  12%   2.095 GPC                                                 
    9.765  10%  12.028 Glu                                                 
    5.049  15%   6.220 Gln                                                 
    2.111  30%   2.601 Ala                                                 
    2.341  46%   2.884 Asc                                                 
    1.391  70%   1.713 Asp                                                 
    0.416 121%   0.512 GABA                                                
    0.971  70%   1.197 Glc                                                 
    1.229  39%   1.514 GSH                                                 
    0.000 999%   0.000 Lac                                                 
    2.610  21%   3.215 NAAG                                                
    0.000 999%   0.000 PE                                                  
    1.701  12%   2.095 GPC+PCho                                            
   11.534   7%  14.207 NAA+NAAG                                            
   14.814   9%  18.248 Glu+Gln                                             
    6.495  10%   8.000 Cr+PCr                                              
   11.534   7%  14.207 NAA+NAAG                                            
    6.495  10%   8.000 Cr+PCr                                              
   14.814   9%  18.248 Glu+Gln                                             
   6 lines in following misc. output table
  FWHM = 0.033 ppm    S/N =   4                                            
  Data shift = 0.049 ppm                                                   
  Ph:-114 deg       0.0 deg/ppm                                            
  alphaB,S = 1.3E-01,   6.4E+00                                            
   19 spline knots.   Ns = 5(1)                                            
  ( 5) 2 infls.   ( 4) 2 extrs.                                            
  480 points on ppm-axis = NY
      4.100000     4.091866     4.083733     4.075600     4.067466     4.059333     4.051199     4.043066     4.034933     4.026799
      4.018666     4.010532     4.002399     3.994265     3.986132     3.977998     3.969864     3.961731     3.953597     3.945463
      3.937330     3.929196     3.921062     3.912929     3.904795     3.896662     3.888528     3.880394     3.872261     3.864127
      3.855993     3.847860     3.839726     3.831592     3.823459     3.815325     3.807191     3.799058     3.790924     3.782790
      3.774657     3.766523     3.758389     3.750256     3.742122     3.733989     3.725855     3.717721     3.709588     3.701454
      3.693320     3.685187     3.677053     3.668919     3.660786     3.652652     3.644518     3.636385     3.628251     3.620117
      3.611984     3.603850     3.595716     3.587583     3.579449     3.571316     3.563182     3.555048     3.546915     3.538781
      3.530647     3.522514     3.514380     3.506246     3.498113     3.489979     3.481845     3.473712     3.465578     3.457444
      3.449311     3.441177     3.433043     3.424910     3.416776     3.408643     3.400509     3.392375     3.384242     3.376108
      3.367974     3.359841     3.351707     3.343573     3.335440     3.327306     3.319172     3.311039     3.302905     3.294771
      3.286638     3.278504     3.270370     3.262237     3.254103     3.245970     3.237836     3.229702     3.221569     3.213435
      3.205301     3.197168     3.189034     3.180900     3.172767     3.164633     3.156499     3.148366     3.140232     3.132098
      3.123965     3.115831     3.107697     3.099564     3.091430     3.083297     3.075163     3.067029     3.058896     3.050762
      3.042628     3.034495     3.026361     3.018227     3.010094     3.001960     2.993826     2.985693     2.977559     2.969425
      2.961292     2.953158     2.945024     2.936891     2.928757     2.920624     2.912490     2.904356     2.896223     2.888089
      2.879955     2.871822     2.863688     2.855554     2.847421     2.839287     2.831153     2.823020     2.814886     2.806752
      2.798619     2.790485     2.782351     2.774218     2.766084     2.757951     2.749817     2.741683     2.733550     2.725416
      2.717282     2.709149     2.701015     2.692881     2.684748     2.676614     2.668480     2.660347     2.652213     2.644079
      2.635946     2.627812     2.619678     2.611545     2.603411     2.595278     2.587144     2.579010     2.570877     2.562743
      2.554609     2.546476     2.538342     2.530208     2.522075     2.513941     2.505807     2.497674     2.489540     2.481406
      2.473273     2.465139     2.457006     2.448872     2.440738     2.432605     2.424471     2.416337     2.408204     2.400070
      2.391936     2.383803     2.375669     2.367535     2.359402     2.351268     2.343134     2.335001     2.326867     2.318733
      2.310600     2.302466     2.294333     2.286199     2.278065     2.269932     2.261798     2.253664     2.245531     2.237397
      2.229263     2.221130     2.212996     2.204862     2.196729     2.188595     2.180461     2.172328     2.164194     2.156060
      2.147927     2.139793     2.131660     2.123526     2.115392     2.107259     2.099125     2.090991     2.082858     2.074724
      2.066590     2.058457     2.050323     2.042189     2.034056     2.025922     2.017788     2.009655     2.001521     1.993387
      1.985254     1.977120     1.968987     1.960853     1.952719     1.944586     1.936452     1.928318     1.920185     1.912051
      1.903917     1.895784     1.887650     1.879516     1.871383     1.863249     1.855115     1.846982     1.838848     1.830714
      1.822581     1.814447     1.806314     1.798180     1.790046     1.781913     1.773779     1.765645     1.757512     1.749378
      1.741244     1.733111     1.724977     1.716843     1.708710     1.700576     1.692442     1.684309     1.676175     1.668041
      1.659908     1.651774     1.643641     1.635507     1.627373     1.619240     1.611106     1.602972     1.594839     1.586705
      1.578571     1.570438     1.562304     1.554170     1.546037     1.537903     1.529769     1.521636     1.513502     1.505368
      1.497235     1.489101     1.480968     1.472834     1.464700     1.456567     1.448433     1.440299     1.432166     1.424032
      1.415898     1.407765     1.399631     1.391497     1.383364     1.375230     1.367096     1.358963     1.350829     1.342695
      1.334562     1.326428     1.318295     1.310161     1.302027     1.293894     1.285760     1.277626     1.269493     1.261359
      1.253225     1.245092     1.236958     1.228824     1.220691     1.212557     1.204423     1.196290     1.188156     1.180022
      1.171889     1.163755     1.155622     1.147488     1.139354     1.131221     1.123087     1.114953     1.106820     1.098686
      1.090552     1.082419     1.074285     1.066151     1.058018     1.049884     1.041750     1.033617     1.025483     1.017349
      1.009216     1.001082     0.992949     0.984815     0.976681     0.968548     0.960414     0.952280     0.944147     0.936013
      0.927879     0.919746     0.911612     0.903478     0.895345     0.887211     0.879077     0.870944     0.862810     0.854676
      0.846543     0.838409     0.830276     0.822142     0.814008     0.805875     0.797741     0.789607     0.781474     0.773340
      0.765206     0.757073     0.748939     0.740805     0.732672     0.724538     0.716404     0.708271     0.700137     0.692003
      0.683870     0.675736     0.667603     0.659469     0.651335     0.643202     0.635068     0.626934     0.618801     0.610667
      0.602533     0.594400     0.586266     0.578132     0.569999     0.561865     0.553731     0.545598     0.537464     0.529330
      0.521197     0.513063     0.504930     0.496796     0.488662     0.480529     0.472395     0.464261     0.456128     0.447994
      0.439861     0.431727     0.423593     0.415460     0.407326     0.399192     0.391059     0.382925     0.374792     0.366658
      0.358524     0.350391     0.342257     0.334124     0.325990     0.317856     0.309723     0.301589     0.293455     0.285322
      0.277188     0.269055     0.260921     0.252787     0.244654     0.236520     0.228386     0.220253     0.212119     0.203986
 NY phased data points follow
  -3.38757E+01 -4.79637E+01 -1.92310E+01 -2.91890E+01 -6.90647E+01 -2.84560E+01 -3.70959E+01 -4.39408E+01 -2.93643E+01 -5.48267E+01
  -4.63771E+01 -4.22398E+01 -4.64954E+01 -4.39305E+01 -4.81387E+01 -4.27691E+01 -4.36121E+01 -8.21278E+01 -8.49096E+01 -1.12069E+02
  -1.30335E+02 -8.26857E+01 -7.79661E+01 -5.50964E+01 -2.94938E+01 -1.06476E+01 -1.07830E+01 -2.65644E+01 -8.90485E+00  5.51599E+00
  -7.20560E+00 -1.11722E+01  2.68532E-02 -1.79503E+01 -8.96835E+00 -1.81527E+01 -7.04682E+00  3.91274E+00 -4.16052E+01 -4.02916E+01
  -6.28179E+01 -7.59809E+01 -5.73062E+01 -7.92266E+01 -6.65076E+01 -1.40361E+01 -1.11868E+01  2.88741E-01  2.50586E+01  2.37217E+01
   3.35595E+01  1.80631E+01  6.27148E+00  8.54362E+00  4.06407E+00 -1.41289E+01 -4.33435E+00  8.27499E+00 -1.05993E+01 -1.19244E+01
  -2.74083E+01 -1.12932E+01 -1.06969E+00  3.83872E+00  2.69300E+01  2.44021E+01  3.81563E+01  3.78371E+01  1.81354E+01 -1.04904E+01
  -1.57955E+01 -1.35544E+01 -5.91812E+00  1.76431E+01  1.32141E+01  3.08081E+01  3.26817E+01  2.78460E+01  3.73326E+01  2.47310E+01
   2.12042E+01  1.45003E+01  1.57711E+01  1.07650E+01 -8.72361E+00 -2.22724E+01 -1.43581E+01  1.58164E+01  1.98196E+01  1.42401E+01
   2.44653E+01  3.49409E+01  4.11682E+01  4.63394E+01  4.79444E+01  4.50418E+01  5.45497E+01  8.18157E+01  7.39912E+01  6.97378E+01
   7.91965E+01  5.64395E+01  5.86065E+01  2.53604E+01  1.50294E+01  3.83525E+01  1.96733E+01  4.36834E+00 -4.27222E+01 -8.01775E+01
  -1.04077E+02 -1.04619E+02 -8.96678E+01 -7.44641E+01 -7.38102E+01 -5.79983E+01 -2.12524E+01 -4.11497E+01 -2.37564E+01 -2.48981E+01
  -2.07297E+01 -1.65594E+01 -1.16388E+01  2.27659E+01 -7.43527E+00  3.29561E+00  1.07383E+01  4.71024E+01  9.15001E+01  9.23298E+01
   1.02979E+02  8.47360E+01  4.31043E+01 -1.43395E+01 -3.24218E+01 -4.70050E+01 -6.03354E+01 -6.74268E+01 -6.00282E+01 -6.02546E+01
  -6.32299E+01 -6.24344E+01 -8.03405E+01 -7.09498E+01 -7.57336E+01 -5.39414E+01 -7.34124E+01 -7.45299E+01 -5.29029E+01 -6.91941E+01
  -4.46465E+01 -7.06305E+01 -5.91140E+01 -4.15212E+01 -5.74358E+01 -4.51248E+01 -5.29171E+01 -4.15779E+01 -3.10791E+01 -3.71006E+01
  -1.72280E+01 -2.14557E+01 -3.32991E+01 -1.81559E+01 -1.82803E+01 -1.16534E+01 -2.92613E+01 -1.81729E+01 -2.69690E+01 -3.48169E+01
   7.16198E+00 -4.58880E+00  5.74251E+00 -1.46466E+01 -1.29108E+01  1.16604E+01  5.05408E+00  4.99989E+00 -7.72770E+00 -5.71381E+00
  -2.02089E+01 -2.27925E+01 -4.73176E+01 -4.16706E+01 -3.10581E+01 -3.66811E+01 -1.24988E+01 -3.41687E+01 -4.70019E+01 -4.11797E+01
  -1.78548E+01 -2.18757E+01 -2.21009E+01 -1.45136E+01 -3.74165E+01 -2.78367E+01 -3.13648E+01 -2.42731E+01 -1.64458E+01 -3.17332E+01
  -3.00028E+01 -6.75259E+00  7.53972E+00  4.16091E+00  1.99012E+01  1.58588E+01 -1.32194E+01 -1.97841E+01 -2.48624E+01 -4.81287E+01
  -4.61663E+01 -4.56649E+01 -4.96774E+01 -2.30092E+01 -1.24023E+01  9.98287E+00  3.48380E+01  3.95586E+01  3.74345E+01  1.86572E+01
   2.00512E+01  1.00296E+01  7.00028E+00  1.70176E+01  9.67215E+00  2.38343E+00 -8.03384E-01  1.39843E+01  1.10312E+01  7.32772E+00
  -1.98202E+01 -3.60673E+01 -2.17035E+01 -2.99538E+01 -3.54198E+01 -5.17006E+01 -5.68446E+01 -7.65539E+01 -6.89225E+01 -6.28188E+01
  -7.53179E+01 -5.45589E+01 -5.26132E+01 -3.70510E+01 -2.67181E+01 -5.54467E+00  3.96588E-01 -2.35467E+01 -3.44932E+01 -2.25538E+01
  -2.25291E+01 -2.45227E+01 -1.69335E+01 -7.39526E+01 -8.13849E+01 -7.44798E+01 -6.14809E+01 -1.27195E+01  3.48507E+01  1.32297E+02
   1.67277E+02  1.40910E+02  1.42510E+02  1.25437E+02  9.35701E+01  1.22535E+02  1.13332E+02  9.82037E+01  1.04208E+02  8.99911E+01
   1.07951E+02  8.66325E+01  8.35446E+01  8.50922E+01  9.07494E+01  1.03544E+02  9.08535E+01  8.90699E+01  7.96659E+01  8.26993E+01
   8.97753E+01  8.35649E+01  7.59835E+01  9.33086E+01  7.61163E+01  7.06032E+01  6.66289E+01  6.88515E+01  7.74987E+01  4.62845E+01
   7.33355E+01  5.94416E+01  5.96796E+01  7.41090E+01  6.62092E+01  5.87001E+01  3.76094E+01  4.39946E+01  1.49708E+01  2.46544E+01
   2.54015E+01  2.23673E+01  1.84461E+01  7.04003E+00  2.87994E+01  1.51369E+01  2.14231E+01  2.34184E+01  2.49522E+01  2.35128E+01
   1.64093E+01  2.39398E+01  1.28014E+01  5.66621E+00  2.84844E+01  2.35240E+01  1.68045E+01  4.72244E+01  3.07212E+01  4.45296E+01
   3.83654E+01  1.90049E+01  3.19583E+01  4.05425E+00  1.19873E+01  6.93810E+00 -1.05959E+01 -1.89138E+01 -2.92481E+01 -1.62223E+01
  -2.44830E+01 -3.26550E+01 -4.27831E+01 -5.90732E+01 -3.86195E+01 -3.49149E+01 -4.16225E+01 -2.21893E+01 -7.89231E+00 -2.48834E+00
  -2.41288E+01 -2.34451E+01 -1.50553E+01 -1.45277E+01 -1.23868E+01 -1.59983E+01  8.36820E+00  1.44205E+01  1.81240E+01  1.48779E+01
   1.51665E+01  3.42742E+01  3.70807E+01  1.61597E+01 -1.65766E-01  4.48577E-01 -1.12753E+01 -6.01572E-01 -4.43129E+00 -5.31526E+00
  -2.85449E+00 -6.68646E-01 -1.43264E+00 -5.17083E+00  2.90736E+01  5.80702E+00  1.43098E+01  2.70228E+01  4.97329E+00  2.14102E+01
   1.86033E+01  2.56096E+01  2.32383E+01  4.45698E+01  4.30556E+01  2.50125E+01  4.41890E+01  3.80742E+01  5.88475E+01  6.63013E+01
   6.78046E+01  8.95111E+01  8.23219E+01  8.57576E+01  1.06061E+02  1.08915E+02  1.28310E+02  1.54217E+02  1.37221E+02  1.37129E+02
   1.34266E+02  1.17957E+02  1.11279E+02  9.02817E+01  9.45501E+01  9.27957E+01  7.76990E+01  8.60223E+01  6.70997E+01  4.25553E+01
   5.94644E+01  4.59388E+01  3.14801E+01  3.72321E+01  6.03844E+00 -2.21318E+00  3.07798E-01 -4.10931E-01 -5.43077E+00 -5.45955E+00
   1.79936E+01  3.79814E+00  3.86528E+00  2.25425E+00 -7.05740E+00  3.63985E+00 -1.00190E+01  4.76071E+00 -4.44471E+00 -4.12023E+00
   2.12394E+01 -4.95888E+00  1.15262E+01  1.00774E+01 -5.33414E+00  4.96387E+00 -1.20370E+01 -9.19739E+00 -6.55942E+00  1.17176E+00
   7.86484E+00  1.22186E+01 -3.79913E+00 -1.44178E+01  8.40640E+00 -1.59061E+01 -3.83753E+00  8.02268E+00 -1.24302E+01  1.57091E+01
   1.28507E+01 -5.03257E-01 -2.52331E+00 -2.27908E+01 -5.05054E+00  1.69562E+01 -2.88444E-01 -8.48108E-01  5.21694E+00 -4.85884E+00
  -4.87557E-01  1.06330E+01  2.32259E+00  2.21840E+00  3.11176E+00 -6.33247E+00 -3.93328E+00 -2.48609E-01  1.92726E+01  5.16461E+00
  -1.35053E+01  3.81175E+00  1.20629E+01  1.74115E+00 -5.09754E+00  1.60710E+01 -7.60353E+00 -8.03286E+00  1.24652E+01 -4.13104E+00
  -6.16151E+00 -9.13167E+00  5.82760E+00 -4.19074E+00 -2.70301E+00  9.90263E+00  4.15867E+00  2.35496E+01  5.14229E+00 -1.83407E+01
 NY points of the fit to the data follow
  -3.60060E+01 -4.24024E+01 -4.96751E+01 -5.37965E+01 -5.33736E+01 -4.92690E+01 -4.33483E+01 -3.91939E+01 -3.94524E+01 -4.29965E+01
  -4.62972E+01 -4.74086E+01 -4.76022E+01 -4.82363E+01 -4.85901E+01 -4.74433E+01 -5.38891E+01 -7.17936E+01 -9.03221E+01 -1.03013E+02
  -1.04747E+02 -9.22334E+01 -6.93179E+01 -4.43089E+01 -2.70443E+01 -1.83218E+01 -1.05047E+01 -4.04355E+00 -6.68298E-02  3.33470E+00
   5.61258E+00  6.97173E+00  7.08680E+00  6.83593E+00  5.92963E+00  6.11334E+00  2.16336E+00 -1.01823E+01 -2.87709E+01 -5.02795E+01
  -6.91838E+01 -7.92220E+01 -7.58389E+01 -6.18659E+01 -4.32047E+01 -2.51934E+01 -8.21754E+00  5.19527E+00  1.44955E+01  1.89546E+01
   1.91198E+01  1.52624E+01  7.97707E+00  1.26309E+00 -2.16670E-02 -1.44172E+00 -4.73276E+00 -5.54426E+00 -8.45177E+00 -1.24454E+01
  -1.30376E+01 -9.85864E+00 -2.88407E+00  4.73191E+00  1.54258E+01  2.72914E+01  2.88290E+01  2.28076E+01  1.45644E+01  3.02137E+00
  -6.27527E+00 -8.88318E+00 -4.82547E+00  2.07998E+00  9.03148E+00  1.89441E+01  2.95895E+01  3.68026E+01  4.22038E+01  4.17734E+01
   3.52861E+01  2.29425E+01  6.71763E+00 -6.19294E+00 -1.33031E+01 -1.32776E+01 -7.07418E+00  1.38545E+00  9.87093E+00  1.76251E+01
   2.30894E+01  2.87656E+01  3.33116E+01  3.71874E+01  4.14274E+01  4.48041E+01  4.60253E+01  5.03461E+01  5.58828E+01  5.97903E+01
   6.34364E+01  6.06363E+01  4.95981E+01  3.28186E+01  2.97962E+01  3.26831E+01  2.19625E+01  2.15668E-01 -3.18802E+01 -6.90699E+01
  -9.85236E+01 -1.07762E+02 -9.64851E+01 -7.93194E+01 -6.95939E+01 -5.75618E+01 -4.71282E+01 -3.87563E+01 -3.16432E+01 -2.54975E+01
  -1.99863E+01 -1.46587E+01 -9.07297E+00 -2.36005E+00  6.49285E+00  1.51896E+01  1.96110E+01  4.27417E+01  7.99376E+01  1.03391E+02
   1.07912E+02  8.76389E+01  4.52263E+01 -5.70445E+00 -4.63191E+01 -6.19697E+01 -6.17023E+01 -6.48355E+01 -6.43721E+01 -6.22901E+01
  -6.12602E+01 -6.12112E+01 -6.17280E+01 -6.25285E+01 -6.30020E+01 -6.25680E+01 -6.12954E+01 -5.90376E+01 -5.61570E+01 -5.33912E+01
  -5.09549E+01 -4.87592E+01 -4.65604E+01 -4.41864E+01 -4.17901E+01 -3.94589E+01 -3.77351E+01 -3.64076E+01 -3.48507E+01 -3.31490E+01
  -3.17578E+01 -3.11693E+01 -3.08852E+01 -2.99488E+01 -2.84293E+01 -2.71934E+01 -2.79708E+01 -3.07628E+01 -3.13419E+01 -2.62153E+01
  -1.75922E+01 -9.75674E+00 -5.74340E+00 -5.53961E+00 -5.21085E+00 -3.21370E+00  5.56781E-01  4.11854E+00  2.30845E+00 -5.27529E+00
  -1.47443E+01 -2.28119E+01 -2.81455E+01 -3.21886E+01 -3.55980E+01 -3.71901E+01 -3.85567E+01 -3.82722E+01 -3.65194E+01 -3.69364E+01
  -3.66147E+01 -3.30908E+01 -2.94094E+01 -2.58217E+01 -2.22996E+01 -1.84211E+01 -1.46282E+01 -1.42237E+01 -1.39131E+01 -1.11178E+01
  -7.72981E+00 -3.63949E+00  2.27354E+00  8.79355E+00  1.22385E+01  1.01673E+01  4.34852E+00 -3.77108E+00 -1.53147E+01 -2.61450E+01
  -3.89195E+01 -4.73730E+01 -4.50875E+01 -3.60976E+01 -1.69894E+01  7.58899E+00  2.84068E+01  4.20101E+01  4.48988E+01  4.01470E+01
   3.47176E+01  2.74632E+01  2.41669E+01  2.48285E+01  2.52144E+01  2.54763E+01  2.40647E+01  2.01772E+01  1.31507E+01  3.85434E+00
  -6.86461E+00 -1.98558E+01 -3.23710E+01 -4.39142E+01 -5.56088E+01 -6.39992E+01 -6.99230E+01 -7.47130E+01 -7.56353E+01 -7.59415E+01
  -7.24653E+01 -6.46672E+01 -5.55132E+01 -4.22466E+01 -3.02638E+01 -2.25782E+01 -1.67481E+01 -1.45836E+01 -1.80219E+01 -3.05408E+01
  -4.10137E+01 -3.42629E+01 -4.03167E+01 -6.64585E+01 -8.31795E+01 -8.37540E+01 -6.35992E+01 -1.89815E+01  4.30838E+01  1.00209E+02
   1.24576E+02  1.22752E+02  1.21241E+02  1.17742E+02  1.10643E+02  1.04069E+02  9.79382E+01  9.22322E+01  8.69735E+01  8.28233E+01
   7.97371E+01  7.78901E+01  7.70248E+01  7.65645E+01  7.62781E+01  7.61010E+01  7.57664E+01  7.53611E+01  7.46004E+01  7.34311E+01
   7.20135E+01  7.00736E+01  6.79645E+01  6.57744E+01  6.34891E+01  6.12965E+01  5.89446E+01  5.63713E+01  5.36307E+01  5.03774E+01
   4.63783E+01  4.17065E+01  3.64805E+01  3.13447E+01  2.69244E+01  2.38473E+01  2.23741E+01  2.22934E+01  2.32616E+01  2.48899E+01
   2.69760E+01  2.94111E+01  3.20683E+01  3.45438E+01  3.67394E+01  3.88773E+01  4.11109E+01  4.35186E+01  4.60842E+01  4.85902E+01
   5.10216E+01  5.32896E+01  5.53021E+01  5.73686E+01  5.94236E+01  6.10320E+01  6.22324E+01  6.54137E+01  6.87759E+01  6.95056E+01
   6.80246E+01  6.09070E+01  4.86910E+01  3.51854E+01  2.29398E+01  1.42778E+01  8.23400E+00  2.69026E+00 -2.49195E+00 -9.56450E+00
  -1.79294E+01 -2.51820E+01 -3.10391E+01 -3.43193E+01 -3.46183E+01 -3.22043E+01 -2.83492E+01 -2.44033E+01 -2.09624E+01 -1.82436E+01
  -1.57305E+01 -1.25671E+01 -8.50947E+00 -3.71244E+00  1.00941E+00  5.27700E+00  8.88102E+00  1.15559E+01  1.35193E+01  1.48465E+01
   1.50526E+01  1.36307E+01  1.05368E+01  6.25152E+00  1.34719E+00 -3.29181E+00 -6.85319E+00 -8.96322E+00 -9.59788E+00 -8.79722E+00
  -6.73042E+00 -3.68699E+00 -5.18660E-03  4.00188E+00  8.00607E+00  1.18463E+01  1.56087E+01  1.92119E+01  2.26840E+01  2.61555E+01
   2.94985E+01  3.26971E+01  3.60318E+01  3.95167E+01  4.31259E+01  4.72360E+01  5.20040E+01  5.72759E+01  6.29810E+01  6.93789E+01
   7.66637E+01  8.48708E+01  9.41828E+01  1.04706E+02  1.15646E+02  1.25241E+02  1.31663E+02  1.33424E+02  1.30290E+02  1.22779E+02
   1.12717E+02  1.02319E+02  9.31920E+01  8.53963E+01  7.84918E+01  7.18897E+01  6.45339E+01  5.57953E+01  4.61212E+01  3.63251E+01
   2.70546E+01  1.87814E+01  1.19450E+01  6.79418E+00  2.89306E+00  1.41381E-01 -1.70540E+00 -3.08954E+00 -4.30081E+00 -5.23822E+00
  -5.96018E+00 -6.48723E+00 -6.77013E+00 -6.65824E+00 -6.37524E+00 -6.31508E+00 -6.19718E+00 -5.95503E+00 -5.74858E+00 -5.56775E+00
  -5.23566E+00 -4.77904E+00 -4.37723E+00 -4.18225E+00 -4.07070E+00 -3.84335E+00 -3.61572E+00 -3.29569E+00 -2.82447E+00 -2.23320E+00
  -1.81243E+00 -1.67867E+00 -1.64800E+00 -1.65824E+00 -1.53955E+00 -1.29914E+00 -9.37607E-01 -5.60143E-01 -1.78844E-01  2.52011E-01
   7.70268E-01  1.14603E+00  1.27152E+00  1.34395E+00  1.29271E+00  1.18973E+00  1.34005E+00  1.72064E+00  2.00625E+00  2.16932E+00
   2.26872E+00  2.32918E+00  2.47424E+00  2.69642E+00  3.04789E+00  3.38608E+00  3.65928E+00  3.97538E+00  4.30172E+00  4.59410E+00
   4.75703E+00  4.86013E+00  4.72385E+00  4.51310E+00  4.41836E+00  4.63532E+00  5.12126E+00  5.81053E+00  6.39715E+00  6.67884E+00
   6.68819E+00  6.57027E+00  6.40362E+00  6.41291E+00  6.67809E+00  6.86274E+00  6.93297E+00  6.96366E+00  6.85128E+00  6.74535E+00
 NY background values follow
    -1.580E+01   -1.563E+01   -1.545E+01   -1.528E+01   -1.511E+01   -1.493E+01   -1.476E+01   -1.458E+01   -1.441E+01   -1.423E+01
    -1.405E+01   -1.388E+01   -1.370E+01   -1.352E+01   -1.334E+01   -1.316E+01   -1.298E+01   -1.280E+01   -1.262E+01   -1.243E+01
    -1.225E+01   -1.206E+01   -1.187E+01   -1.168E+01   -1.149E+01   -1.130E+01   -1.110E+01   -1.091E+01   -1.071E+01   -1.051E+01
    -1.031E+01   -1.010E+01   -9.894E+00   -9.686E+00   -9.475E+00   -9.263E+00   -9.050E+00   -8.835E+00   -8.619E+00   -8.401E+00
    -8.183E+00   -7.963E+00   -7.742E+00   -7.521E+00   -7.299E+00   -7.076E+00   -6.852E+00   -6.629E+00   -6.405E+00   -6.180E+00
    -5.956E+00   -5.732E+00   -5.507E+00   -5.283E+00   -5.060E+00   -4.836E+00   -4.613E+00   -4.391E+00   -4.170E+00   -3.949E+00
    -3.730E+00   -3.511E+00   -3.294E+00   -3.078E+00   -2.863E+00   -2.649E+00   -2.438E+00   -2.227E+00   -2.018E+00   -1.811E+00
    -1.606E+00   -1.403E+00   -1.202E+00   -1.003E+00   -8.056E-01   -6.109E-01   -4.185E-01   -2.286E-01   -4.113E-02    1.437E-01
     3.258E-01    5.051E-01    6.816E-01    8.552E-01    1.026E+00    1.193E+00    1.357E+00    1.518E+00    1.676E+00    1.830E+00
     1.980E+00    2.127E+00    2.270E+00    2.410E+00    2.546E+00    2.679E+00    2.809E+00    2.935E+00    3.058E+00    3.178E+00
     3.294E+00    3.408E+00    3.518E+00    3.626E+00    3.730E+00    3.831E+00    3.930E+00    4.026E+00    4.119E+00    4.209E+00
     4.297E+00    4.382E+00    4.465E+00    4.545E+00    4.622E+00    4.698E+00    4.770E+00    4.841E+00    4.909E+00    4.975E+00
     5.039E+00    5.101E+00    5.160E+00    5.218E+00    5.274E+00    5.328E+00    5.381E+00    5.432E+00    5.481E+00    5.529E+00
     5.575E+00    5.620E+00    5.664E+00    5.707E+00    5.748E+00    5.789E+00    5.829E+00    5.868E+00    5.906E+00    5.943E+00
     5.980E+00    6.017E+00    6.052E+00    6.088E+00    6.123E+00    6.158E+00    6.193E+00    6.228E+00    6.263E+00    6.298E+00
     6.334E+00    6.369E+00    6.405E+00    6.441E+00    6.477E+00    6.513E+00    6.550E+00    6.586E+00    6.623E+00    6.659E+00
     6.696E+00    6.733E+00    6.770E+00    6.807E+00    6.843E+00    6.880E+00    6.917E+00    6.953E+00    6.990E+00    7.026E+00
     7.062E+00    7.098E+00    7.134E+00    7.169E+00    7.205E+00    7.240E+00    7.275E+00    7.309E+00    7.343E+00    7.377E+00
     7.411E+00    7.444E+00    7.477E+00    7.509E+00    7.541E+00    7.574E+00    7.606E+00    7.638E+00    7.670E+00    7.702E+00
     7.734E+00    7.766E+00    7.799E+00    7.831E+00    7.864E+00    7.897E+00    7.931E+00    7.965E+00    8.000E+00    8.035E+00
     8.071E+00    8.107E+00    8.144E+00    8.182E+00    8.220E+00    8.259E+00    8.299E+00    8.341E+00    8.383E+00    8.426E+00
     8.470E+00    8.515E+00    8.561E+00    8.607E+00    8.654E+00    8.701E+00    8.748E+00    8.794E+00    8.840E+00    8.884E+00
     8.928E+00    8.971E+00    9.012E+00    9.051E+00    9.088E+00    9.123E+00    9.155E+00    9.185E+00    9.212E+00    9.236E+00
     9.256E+00    9.273E+00    9.286E+00    9.295E+00    9.300E+00    9.300E+00    9.295E+00    9.286E+00    9.271E+00    9.251E+00
     9.225E+00    9.193E+00    9.156E+00    9.112E+00    9.062E+00    9.005E+00    8.942E+00    8.871E+00    8.794E+00    8.710E+00
     8.619E+00    8.520E+00    8.414E+00    8.300E+00    8.178E+00    8.048E+00    7.910E+00    7.764E+00    7.609E+00    7.445E+00
     7.273E+00    7.092E+00    6.901E+00    6.702E+00    6.493E+00    6.274E+00    6.046E+00    5.808E+00    5.559E+00    5.301E+00
     5.032E+00    4.754E+00    4.465E+00    4.168E+00    3.862E+00    3.549E+00    3.227E+00    2.899E+00    2.565E+00    2.225E+00
     1.880E+00    1.530E+00    1.176E+00    8.185E-01    4.578E-01    9.461E-02   -2.705E-01   -6.371E-01   -1.005E+00   -1.372E+00
    -1.740E+00   -2.107E+00   -2.472E+00   -2.836E+00   -3.197E+00   -3.556E+00   -3.911E+00   -4.262E+00   -4.608E+00   -4.950E+00
    -5.285E+00   -5.615E+00   -5.938E+00   -6.255E+00   -6.564E+00   -6.867E+00   -7.161E+00   -7.447E+00   -7.725E+00   -7.993E+00
    -8.253E+00   -8.503E+00   -8.744E+00   -8.974E+00   -9.193E+00   -9.402E+00   -9.599E+00   -9.785E+00   -9.959E+00   -1.012E+01
    -1.027E+01   -1.041E+01   -1.053E+01   -1.064E+01   -1.073E+01   -1.081E+01   -1.088E+01   -1.093E+01   -1.096E+01   -1.098E+01
    -1.099E+01   -1.097E+01   -1.095E+01   -1.090E+01   -1.084E+01   -1.077E+01   -1.068E+01   -1.058E+01   -1.047E+01   -1.034E+01
    -1.020E+01   -1.005E+01   -9.885E+00   -9.709E+00   -9.522E+00   -9.324E+00   -9.115E+00   -8.896E+00   -8.667E+00   -8.429E+00
    -8.182E+00   -7.926E+00   -7.661E+00   -7.389E+00   -7.109E+00   -6.821E+00   -6.527E+00   -6.226E+00   -5.919E+00   -5.606E+00
    -5.288E+00   -4.964E+00   -4.636E+00   -4.303E+00   -3.966E+00   -3.626E+00   -3.282E+00   -2.934E+00   -2.584E+00   -2.232E+00
    -1.877E+00   -1.520E+00   -1.162E+00   -8.032E-01   -4.434E-01   -8.300E-02    2.775E-01    6.378E-01    9.975E-01    1.356E+00
     1.714E+00    2.070E+00    2.424E+00    2.776E+00    3.126E+00    3.472E+00    3.816E+00    4.156E+00    4.492E+00    4.823E+00
     5.151E+00    5.473E+00    5.791E+00    6.103E+00    6.411E+00    6.713E+00    7.011E+00    7.302E+00    7.588E+00    7.868E+00
     8.143E+00    8.411E+00    8.674E+00    8.930E+00    9.180E+00    9.423E+00    9.660E+00    9.890E+00    1.011E+01    1.033E+01
     1.054E+01    1.074E+01    1.093E+01    1.112E+01    1.130E+01    1.147E+01    1.164E+01    1.179E+01    1.194E+01    1.208E+01
     1.221E+01    1.233E+01    1.245E+01    1.256E+01    1.266E+01    1.275E+01    1.283E+01    1.291E+01    1.298E+01    1.305E+01
     1.311E+01    1.316E+01    1.320E+01    1.324E+01    1.328E+01    1.331E+01    1.333E+01    1.335E+01    1.336E+01    1.337E+01
     1.338E+01    1.338E+01    1.337E+01    1.337E+01    1.336E+01    1.334E+01    1.332E+01    1.330E+01    1.328E+01    1.325E+01
     1.322E+01    1.319E+01    1.316E+01    1.312E+01    1.308E+01    1.304E+01    1.300E+01    1.295E+01    1.291E+01    1.286E+01
     1.281E+01    1.276E+01    1.271E+01    1.266E+01    1.260E+01    1.255E+01    1.249E+01    1.243E+01    1.238E+01    1.232E+01
     1.226E+01    1.220E+01    1.214E+01    1.208E+01    1.202E+01    1.196E+01    1.190E+01    1.184E+01    1.178E+01    1.172E+01
 Mac      Conc. = 2.97E-04
  -3.62692E+01 -3.64761E+01 -3.63475E+01 -3.61702E+01 -3.63242E+01 -3.70130E+01 -3.83679E+01 -4.00971E+01 -4.18743E+01 -4.32935E+01
  -4.39183E+01 -4.38477E+01 -4.37545E+01 -4.49913E+01 -4.72688E+01 -4.93400E+01 -5.07027E+01 -5.04788E+01 -4.78215E+01 -4.34313E+01
  -3.86044E+01 -3.43935E+01 -3.08620E+01 -2.80038E+01 -2.61937E+01 -2.47061E+01 -2.28934E+01 -2.07637E+01 -1.85060E+01 -1.61288E+01
  -1.37679E+01 -1.18135E+01 -1.06609E+01 -1.04171E+01 -1.07385E+01 -1.07208E+01 -9.70506E+00 -7.79089E+00 -5.49168E+00 -3.66934E+00
  -2.71897E+00 -2.21144E+00 -1.50779E+00 -1.57335E-01  1.59117E+00  3.26205E+00  4.42895E+00  4.77525E+00  4.39211E+00  3.51175E+00
   2.38730E+00  1.25855E+00  1.36902E-01 -9.76774E-01 -1.67326E+00 -1.94691E+00 -1.88603E+00 -1.14030E+00  3.71758E-01  2.27081E+00
   4.32570E+00  6.09282E+00  7.30415E+00  7.77697E+00  7.58530E+00  7.05663E+00  6.00605E+00  4.73426E+00  3.92367E+00  3.90519E+00
   4.93753E+00  7.11162E+00  9.90889E+00  1.25916E+01  1.44004E+01  1.54226E+01  1.58437E+01  1.57639E+01  1.52832E+01  1.45213E+01
   1.38772E+01  1.33760E+01  1.30891E+01  1.32207E+01  1.38253E+01  1.47627E+01  1.57562E+01  1.67424E+01  1.77564E+01  1.86395E+01
   1.95461E+01  2.06186E+01  2.14859E+01  2.21008E+01  2.20632E+01  2.10938E+01  1.92645E+01  1.71262E+01  1.49906E+01  1.31051E+01
   1.15543E+01  1.04035E+01  9.12383E+00  6.67560E+00  2.29976E+00 -3.82268E+00 -1.12309E+01 -1.87351E+01 -2.47666E+01 -2.82428E+01
