 
 $NMID
 ID=''
 FMTDAT='(2E13.5)'
 TRAMP=   1.00000E+0
 VOLUME=   1.00000E+0
 $END
   1.05528E+4  -2.02967E+4
  -9.48193E+3  -2.54798E+4
  -1.93191E+4   1.19846E+4
   1.74083E+4   2.64154E+4
   1.76611E+4  -1.54917E+4
  -1.74356E+4  -2.02497E+4
  -8.22619E+3   1.58526E+4
   1.64405E+4   9.46121E+3
   1.46097E+3  -1.20719E+4
  -1.21668E+4   1.53276E+3
  -7.55414E+2   1.11150E+4
   4.43314E+3  -1.60988E+3
  -1.12114E+3  -5.55085E+3
  -4.32871E+3   5.39327E+2
  -2.34439E+3   1.29292E+3
   3.82783E+3  -1.15686E+3
   3.19332E+3  -1.95331E+3
  -3.01801E+3   4.02451E+2
  -1.35961E+3   2.73642E+3
   2.62612E+3   2.04005E+2
  -4.22640E+2  -2.40031E+3
  -6.41614E+2  -8.21585E+1
   1.89303E+3   2.28666E+3
  -3.86711E+2   4.34465E+2
  -1.18380E+3  -2.01934E+3
   2.09603E+3  -2.58818E+2
   1.80974E+3   3.50013E+3
  -1.61664E+3   1.29741E+3
  -1.61560E+3  -3.19377E+3
   9.44345E+2  -3.86387E+2
   7.60936E+2   3.18731E+3
  -1.30008E+3   1.02216E+3
  -1.62340E+3  -1.71873E+3
   4.14859E+1  -1.71163E+3
   1.57963E+3  -1.59599E+3
   1.81114E+3   4.46935E+2
   8.64869E+2   2.69749E+3
  -3.75391E+2   1.30536E+3
  -2.49614E+2  -8.45956E+2
  -2.99083E+1   2.08242E+2
  -8.95363E+2   7.20305E+1
  -3.69373E+2  -1.53051E+3
   1.83501E+3  -5.63508E+2
   1.81552E+3   4.11717E+2
   8.60094E+2   2.90084E+1
   8.54388E+2   7.67009E+2
  -6.29392E+2   2.31703E+3
  -2.36592E+3   4.41042E+2
  -1.07905E+3  -2.78747E+3
   8.87334E+2  -1.88608E+3
   9.83521E+2   2.69299E+2
   5.37187E+2  -2.92917E+2
   4.37745E+2  -8.24384E+2
   6.12272E+2   6.46028E+2
   5.82837E+2   9.59301E+2
  -2.95192E+2  -1.73214E+2
  -1.23216E+3  -1.11767E+3
  -6.43737E+1  -1.26206E+3
   1.41910E+3  -7.97517E+2
   1.12799E+3   4.80867E+1
   1.64650E+2   4.63770E+2
   5.16269E+2   1.00330E+3
   9.96750E+1   1.63523E+3
  -1.89497E+3   7.20437E+2
  -2.37210E+3  -1.20106E+3
  -5.72748E+2  -1.45508E+3
   9.07397E+2  -1.59146E+3
   1.10444E+3  -7.28966E+2
   9.42627E+2   8.38949E+0
   2.21077E+2   8.30056E+2
  -5.02136E+2   2.82431E+2
   4.72676E+2  -7.24362E+2
   6.84590E+2   2.05306E+2
   1.10765E+2   1.00459E+3
  -7.25729E+2   3.36275E+2
  -4.83541E+2  -4.84865E+2
   3.21795E+2   1.15368E+2
  -8.97916E+1   9.29774E+2
  -2.30276E+2   3.96974E+2
  -6.01702E+2  -3.36922E+2
  -6.09389E+2  -4.07678E+2
  -1.17145E+2  -1.78952E+2
   3.73477E+2   2.83857E+2
  -1.75828E+2  -7.88774E+1
   7.20774E+1  -3.83690E+2
   7.00142E+2  -3.89896E+2
   9.71895E+2   1.21834E+2
   8.99344E+1   5.97237E+2
  -1.24673E+2   3.41239E+2
   4.83643E+2   2.94713E+2
   8.09880E+2   6.41060E+2
  -3.01044E+2   7.03703E+2
  -1.27449E+3   6.95653E+2
  -1.17296E+3  -2.65187E+2
  -3.48682E+2  -1.09084E+3
   7.36169E+2  -8.61570E+2
   7.86577E+2   2.20652E+1
  -1.34769E+2   2.10124E+2
   8.44583E+1  -2.25975E+2
   9.09532E+2  -1.80319E+2
   7.47935E+2   7.13900E+2
  -4.97246E+2   9.98099E+2
  -1.11014E+3  -1.03434E+2
  -2.54691E+2  -1.15456E+3
   6.85535E+2  -5.55785E+2
   4.95102E+2   5.10201E+2
  -3.94246E+2   4.85328E+2
  -9.71968E+2  -3.08179E+2
   1.76126E+2  -1.18846E+3
   1.06584E+3  -8.39507E+2
   1.36842E+3   4.62268E+2
   3.18441E+2   1.10262E+3
  -2.16964E+2   7.02857E+2
   3.00797E+1   6.51856E+1
  -2.63012E+2   2.96614E+2
  -6.95559E+2   3.29953E+2
  -9.20075E+2   5.56565E+1
  -7.17010E+2  -1.18791E+3
   3.03937E+2  -1.20918E+3
   1.08689E+3  -4.68706E+2
   8.31798E+2   3.70946E+2
   3.13722E+2   5.70542E+2
   4.53537E+1   4.65268E+2
  -9.83328E+1   3.32870E+2
  -6.50621E+2   2.80650E+2
  -4.91295E+2  -2.76666E+2
  -1.98348E+2  -2.27382E+2
   4.73402E+2  -3.38598E+2
   2.56926E+2  -1.30076E+2
  -2.54926E+2   5.51847E+2
  -5.96679E+2   2.82204E+2
  -4.48764E+2  -5.09630E+2
   9.15941E+1  -5.76936E+2
   3.12340E+2  -6.13150E+1
  -2.37722E+2  -5.77841E+1
  -2.40266E+2  -3.97181E+2
   2.48181E+2  -1.35772E+1
   3.23107E+2   4.15362E+2
  -3.92599E+1   2.57536E+2
  -5.97782E+2  -9.36164E+1
  -4.36141E+2  -4.96663E+2
   9.30429E+1  -4.82641E+2
   7.36029E+2  -2.06155E+1
   4.38918E+1   8.62921E+2
  -8.04275E+2   5.87871E+2
  -6.89281E+2  -1.88021E+2
  -3.27987E+2  -2.79798E+2
  -1.62425E+2  -3.47833E+2
  -2.33789E+2  -1.77428E+2
  -2.51270E+2  -5.19451E+2
   1.39473E+2  -5.86117E+2
   6.14378E+2  -3.42862E+2
   3.76837E+2   2.25503E+2
  -2.47285E+1   4.83098E+2
  -6.26314E+2   2.50194E+2
   4.02105E+1  -1.19038E+1
   2.04784E+2   3.34403E+2
   7.50936E+1   3.88019E+2
  -1.66774E+2   4.88771E+1
  -1.07627E+2  -1.46215E+2
  -2.26296E+2   4.15369E+2
  -5.01156E+2   1.76465E+2
  -3.42451E+2  -5.00777E+2
   3.12972E+0  -5.14158E+2
   1.41634E+2  -3.75092E+2
   4.00371E+2  -1.25215E+2
   4.75520E+2   4.45161E+2
  -1.41895E+2   2.29373E+2
  -1.63813E+2  -7.61040E+1
   1.22230E+2  -1.31177E+2
   3.26427E+2   1.10662E+2
   1.24226E+2   1.98158E+2
  -2.68280E+2   2.13194E+1
  -7.48148E+1   2.44346E+1
   4.72994E+2  -2.39936E+2
   2.88213E+2   1.27020E+2
  -4.70425E+2   5.03763E+2
  -5.26216E+2  -8.17004E+1
   8.05498E+1  -3.92522E+2
   8.29941E+2   2.17754E+2
   7.58475E+1   3.24363E+2
  -2.82523E+2   4.03271E+2
  -2.95824E+2  -1.33725E+2
  -6.70665E+1  -4.12519E+2
   7.26549E+0  -2.70782E+2
  -2.74850E+1  -2.57381E+2
   8.11783E+1  -4.37365E+2
   2.43018E+2  -2.81755E+2
   4.51036E+2   1.74949E+2
   4.55917E+2   6.63881E+2
  -1.72328E+2   6.71200E+2
  -7.45087E+2  -3.22813E+1
  -5.15671E+2  -5.17396E+2
   7.10342E+1  -4.95581E+2
   3.29399E+2  -3.47618E+2
   1.10751E+2   2.93197E+1
  -1.51476E+2   5.12644E+1
   2.94369E+1   2.24883E+2
   1.96414E+1   1.59867E+2
  -3.62903E+2   1.95184E+2
  -3.78607E+2  -3.71154E+2
   1.73411E+2  -7.84198E+2
   4.17276E+2  -3.32463E+2
   1.73661E+2   1.83530E+2
  -2.41427E+1  -1.74330E+1
  -2.02631E+2   3.08348E+1
  -1.47193E+2  -3.95799E+2
   2.47767E+1  -1.07356E+2
   5.10757E+1  -7.64868E+1
  -9.26261E+1   3.06886E+2
  -3.73135E+2  -3.17433E+2
   1.13528E+2  -6.25761E+1
   2.28427E+2   2.55025E+2
  -3.16617E+2   3.04153E+2
  -8.02792E+2   1.50047E+2
  -5.19592E+2  -4.58347E+2
   8.49161E+1  -3.64629E+2
   4.52999E+2   6.10281E+1
   2.38376E+2   2.15024E+2
   1.25552E+2  -1.62165E+2
  -2.14042E+1  -1.00137E+2
   1.82245E+2   1.07416E+2
  -1.04010E+2   6.28486E+2
  -5.07107E+2  -1.47615E+1
  -4.97923E+2  -2.83271E+2
   1.22192E+2  -5.20441E+2
   4.08312E+2   7.19732E+1
  -2.23176E+2   3.34034E+2
  -3.30151E+2   1.95823E+2
  -3.18882E+2  -1.43819E+2
  -8.03290E+1  -2.02416E+2
  -1.08552E+2   1.29863E+2
  -4.46526E+1  -2.05482E+2
  -1.96736E+1  -6.94194E+1
  -5.31400E+1  -2.19705E+2
   5.67674E+1  -1.73027E+2
   8.95115E+1   3.46335E+2
  -1.12342E+2   3.19086E+2
  -1.80621E+2  -1.39811E+1
  -1.10043E+2   1.00134E+0
   3.91068E+2   5.17988E+1
  -1.19932E+2   3.98754E+2
  -2.98332E+2   1.06258E+2
  -2.94432E+2  -3.75070E+2
   1.74237E+1  -2.28212E+2
   1.24302E+2   1.75031E+2
  -2.75970E+2   3.03730E+2
  -1.44251E+2  -1.93041E+2
   1.90702E+1  -3.32544E+2
   3.40154E+2   7.52889E+1
   5.38574E+1   5.97271E+1
  -2.56163E+2   1.56169E+2
  -6.72527E+1  -1.61881E+2
   1.35674E+2  -4.65331E+2
   3.89494E+2  -1.52266E+2
   1.50224E+1   3.63611E+2
   5.39214E+0   2.97201E+2
  -2.65959E+1   7.34998E+1
  -1.93682E+2  -3.92764E+1
   3.76259E+1   2.50738E+2
  -3.33432E+2   1.36878E+2
  -3.19673E+2  -2.49269E+2
   2.89389E+1  -4.29344E+2
   3.36186E+2  -1.38155E+2
   3.05532E+2   9.19009E+1
  -2.21744E+1   3.05360E+2
  -2.72373E+2   2.04164E+2
  -2.23309E+2  -3.67312E+2
   1.37325E+2  -9.75792E+1
   1.69917E+2  -7.27159E+0
   4.54528E+1   1.05982E+2
  -7.40482E+1  -7.54773E+1
   5.19036E+1  -2.34259E+2
   1.25230E+2   3.38445E+2
  -2.44232E+2   2.38998E+2
  -2.66039E+2  -1.13659E+1
  -1.98668E+1  -2.63434E+2
   1.66033E+2  -2.43429E+2
   1.73270E+2   5.59004E+0
  -2.26685E+1   5.64298E+1
  -1.46574E+2   3.89138E+1
  -1.67766E+2   4.53140E+1
  -1.24087E+2  -9.73495E+1
  -3.18573E+1   1.46404E+2
  -3.08192E+2  -3.80850E+1
  -2.65046E+2  -3.78042E+2
   3.09503E+2  -3.12321E+2
   1.16152E+2   2.26857E+2
   2.19735E+2   4.37192E+2
  -2.06932E+2   2.46111E+2
  -1.24541E+2  -1.01095E+2
   9.87940E+1  -9.19507E+1
  -2.17337E+2  -2.48396E+2
   9.89122E+1   1.14998E+2
  -6.78035E+1  -9.13216E+1
   1.10351E+2  -2.89857E+2
   1.07749E+2  -1.05460E+2
  -9.53274E+1   2.37785E+2
  -2.97429E+2   4.37789E+1
  -2.84876E+2   2.17601E+1
   2.19300E+2  -1.70657E+2
   3.22363E+2   3.72157E+2
  -4.61098E+0   2.53354E+2
  -3.51146E+2   3.66197E+1
  -3.29958E+1  -7.94030E+1
   9.42995E+1  -4.94766E+1
   2.20445E+2  -2.41475E+2
   1.07011E+2   2.12587E+2
  -8.55464E+1  -4.08680E+1
   5.50067E+0  -9.05476E+1
   1.18098E+2   1.53889E+2
   2.47815E+1   4.19851E+2
   1.65064E+1   2.45557E+2
  -3.01801E+2   2.74774E+2
  -9.80511E+1  -2.77048E+2
   3.23389E+2  -6.38955E+1
   8.29016E+1   5.63124E+1
  -6.94695E+1   8.26136E+1
   6.36179E+1  -1.13327E+2
  -1.93625E+1  -7.24202E+1
  -1.39958E+2   1.28280E+2
  -1.29393E+2   7.38533E+1
  -7.31005E+1  -3.54542E+1
   1.41914E+2  -2.42292E+2
   1.19444E+2  -2.35421E+1
  -2.79310E+0   3.62640E+2
  -3.13008E+2   3.89708E+2
  -1.66781E+2  -1.41630E+2
   5.57031E+1  -3.73858E+2
  -1.19945E+2  -5.38976E+1
   5.59191E+1   1.91297E+2
   1.75319E+2  -1.61617E+1
  -6.12821E+1   1.93774E+1
   2.63151E+0   2.47992E+2
   1.73367E+2   2.51368E+2
  -2.25045E+2   1.91812E+2
  -3.21014E+2   1.52453E+1
  -2.78235E+1  -3.42594E+2
  -2.52920E+1  -1.95543E+2
   1.72622E+2   1.38526E+2
  -6.56296E+1   1.62318E+2
  -3.27078E+2   7.44331E+1
   8.83494E+1  -3.69259E+1
  -2.68231E+1  -4.51677E+0
   3.10512E+2   6.85139E+1
   4.04516E+1  -6.93480E+1
   9.61121E+1  -6.08077E+1
   2.90957E+2  -3.64585E+1
   1.46895E+2   3.34056E+2
  -1.24342E+2   6.28834E+1
  -3.13316E+2  -2.53520E+2
  -3.63789E+1  -8.90809E+1
  -3.48126E+1  -2.04222E+2
   5.11038E+1   4.02890E+1
  -1.02958E+1  -2.37394E+2
  -1.03209E+2  -5.96831E+1
   1.00865E+2  -3.28617E+1
   2.31747E+2   2.30738E+2
  -2.68659E+2   1.01500E+2
  -2.42991E+2   6.10807E+1
  -2.43129E+2  -3.14355E+2
   1.92840E+1  -3.70433E+2
   2.13173E+2  -3.60816E+1
  -1.99677E+2   2.16079E+2
  -1.92097E+2   1.69119E+2
  -4.90275E+0  -8.57653E+1
  -9.79783E+1  -8.13628E+1
