 
 $NMID
 ID=''
 FMTDAT='(2E13.5)'
 TRAMP=   1.00000E+0
 VOLUME=   1.00000E+0
 $END
   5.11186E+5  -1.35988E+5
   1.44028E+6   1.65428E+5
   1.42932E+6  -5.41082E+3
   1.32570E+6   5.33764E+4
   1.37596E+6   9.61716E+4
   1.37102E+6   3.63818E+4
   1.32679E+6   3.79386E+4
   1.34167E+6   6.06062E+4
   1.32983E+6   4.86311E+4
   1.30571E+6   7.07997E+4
   1.30828E+6   8.64277E+4
   1.28769E+6   8.34001E+4
   1.27079E+6   1.00510E+5
   1.27043E+6   1.13723E+5
   1.24526E+6   1.22105E+5
   1.22703E+6   1.38474E+5
   1.22970E+6   1.43508E+5
   1.21171E+6   1.47625E+5
   1.19372E+6   1.60639E+5
   1.18900E+6   1.57468E+5
   1.17208E+6   1.59180E+5
   1.15892E+6   1.71593E+5
   1.15192E+6   1.74372E+5
   1.13354E+6   1.77055E+5
   1.11707E+6   1.89558E+5
   1.10823E+6   1.89485E+5
   1.09375E+6   1.96381E+5
   1.07803E+6   2.10620E+5
   1.06335E+6   2.15290E+5
   1.04847E+6   2.17086E+5
   1.03708E+6   2.26479E+5
   1.02324E+6   2.28458E+5
   1.00685E+6   2.29806E+5
   9.95411E+5   2.33342E+5
   9.82500E+5   2.31553E+5
   9.68474E+5   2.29134E+5
   9.59111E+5   2.31052E+5
   9.47068E+5   2.32244E+5
   9.30080E+5   2.33908E+5
   9.17308E+5   2.36169E+5
   9.04160E+5   2.37683E+5
   8.88877E+5   2.39720E+5
   8.74591E+5   2.41548E+5
   8.61536E+5   2.43668E+5
   8.47701E+5   2.45711E+5
   8.35096E+5   2.48656E+5
   8.20969E+5   2.52314E+5
   8.05900E+5   2.55392E+5
   7.90810E+5   2.54197E+5
   7.78435E+5   2.54153E+5
   7.66103E+5   2.55596E+5
   7.52997E+5   2.55886E+5
   7.39573E+5   2.55432E+5
   7.27477E+5   2.56666E+5
   7.14781E+5   2.57560E+5
   7.00776E+5   2.57957E+5
   6.86356E+5   2.59593E+5
   6.73303E+5   2.59980E+5
   6.60563E+5   2.59812E+5
   6.47977E+5   2.60625E+5
   6.35301E+5   2.61572E+5
   6.22752E+5   2.61814E+5
   6.10125E+5   2.62642E+5
   5.96814E+5   2.63479E+5
   5.83615E+5   2.62840E+5
   5.70386E+5   2.61408E+5
   5.58278E+5   2.60731E+5
   5.46059E+5   2.60277E+5
   5.34358E+5   2.60149E+5
   5.22619E+5   2.60975E+5
   5.10263E+5   2.61051E+5
   4.97736E+5   2.60104E+5
   4.86792E+5   2.59486E+5
   4.75477E+5   2.60079E+5
   4.63188E+5   2.59899E+5
   4.51660E+5   2.59133E+5
   4.40837E+5   2.58469E+5
   4.29536E+5   2.57806E+5
   4.18595E+5   2.56815E+5
   4.07416E+5   2.55850E+5
   3.96890E+5   2.54567E+5
   3.86348E+5   2.53244E+5
   3.75893E+5   2.52311E+5
   3.65300E+5   2.51784E+5
   3.54443E+5   2.50775E+5
   3.44737E+5   2.49699E+5
   3.35135E+5   2.48416E+5
   3.24953E+5   2.47189E+5
   3.15112E+5   2.46235E+5
   3.06206E+5   2.44416E+5
   2.97362E+5   2.42492E+5
   2.88475E+5   2.40796E+5
   2.79245E+5   2.39153E+5
   2.70586E+5   2.37073E+5
   2.62198E+5   2.33786E+5
   2.53886E+5   2.31460E+5
   2.46243E+5   2.29189E+5
   2.38264E+5   2.26864E+5
   2.30444E+5   2.24245E+5
   2.22894E+5   2.21968E+5
   2.15587E+5   2.19806E+5
   2.07803E+5   2.17480E+5
   2.00019E+5   2.14902E+5
   1.92780E+5   2.11884E+5
   1.85953E+5   2.09134E+5
   1.79663E+5   2.07025E+5
   1.72865E+5   2.04354E+5
   1.65905E+5   2.01753E+5
   1.59203E+5   1.98321E+5
   1.53326E+5   1.95577E+5
   1.47767E+5   1.93103E+5
   1.41687E+5   1.90561E+5
   1.35380E+5   1.87718E+5
   1.29399E+5   1.85007E+5
   1.24101E+5   1.82212E+5
   1.18105E+5   1.79750E+5
   1.12329E+5   1.77380E+5
   1.06975E+5   1.74440E+5
   1.01843E+5   1.71528E+5
   9.67975E+4   1.68941E+5
   9.22948E+4   1.66496E+5
   8.78109E+4   1.64022E+5
   8.32036E+4   1.61543E+5
   7.86835E+4   1.59080E+5
   7.42406E+4   1.56494E+5
   7.00968E+4   1.53759E+5
   6.60781E+4   1.51089E+5
   6.19838E+4   1.49081E+5
   5.80828E+4   1.46333E+5
   5.41025E+4   1.43927E+5
   5.03524E+4   1.42048E+5
   4.65148E+4   1.39350E+5
   4.32618E+4   1.36641E+5
   3.98657E+4   1.34238E+5
   3.68623E+4   1.31861E+5
   3.33927E+4   1.29366E+5
   3.08398E+4   1.26585E+5
   2.83274E+4   1.24209E+5
   2.57183E+4   1.21915E+5
   2.29758E+4   1.19505E+5
   2.04045E+4   1.16622E+5
   1.81568E+4   1.14040E+5
   1.60877E+4   1.11666E+5
   1.40852E+4   1.09337E+5
   1.17910E+4   1.06574E+5
   9.73987E+3   1.04357E+5
   7.80025E+3   1.01718E+5
   5.99467E+3   9.92476E+4
   4.24360E+3   9.69614E+4
   2.82683E+3   9.46866E+4
   1.41093E+3   9.22565E+4
   1.01542E+2   8.96775E+4
  -1.19895E+3   8.76039E+4
  -2.47816E+3   8.54383E+4
  -3.87992E+3   8.28658E+4
  -4.79554E+3   8.06574E+4
  -5.76970E+3   7.83970E+4
  -6.87386E+3   7.63514E+4
  -7.56954E+3   7.42223E+4
  -8.62021E+3   7.21919E+4
  -9.46228E+3   7.01313E+4
  -1.00393E+4   6.79163E+4
  -1.08560E+4   6.58261E+4
  -1.13133E+4   6.38199E+4
  -1.18799E+4   6.16502E+4
  -1.24299E+4   5.98930E+4
  -1.31125E+4   5.83244E+4
  -1.36012E+4   5.64244E+4
  -1.38661E+4   5.47962E+4
  -1.40618E+4   5.31598E+4
  -1.45290E+4   5.15743E+4
  -1.47249E+4   4.97908E+4
  -1.51034E+4   4.80977E+4
  -1.52506E+4   4.67623E+4
  -1.54722E+4   4.50403E+4
  -1.58126E+4   4.35962E+4
  -1.55833E+4   4.20707E+4
  -1.60250E+4   4.06762E+4
  -1.61863E+4   3.94665E+4
  -1.61988E+4   3.79992E+4
  -1.62151E+4   3.67872E+4
  -1.59041E+4   3.54294E+4
  -1.61465E+4   3.43094E+4
  -1.61308E+4   3.27760E+4
  -1.60664E+4   3.15943E+4
  -1.59279E+4   3.05098E+4
  -1.59089E+4   2.96703E+4
  -1.59210E+4   2.82084E+4
  -1.57604E+4   2.71921E+4
  -1.56028E+4   2.63445E+4
  -1.58056E+4   2.52729E+4
  -1.56128E+4   2.43189E+4
  -1.55664E+4   2.33510E+4
  -1.52755E+4   2.25442E+4
  -1.51147E+4   2.15045E+4
  -1.48745E+4   2.06488E+4
  -1.46723E+4   1.97669E+4
  -1.45059E+4   1.90123E+4
  -1.43631E+4   1.81108E+4
  -1.43608E+4   1.77354E+4
  -1.44490E+4   1.66231E+4
  -1.38260E+4   1.60458E+4
  -1.36983E+4   1.53045E+4
  -1.34083E+4   1.48010E+4
  -1.29848E+4   1.41197E+4
  -1.29906E+4   1.34988E+4
  -1.30348E+4   1.30573E+4
  -1.24974E+4   1.26319E+4
  -1.20717E+4   1.20319E+4
  -1.20227E+4   1.15128E+4
  -1.16019E+4   1.09338E+4
  -1.13526E+4   1.08064E+4
  -1.10015E+4   1.02978E+4
  -1.08672E+4   9.59855E+3
  -1.02340E+4   9.32855E+3
  -1.01324E+4   8.88560E+3
  -9.86027E+3   8.43521E+3
  -9.44839E+3   7.92263E+3
  -8.94795E+3   7.77678E+3
  -8.62336E+3   7.62744E+3
  -8.36652E+3   7.28749E+3
  -8.06641E+3   6.69212E+3
  -7.70643E+3   6.32312E+3
  -7.25240E+3   6.20895E+3
  -7.25439E+3   5.79897E+3
  -6.58806E+3   5.66761E+3
  -6.37448E+3   5.29351E+3
  -6.06801E+3   5.27427E+3
  -5.84337E+3   4.71268E+3
  -5.51719E+3   4.75171E+3
  -5.30004E+3   4.36571E+3
  -5.07524E+3   4.09968E+3
  -4.65663E+3   3.96419E+3
  -4.19557E+3   3.85159E+3
  -3.94801E+3   3.33622E+3
  -3.52097E+3   3.07379E+3
  -3.31573E+3   3.09030E+3
  -2.87903E+3   3.42022E+3
  -2.66853E+3   2.76940E+3
  -2.48114E+3   2.46790E+3
  -2.58131E+3   2.49499E+3
  -1.88460E+3   2.46276E+3
  -1.57692E+3   2.25336E+3
  -1.45500E+3   2.10946E+3
  -1.34774E+3   1.81195E+3
  -1.09917E+3   1.86611E+3
  -8.84927E+2   1.52758E+3
  -4.26749E+2   1.68478E+3
  -3.90194E+2   1.44991E+3
  -2.01799E+2   1.41067E+3
   1.88793E+2   1.20714E+3
   1.97071E+2   1.28520E+3
   5.04231E+2   1.28102E+3
   5.38047E+2   1.05571E+3
   9.63685E+2   1.20144E+3
   9.45142E+2   1.02188E+3
   1.29888E+3   7.62364E+2
   1.50152E+3   1.02045E+3
   1.68585E+3   1.00761E+3
   1.90726E+3   8.00480E+2
   1.64898E+3   8.97869E+2
   2.00675E+3   9.17246E+2
   2.32569E+3   1.14084E+3
   2.14677E+3   7.20786E+2
   2.49798E+3   8.79669E+2
   2.71588E+3   9.55915E+2
   2.69052E+3   6.81561E+2
   2.79978E+3   8.27710E+2
   3.01166E+3   9.18483E+2
   3.07276E+3   1.06007E+3
   3.35931E+3   1.10765E+3
   3.42087E+3   1.11152E+3
   3.69634E+3   9.98223E+2
   3.47523E+3   8.00894E+2
   3.49553E+3   1.00659E+3
   3.82663E+3   1.26464E+3
   3.85522E+3   1.32466E+3
   3.96816E+3   1.29346E+3
   4.08280E+3   1.33528E+3
   4.19069E+3   1.28370E+3
   4.53353E+3   1.28085E+3
   4.48055E+3   1.33952E+3
   4.70543E+3   1.53758E+3
   4.73281E+3   1.54105E+3
   4.79933E+3   1.45621E+3
   4.84560E+3   1.49679E+3
   4.76218E+3   1.39343E+3
   4.95246E+3   1.64398E+3
   5.30597E+3   1.71590E+3
   5.37247E+3   1.99070E+3
   5.35388E+3   1.63373E+3
   5.66047E+3   1.89871E+3
   5.57883E+3   1.95694E+3
   5.74112E+3   2.18007E+3
   5.80356E+3   2.23460E+3
   6.02065E+3   2.18324E+3
   6.15826E+3   2.35093E+3
   6.39247E+3   2.57295E+3
   6.43123E+3   2.26951E+3
   6.25211E+3   2.49003E+3
   6.52766E+3   2.61699E+3
   6.82014E+3   2.69979E+3
   6.64159E+3   2.61509E+3
   6.79193E+3   2.52440E+3
   6.98989E+3   2.51984E+3
   6.83120E+3   2.67586E+3
   7.24575E+3   2.73875E+3
   7.46623E+3   2.81738E+3
   7.51621E+3   2.69048E+3
   7.44779E+3   2.93566E+3
   7.66247E+3   3.02540E+3
   7.77957E+3   3.05377E+3
   7.61295E+3   3.23746E+3
   7.86751E+3   3.26365E+3
   8.02527E+3   3.36374E+3
   7.96110E+3   3.16412E+3
   8.23466E+3   3.18870E+3
   7.84543E+3   3.41593E+3
   8.35932E+3   3.48286E+3
   8.22179E+3   3.43401E+3
   8.14732E+3   3.32535E+3
   8.23254E+3   3.39234E+3
   8.22890E+3   3.72799E+3
   8.29507E+3   3.57881E+3
   8.61450E+3   3.55690E+3
   8.90695E+3   3.77296E+3
   8.53357E+3   3.89952E+3
   8.48760E+3   3.73380E+3
   8.96630E+3   3.76689E+3
   8.68546E+3   3.94654E+3
   8.73279E+3   3.93893E+3
   8.81245E+3   3.88156E+3
   8.86259E+3   3.83876E+3
   9.01303E+3   4.29542E+3
   9.13588E+3   4.18309E+3
   9.05060E+3   4.28745E+3
   8.96778E+3   4.17717E+3
   8.91642E+3   4.06107E+3
   8.95611E+3   4.28490E+3
   8.96447E+3   4.21262E+3
   9.09721E+3   4.63369E+3
   9.02423E+3   4.51269E+3
   9.03559E+3   4.37387E+3
   8.77836E+3   4.62343E+3
   8.90208E+3   4.53689E+3
   8.84949E+3   4.76527E+3
   9.32506E+3   5.02296E+3
   8.97868E+3   4.87885E+3
   8.88202E+3   4.87546E+3
   8.76111E+3   4.87429E+3
   8.84572E+3   5.24212E+3
   8.85107E+3   5.40173E+3
   8.84474E+3   5.08273E+3
   8.83167E+3   5.17586E+3
   8.77164E+3   5.27317E+3
   8.58414E+3   5.51805E+3
   8.58541E+3   5.50490E+3
   8.59411E+3   5.29561E+3
   8.71614E+3   5.54662E+3
   8.43071E+3   5.57004E+3
   8.42449E+3   5.70766E+3
   8.53351E+3   5.47733E+3
   8.43417E+3   5.79550E+3
   8.36511E+3   5.76386E+3
   8.29837E+3   5.84179E+3
   8.38089E+3   5.77393E+3
   8.27166E+3   5.78632E+3
