 LCModel (Version 6.3-1N) Copyright: S.W. Provencher.          Ref.: Magn. Reson. Med. 30:672-679 (1993).                
 Slice_N1@13_22  28-Feb-2025 11:40:50
 27 lines in following concentration table = NCONC+1
    Conc.  %SD /Cr+PCr  Metabolite                                         
 2.61E-04   5% 2.4E-04 Mac                                                 
    3.993  50%   3.627 Cr                                                  
    4.813  41%   4.373 PCr                                                 
    6.985  15%   6.345 Ins                                                 
   12.821   7%  11.648 NAA                                                 
    7.209  15%   6.549 Tau                                                 
    1.635  23%   1.486 PCho                                                
    0.000 999%   0.000 GPC                                                 
   11.752  10%  10.676 Glu                                                 
    2.958  30%   2.687 Gln                                                 
    0.000 999%   0.000 Ala                                                 
    2.679  53%   2.434 Asc                                                 
    2.574  48%   2.338 Asp                                                 
    1.181  54%   1.073 GABA                                                
    0.446 193%   0.405 Glc                                                 
    0.543  95%   0.493 GSH                                                 
   12.902   7%  11.721 Lac                                                 
    2.046  38%   1.858 NAAG                                                
    1.050 138%   0.954 PE                                                  
    1.635  23%   1.486 GPC+PCho                                            
   14.867   6%  13.506 NAA+NAAG                                            
   14.710  10%  13.363 Glu+Gln                                             
    8.806   8%   8.000 Cr+PCr                                              
   14.867   6%  13.506 NAA+NAAG                                            
    8.806   8%   8.000 Cr+PCr                                              
   14.710  10%  13.363 Glu+Gln                                             
   6 lines in following misc. output table
  FWHM = 0.033 ppm    S/N =   3                                            
  Data shift = 0.024 ppm                                                   
  Ph: -79 deg       0.0 deg/ppm                                            
  alphaB,S = 2.0E-01,   3.5E+01                                            
   19 spline knots.   Ns = 5(1)                                            
  ( 4) 3 infls.   ( 5) 1 extrs.                                            
  480 points on ppm-axis = NY
      4.100000     4.091866     4.083733     4.075600     4.067466     4.059333     4.051199     4.043066     4.034933     4.026799
      4.018666     4.010532     4.002399     3.994265     3.986132     3.977998     3.969864     3.961731     3.953597     3.945463
      3.937330     3.929196     3.921062     3.912929     3.904795     3.896662     3.888528     3.880394     3.872261     3.864127
      3.855993     3.847860     3.839726     3.831592     3.823459     3.815325     3.807191     3.799058     3.790924     3.782790
      3.774657     3.766523     3.758389     3.750256     3.742122     3.733989     3.725855     3.717721     3.709588     3.701454
      3.693320     3.685187     3.677053     3.668919     3.660786     3.652652     3.644518     3.636385     3.628251     3.620117
      3.611984     3.603850     3.595716     3.587583     3.579449     3.571316     3.563182     3.555048     3.546915     3.538781
      3.530647     3.522514     3.514380     3.506246     3.498113     3.489979     3.481845     3.473712     3.465578     3.457444
      3.449311     3.441177     3.433043     3.424910     3.416776     3.408643     3.400509     3.392375     3.384242     3.376108
      3.367974     3.359841     3.351707     3.343573     3.335440     3.327306     3.319172     3.311039     3.302905     3.294771
      3.286638     3.278504     3.270370     3.262237     3.254103     3.245970     3.237836     3.229702     3.221569     3.213435
      3.205301     3.197168     3.189034     3.180900     3.172767     3.164633     3.156499     3.148366     3.140232     3.132098
      3.123965     3.115831     3.107697     3.099564     3.091430     3.083297     3.075163     3.067029     3.058896     3.050762
      3.042628     3.034495     3.026361     3.018227     3.010094     3.001960     2.993826     2.985693     2.977559     2.969425
      2.961292     2.953158     2.945024     2.936891     2.928757     2.920624     2.912490     2.904356     2.896223     2.888089
      2.879955     2.871822     2.863688     2.855554     2.847421     2.839287     2.831153     2.823020     2.814886     2.806752
      2.798619     2.790485     2.782351     2.774218     2.766084     2.757951     2.749817     2.741683     2.733550     2.725416
      2.717282     2.709149     2.701015     2.692881     2.684748     2.676614     2.668480     2.660347     2.652213     2.644079
      2.635946     2.627812     2.619678     2.611545     2.603411     2.595278     2.587144     2.579010     2.570877     2.562743
      2.554609     2.546476     2.538342     2.530208     2.522075     2.513941     2.505807     2.497674     2.489540     2.481406
      2.473273     2.465139     2.457006     2.448872     2.440738     2.432605     2.424471     2.416337     2.408204     2.400070
      2.391936     2.383803     2.375669     2.367535     2.359402     2.351268     2.343134     2.335001     2.326867     2.318733
      2.310600     2.302466     2.294333     2.286199     2.278065     2.269932     2.261798     2.253664     2.245531     2.237397
      2.229263     2.221130     2.212996     2.204862     2.196729     2.188595     2.180461     2.172328     2.164194     2.156060
      2.147927     2.139793     2.131660     2.123526     2.115392     2.107259     2.099125     2.090991     2.082858     2.074724
      2.066590     2.058457     2.050323     2.042189     2.034056     2.025922     2.017788     2.009655     2.001521     1.993387
      1.985254     1.977120     1.968987     1.960853     1.952719     1.944586     1.936452     1.928318     1.920185     1.912051
      1.903917     1.895784     1.887650     1.879516     1.871383     1.863249     1.855115     1.846982     1.838848     1.830714
      1.822581     1.814447     1.806314     1.798180     1.790046     1.781913     1.773779     1.765645     1.757512     1.749378
      1.741244     1.733111     1.724977     1.716843     1.708710     1.700576     1.692442     1.684309     1.676175     1.668041
      1.659908     1.651774     1.643641     1.635507     1.627373     1.619240     1.611106     1.602972     1.594839     1.586705
      1.578571     1.570438     1.562304     1.554170     1.546037     1.537903     1.529769     1.521636     1.513502     1.505368
      1.497235     1.489101     1.480968     1.472834     1.464700     1.456567     1.448433     1.440299     1.432166     1.424032
      1.415898     1.407765     1.399631     1.391497     1.383364     1.375230     1.367096     1.358963     1.350829     1.342695
      1.334562     1.326428     1.318295     1.310161     1.302027     1.293894     1.285760     1.277626     1.269493     1.261359
      1.253225     1.245092     1.236958     1.228824     1.220691     1.212557     1.204423     1.196290     1.188156     1.180022
      1.171889     1.163755     1.155622     1.147488     1.139354     1.131221     1.123087     1.114953     1.106820     1.098686
      1.090552     1.082419     1.074285     1.066151     1.058018     1.049884     1.041750     1.033617     1.025483     1.017349
      1.009216     1.001082     0.992949     0.984815     0.976681     0.968548     0.960414     0.952280     0.944147     0.936013
      0.927879     0.919746     0.911612     0.903478     0.895345     0.887211     0.879077     0.870944     0.862810     0.854676
      0.846543     0.838409     0.830276     0.822142     0.814008     0.805875     0.797741     0.789607     0.781474     0.773340
      0.765206     0.757073     0.748939     0.740805     0.732672     0.724538     0.716404     0.708271     0.700137     0.692003
      0.683870     0.675736     0.667603     0.659469     0.651335     0.643202     0.635068     0.626934     0.618801     0.610667
      0.602533     0.594400     0.586266     0.578132     0.569999     0.561865     0.553731     0.545598     0.537464     0.529330
      0.521197     0.513063     0.504930     0.496796     0.488662     0.480529     0.472395     0.464261     0.456128     0.447994
      0.439861     0.431727     0.423593     0.415460     0.407326     0.399192     0.391059     0.382925     0.374792     0.366658
      0.358524     0.350391     0.342257     0.334124     0.325990     0.317856     0.309723     0.301589     0.293455     0.285322
      0.277188     0.269055     0.260921     0.252787     0.244654     0.236520     0.228386     0.220253     0.212119     0.203986
 NY phased data points follow
   6.82974E+01  6.55326E+01  5.13852E+01  5.17445E+01  7.31626E+01  7.34698E+01  6.72989E+01  7.70257E+01  8.27307E+01  7.98118E+01
   6.71828E+01  7.51239E+01  7.02100E+01  5.08423E+01  6.94934E+01  5.87592E+01  5.64445E+01  5.65428E+01  3.37165E+01  4.61884E+01
   3.41173E+01  3.31278E+01  6.57973E+01  7.58204E+01  7.60228E+01  9.97824E+01  1.21858E+02  1.06137E+02  1.03155E+02  1.10126E+02
   1.05195E+02  9.95002E+01  9.51770E+01  9.94365E+01  8.93063E+01  9.17309E+01  9.77949E+01  7.97022E+01  6.49148E+01  7.07576E+01
   5.66148E+01  3.19173E+01  5.99249E+01  6.58488E+01  6.02604E+01  8.40682E+01  1.05390E+02  1.26295E+02  1.24808E+02  1.31376E+02
   1.16809E+02  9.86511E+01  1.03129E+02  9.68033E+01  9.86057E+01  9.07835E+01  7.18273E+01  6.61636E+01  7.08718E+01  6.39709E+01
   7.62014E+01  9.40116E+01  9.27228E+01  1.02266E+02  9.61024E+01  1.04405E+02  1.17410E+02  9.02728E+01  8.14016E+01  7.45691E+01
   5.31209E+01  7.70750E+01  7.65257E+01  7.83055E+01  1.20437E+02  1.14571E+02  1.04177E+02  1.13753E+02  1.11265E+02  1.09492E+02
   1.10939E+02  8.81182E+01  7.83884E+01  7.44673E+01  6.87731E+01  6.97105E+01  5.19911E+01  7.76649E+01  8.81356E+01  1.01878E+02
   1.09047E+02  1.07007E+02  1.29870E+02  1.17177E+02  1.32379E+02  1.20787E+02  1.18136E+02  1.33175E+02  1.27901E+02  1.16642E+02
   9.83068E+01  1.20367E+02  8.97727E+01  7.87607E+01  7.59639E+01  5.38912E+01  6.39959E+01  3.46518E+01  2.14874E+01  1.96683E+01
  -1.86834E+01 -4.76298E+01 -2.45848E+01 -5.32789E+00  9.93221E-01  1.93898E+01  3.25646E+01  4.25184E+01  3.87893E+01  4.03708E+01
   5.07185E+01  7.18982E+01  7.74744E+01  7.36359E+01  8.25261E+01  9.34277E+01  1.02724E+02  1.16104E+02  1.20789E+02  1.23143E+02
   1.44200E+02  1.40406E+02  1.01376E+02  1.72940E+01 -3.33276E+01 -2.48918E+01 -2.59462E+01 -2.53750E+01 -2.15313E+01 -1.31961E+01
  -2.74577E+01 -2.67071E+01 -1.98421E+01 -2.62614E+01 -2.05875E+01 -1.18091E+01 -7.38808E+00 -1.19836E+01 -8.20134E+00 -6.92429E-01
   7.87487E+00 -2.06023E+00  2.04420E+01  3.35781E+01  1.07946E+01  1.92517E+01  2.34021E+01  4.06394E+01  3.98914E+01  2.76107E+01
   2.91909E+01  3.28064E+01  3.84155E+01  3.55885E+01  2.53091E+01  2.44607E+01  3.36342E+01  2.55498E+01  3.40215E+01  3.53108E+01
   4.65237E+01  6.36318E+01  6.67134E+01  6.87694E+01  5.90942E+01  6.04078E+01  5.13426E+01  6.21313E+01  5.88889E+01  4.03886E+01
   1.87224E+01  9.00708E+00  2.03900E+01  1.09090E+01  6.04513E+00 -1.29621E+01  2.15269E+00  5.94280E+00  1.12826E+01  2.96441E+01
   7.40584E+00  1.59010E+01  1.57688E+01  2.68705E+01  3.78510E+01  4.57647E+01  3.81081E+01  1.86260E+01  4.23695E+01  3.96648E+01
   4.08868E+01  3.32292E+01  3.66268E+01  6.34177E+01  3.90863E+01  2.86018E+01  2.37227E+01  1.41413E+01  7.74902E+00 -8.55171E+00
   1.41851E+01  1.05504E+01 -5.16177E+00  2.76206E+01  3.75083E+01  4.95712E+01  7.86284E+01  9.50791E+01  9.49412E+01  7.75223E+01
   5.59132E+01  4.52652E+01  4.30840E+01  4.41528E+01  5.12876E+01  4.44749E+01  5.65789E+01  6.02193E+01  5.49295E+01  6.08648E+01
   3.88864E+01  4.29473E+01  4.60454E+01  1.45125E+01 -1.56410E+00  6.93413E+00  3.02468E+00 -1.10293E+01 -2.55180E+01 -3.34448E+01
  -1.46678E+01 -8.26274E+00 -7.66005E+00  2.76411E-01  1.55913E+01  1.88255E+01  8.48931E+00  7.34523E+00 -8.07924E+00 -8.82533E+00
  -1.47132E+01 -3.58712E+01 -3.31829E+01 -2.93189E+01 -2.94020E+01 -1.31176E+01 -6.02830E+00  7.71346E+00  1.11362E+02  2.04545E+02
   1.97791E+02  1.98851E+02  1.85643E+02  1.62218E+02  1.54946E+02  1.31527E+02  1.38963E+02  1.21667E+02  1.24387E+02  1.39054E+02
   1.12271E+02  1.27392E+02  1.20600E+02  1.20269E+02  1.32763E+02  1.27008E+02  1.21856E+02  1.11013E+02  1.17090E+02  1.13304E+02
   1.19308E+02  1.12703E+02  1.14784E+02  1.21344E+02  9.67869E+01  9.57165E+01  9.43359E+01  9.10132E+01  9.26221E+01  8.59176E+01
   8.58615E+01  1.03964E+02  9.59118E+01  8.36557E+01  8.34189E+01  6.58201E+01  7.34817E+01  7.28046E+01  7.25596E+01  7.47632E+01
   7.27948E+01  8.21865E+01  7.44336E+01  8.34362E+01  9.38822E+01  9.52849E+01  8.94685E+01  8.77238E+01  9.65743E+01  9.96328E+01
   1.10375E+02  9.83919E+01  8.94733E+01  9.68436E+01  9.90214E+01  1.11267E+02  1.15803E+02  1.09934E+02  9.74652E+01  1.07127E+02
   1.37567E+02  1.49162E+02  1.55967E+02  1.60119E+02  1.49916E+02  1.40688E+02  1.42189E+02  1.39583E+02  1.30108E+02  1.28020E+02
   1.24913E+02  1.02827E+02  9.96650E+01  1.09872E+02  7.79332E+01  6.56640E+01  6.44363E+01  3.82717E+01  3.48890E+01  3.79487E+01
   3.48922E+01  3.14439E+01  2.23243E+01 -3.49428E-02 -1.68047E+01 -1.94379E+01 -1.77187E+01 -1.58165E+01 -1.27037E+01 -7.08303E+00
  -1.86406E+01 -7.70530E+00  9.76274E-01 -1.14815E+01 -1.24331E+01 -1.58844E+01 -1.22378E+01 -2.50768E+01 -3.17220E+01 -1.82547E+01
  -2.27273E+01 -3.06165E+01 -1.35962E+01 -1.72925E+00 -1.46550E+01  4.56861E+00  1.25804E+01  1.20433E+01  2.48900E+01  2.18543E+01
   4.07867E+01  3.02309E+01  2.95058E+01  5.14503E+01  4.14833E+01  5.69240E+01  5.92681E+01  6.11497E+01  6.16093E+01  4.55165E+01
   5.68069E+01  7.11405E+01  8.22783E+01  7.28680E+01  7.80723E+01  1.04915E+02  1.17521E+02  1.14232E+02  1.07870E+02  1.12621E+02
   1.02883E+02  9.66180E+01  8.60979E+01  7.59070E+01  6.79367E+01  5.76767E+01  4.91058E+01  3.36897E+01  3.55944E+01  3.88126E+01
   3.33948E+01  1.95638E+01  1.92768E+01  1.82412E+01  8.95256E+00  3.59380E+00  8.67617E+00  1.55430E+01 -8.28378E+00 -8.88419E+00
  -4.93051E+00  9.75528E+00  1.55626E+01  1.99496E+00 -1.43634E+00 -1.44359E+01  9.09705E+00  9.13975E+00  5.59010E-01 -5.80007E+00
  -8.40994E+00  1.24393E+01 -1.01635E+00  3.92138E+00  3.78302E+00  3.81233E-02  2.06174E+00 -1.13264E+01 -1.57995E+00 -2.45895E-01
  -1.79883E+01 -4.76123E+00  1.39095E+01 -2.19423E+00 -2.65102E+00  4.04697E+00  1.14860E+01  1.55093E+01  3.73203E+00  7.24557E-01
  -2.11876E-01  1.16380E+01 -2.13818E+00 -1.74616E+01 -6.27593E+00 -6.53247E+00  5.65405E+00 -1.47706E+00 -9.74657E+00  9.15589E+00
   5.19338E+00  1.61132E+00  1.46276E+01  6.43375E+00 -1.15578E+01  5.83786E+00 -7.17883E+00 -1.05529E+01  1.69718E+01  2.98131E+00
   2.28738E+01  5.37238E-01 -9.87980E+00  2.06674E+01 -1.05080E+01 -5.21319E+00  2.93250E+00  2.31992E+00  6.46771E+00  1.50544E+01
   1.86514E+01  1.13851E+01  1.72581E+01  1.59051E+01  2.33329E+01  1.04155E+01  6.23832E+00  4.39843E+00  5.40930E+00  1.36807E-01
 NY points of the fit to the data follow
   6.50882E+01  7.16623E+01  7.55577E+01  7.62404E+01  7.59593E+01  7.77174E+01  8.13360E+01  8.37506E+01  8.19648E+01  7.67883E+01
   7.09103E+01  6.59001E+01  6.19507E+01  5.86365E+01  5.49517E+01  4.89445E+01  4.44630E+01  3.96750E+01  3.48235E+01  3.18006E+01
   3.18185E+01  3.81291E+01  5.21442E+01  7.02074E+01  8.78256E+01  1.01634E+02  1.09223E+02  1.11664E+02  1.12203E+02  1.12472E+02
   1.12333E+02  1.11331E+02  1.09395E+02  1.06595E+02  1.02764E+02  9.68507E+01  8.99337E+01  8.21330E+01  7.39391E+01  6.50476E+01
   5.70228E+01  5.20406E+01  5.18757E+01  5.74478E+01  6.76853E+01  8.06757E+01  9.38912E+01  1.04569E+02  1.11230E+02  1.14010E+02
   1.13440E+02  1.10461E+02  1.06598E+02  1.00729E+02  9.25844E+01  8.48868E+01  7.76321E+01  7.17778E+01  6.92224E+01  6.96053E+01
   7.32813E+01  7.95960E+01  8.62575E+01  9.17926E+01  9.56751E+01  9.82026E+01  9.79183E+01  9.27238E+01  8.35583E+01  7.36869E+01
   6.77464E+01  6.85466E+01  7.41233E+01  8.16752E+01  9.08678E+01  1.00670E+02  1.07678E+02  1.11474E+02  1.10455E+02  1.07150E+02
   1.01166E+02  9.27053E+01  8.27476E+01  7.25544E+01  6.47459E+01  6.23520E+01  6.62190E+01  7.46990E+01  8.50858E+01  9.45951E+01
   1.02078E+02  1.07943E+02  1.12939E+02  1.17362E+02  1.20695E+02  1.24076E+02  1.27527E+02  1.29219E+02  1.28275E+02  1.26210E+02
   1.20853E+02  1.14910E+02  1.06886E+02  9.64323E+01  8.19122E+01  6.15087E+01  4.31368E+01  3.10675E+01  2.16611E+01  7.91677E+00
  -1.11471E+01 -2.60215E+01 -2.67066E+01 -1.51703E+01 -5.99302E-01  1.20225E+01  2.22166E+01  3.06668E+01  3.81992E+01  4.53026E+01
   5.23343E+01  5.96353E+01  6.76120E+01  7.68551E+01  8.79130E+01  1.02003E+02  1.20005E+02  1.28329E+02  1.30521E+02  1.33522E+02
   1.34601E+02  1.23341E+02  9.02156E+01  4.16100E+01  1.41033E+00 -1.63670E+01 -1.90132E+01 -1.72243E+01 -1.50687E+01 -1.36217E+01
  -1.27306E+01 -1.19052E+01 -1.09185E+01 -9.74535E+00 -8.42156E+00 -6.98699E+00 -5.29727E+00 -3.21787E+00 -8.63159E-01  1.67032E+00
   4.39170E+00  7.08089E+00  9.47406E+00  1.14968E+01  1.34901E+01  1.56705E+01  1.79400E+01  1.95752E+01  2.02627E+01  2.08407E+01
   2.19838E+01  2.35164E+01  2.44141E+01  2.40216E+01  2.29661E+01  2.28241E+01  2.51423E+01  2.91657E+01  3.26313E+01  3.49887E+01
   3.89221E+01  4.67501E+01  5.57190E+01  6.02272E+01  5.84002E+01  5.51633E+01  5.48685E+01  5.58086E+01  5.27950E+01  4.41466E+01
   3.33727E+01  2.46803E+01  1.90566E+01  1.54261E+01  1.28830E+01  1.11946E+01  1.03561E+01  9.94221E+00  1.01033E+01  1.25179E+01
   1.50096E+01  1.70313E+01  2.06573E+01  2.55128E+01  3.19874E+01  3.72687E+01  3.97738E+01  4.22787E+01  4.54417E+01  4.74581E+01
   4.70786E+01  4.57100E+01  4.47481E+01  4.36256E+01  4.01932E+01  3.39228E+01  2.61706E+01  1.87822E+01  1.30442E+01  7.96785E+00
   7.61466E+00  1.10137E+01  1.77616E+01  2.94833E+01  4.41161E+01  6.02577E+01  7.59443E+01  8.65345E+01  9.01742E+01  8.79123E+01
   8.13621E+01  7.39390E+01  6.87710E+01  6.62626E+01  6.51290E+01  6.38940E+01  6.12520E+01  5.66810E+01  5.03436E+01  4.21699E+01
   3.27824E+01  2.32290E+01  1.36615E+01  4.81370E+00 -2.59202E+00 -9.04855E+00 -1.38446E+01 -1.64851E+01 -1.77169E+01 -1.66826E+01
  -1.44664E+01 -1.13537E+01 -7.15829E+00 -2.87891E+00  1.35769E+00  4.22836E+00  4.34135E+00  1.40963E+00 -3.95679E+00 -9.47799E+00
  -1.93783E+01 -3.85743E+01 -4.29078E+01 -3.51276E+01 -2.69854E+01 -2.16912E+01 -9.32659E+00  2.91996E+01  9.36762E+01  1.51070E+02
   1.76362E+02  1.77078E+02  1.68990E+02  1.59568E+02  1.51219E+02  1.44365E+02  1.38511E+02  1.33479E+02  1.29165E+02  1.25560E+02
   1.23027E+02  1.21516E+02  1.20964E+02  1.21126E+02  1.21630E+02  1.22074E+02  1.22188E+02  1.21787E+02  1.20912E+02  1.19752E+02
   1.18335E+02  1.16589E+02  1.14620E+02  1.12511E+02  1.10390E+02  1.08231E+02  1.05888E+02  1.03399E+02  1.00790E+02  9.79805E+01
   9.49268E+01  9.17090E+01  8.84898E+01  8.55034E+01  8.28834E+01  8.07848E+01  7.94658E+01  7.91979E+01  7.99276E+01  8.13899E+01
   8.32558E+01  8.53063E+01  8.74532E+01  8.96670E+01  9.19273E+01  9.41527E+01  9.62712E+01  9.82940E+01  1.00263E+02  1.02295E+02
   1.04388E+02  1.06345E+02  1.08015E+02  1.09453E+02  1.10624E+02  1.11496E+02  1.12044E+02  1.12201E+02  1.11823E+02  1.10925E+02
   1.09498E+02  1.07707E+02  1.05588E+02  1.02949E+02  9.96988E+01  9.59945E+01  9.19305E+01  8.74194E+01  8.24402E+01  7.73384E+01
   7.29212E+01  7.00934E+01  6.96781E+01  7.23706E+01  7.88706E+01  8.48933E+01  8.77154E+01  9.01098E+01  8.68067E+01  7.81876E+01
   6.01760E+01  2.99677E+01 -5.75687E+00 -3.58895E+01 -5.20562E+01 -5.06903E+01 -3.71499E+01 -2.17674E+01 -9.98391E+00 -2.05546E+00
   2.88543E+00  5.69658E+00  6.91383E+00  6.90051E+00  6.02314E+00  4.71749E+00  3.49666E+00  2.90445E+00  3.21124E+00  4.45351E+00
   6.47574E+00  9.12598E+00  1.22216E+01  1.55857E+01  1.90633E+01  2.25103E+01  2.58281E+01  2.89775E+01  3.20183E+01  3.50139E+01
   3.79787E+01  4.10195E+01  4.41517E+01  4.73983E+01  5.08747E+01  5.47247E+01  5.89261E+01  6.35363E+01  6.86223E+01  7.42198E+01
   8.02513E+01  8.65727E+01  9.29096E+01  9.90712E+01  1.04657E+02  1.09110E+02  1.11843E+02  1.12505E+02  1.10781E+02  1.06424E+02
   9.97827E+01  9.16809E+01  8.31453E+01  7.48882E+01  6.73041E+01  6.03009E+01  5.35546E+01  4.67582E+01  3.96728E+01  3.23352E+01
   2.51211E+01  1.84169E+01  1.26325E+01  7.97084E+00  4.37748E+00  1.62949E+00 -4.20168E-01 -1.85550E+00 -2.86060E+00 -3.62492E+00
  -4.30773E+00 -4.85449E+00 -5.20403E+00 -5.35074E+00 -5.42105E+00 -5.45454E+00 -5.34619E+00 -5.16667E+00 -5.00738E+00 -4.93959E+00
  -4.86097E+00 -4.64932E+00 -4.35958E+00 -4.15495E+00 -4.02123E+00 -3.80692E+00 -3.55746E+00 -3.33969E+00 -3.15872E+00 -2.93408E+00
  -2.64541E+00 -2.32134E+00 -2.07527E+00 -1.95154E+00 -1.83771E+00 -1.69212E+00 -1.46301E+00 -1.15295E+00 -7.92185E-01 -4.50796E-01
  -1.40475E-01  1.06104E-01  3.32475E-01  5.77933E-01  7.68715E-01  8.83097E-01  9.80190E-01  1.09163E+00  1.29442E+00  1.58751E+00
   1.89032E+00  2.13970E+00  2.36672E+00  2.54431E+00  2.79211E+00  3.12460E+00  3.50477E+00  3.82231E+00  4.10648E+00  4.34856E+00
   4.57813E+00  4.80636E+00  4.99019E+00  5.15714E+00  5.34778E+00  5.58220E+00  5.85480E+00  6.18175E+00  6.58431E+00  7.04576E+00
   7.48498E+00  7.74983E+00  7.84984E+00  7.95335E+00  8.13764E+00  8.39929E+00  8.74648E+00  9.11566E+00  9.50087E+00  9.96812E+00
 NY background values follow
     8.582E+01    8.571E+01    8.560E+01    8.548E+01    8.537E+01    8.526E+01    8.514E+01    8.503E+01    8.491E+01    8.480E+01
     8.468E+01    8.457E+01    8.445E+01    8.433E+01    8.421E+01    8.410E+01    8.398E+01    8.386E+01    8.373E+01    8.361E+01
     8.349E+01    8.337E+01    8.324E+01    8.311E+01    8.299E+01    8.286E+01    8.273E+01    8.260E+01    8.247E+01    8.234E+01
     8.220E+01    8.207E+01    8.193E+01    8.179E+01    8.165E+01    8.151E+01    8.137E+01    8.122E+01    8.108E+01    8.093E+01
     8.078E+01    8.063E+01    8.047E+01    8.032E+01    8.016E+01    8.000E+01    7.984E+01    7.968E+01    7.951E+01    7.934E+01
     7.917E+01    7.900E+01    7.882E+01    7.864E+01    7.846E+01    7.828E+01    7.809E+01    7.790E+01    7.771E+01    7.752E+01
     7.732E+01    7.712E+01    7.692E+01    7.671E+01    7.650E+01    7.629E+01    7.608E+01    7.586E+01    7.564E+01    7.542E+01
     7.520E+01    7.497E+01    7.474E+01    7.451E+01    7.428E+01    7.404E+01    7.380E+01    7.357E+01    7.332E+01    7.308E+01
     7.284E+01    7.259E+01    7.234E+01    7.209E+01    7.184E+01    7.159E+01    7.134E+01    7.108E+01    7.083E+01    7.057E+01
     7.031E+01    7.005E+01    6.979E+01    6.953E+01    6.927E+01    6.900E+01    6.874E+01    6.848E+01    6.821E+01    6.795E+01
     6.769E+01    6.742E+01    6.716E+01    6.690E+01    6.663E+01    6.637E+01    6.611E+01    6.585E+01    6.559E+01    6.534E+01
     6.508E+01    6.482E+01    6.457E+01    6.432E+01    6.407E+01    6.382E+01    6.357E+01    6.333E+01    6.309E+01    6.285E+01
     6.261E+01    6.238E+01    6.215E+01    6.192E+01    6.169E+01    6.147E+01    6.125E+01    6.103E+01    6.081E+01    6.060E+01
     6.039E+01    6.018E+01    5.997E+01    5.977E+01    5.956E+01    5.936E+01    5.917E+01    5.897E+01    5.878E+01    5.859E+01
     5.840E+01    5.822E+01    5.804E+01    5.785E+01    5.768E+01    5.750E+01    5.733E+01    5.715E+01    5.698E+01    5.682E+01
     5.665E+01    5.649E+01    5.633E+01    5.617E+01    5.601E+01    5.586E+01    5.571E+01    5.555E+01    5.541E+01    5.526E+01
     5.512E+01    5.497E+01    5.483E+01    5.469E+01    5.456E+01    5.442E+01    5.429E+01    5.416E+01    5.403E+01    5.390E+01
     5.378E+01    5.365E+01    5.353E+01    5.341E+01    5.329E+01    5.318E+01    5.306E+01    5.295E+01    5.284E+01    5.273E+01
     5.262E+01    5.251E+01    5.241E+01    5.231E+01    5.221E+01    5.211E+01    5.201E+01    5.191E+01    5.182E+01    5.173E+01
     5.164E+01    5.155E+01    5.147E+01    5.138E+01    5.130E+01    5.123E+01    5.115E+01    5.108E+01    5.100E+01    5.094E+01
     5.087E+01    5.081E+01    5.074E+01    5.069E+01    5.063E+01    5.058E+01    5.053E+01    5.048E+01    5.043E+01    5.039E+01
     5.035E+01    5.032E+01    5.028E+01    5.025E+01    5.022E+01    5.020E+01    5.017E+01    5.015E+01    5.013E+01    5.011E+01
     5.009E+01    5.007E+01    5.005E+01    5.003E+01    5.001E+01    5.000E+01    4.998E+01    4.996E+01    4.994E+01    4.992E+01
     4.990E+01    4.988E+01    4.985E+01    4.983E+01    4.980E+01    4.977E+01    4.974E+01    4.971E+01    4.967E+01    4.963E+01
     4.959E+01    4.954E+01    4.949E+01    4.944E+01    4.938E+01    4.932E+01    4.926E+01    4.920E+01    4.913E+01    4.905E+01
     4.898E+01    4.890E+01    4.881E+01    4.873E+01    4.863E+01    4.854E+01    4.844E+01    4.834E+01    4.823E+01    4.812E+01
     4.801E+01    4.789E+01    4.777E+01    4.765E+01    4.752E+01    4.739E+01    4.725E+01    4.711E+01    4.696E+01    4.682E+01
     4.666E+01    4.651E+01    4.634E+01    4.618E+01    4.601E+01    4.584E+01    4.566E+01    4.548E+01    4.529E+01    4.510E+01
     4.491E+01    4.472E+01    4.452E+01    4.431E+01    4.411E+01    4.389E+01    4.368E+01    4.346E+01    4.324E+01    4.302E+01
     4.279E+01    4.256E+01    4.232E+01    4.209E+01    4.184E+01    4.160E+01    4.135E+01    4.110E+01    4.085E+01    4.059E+01
     4.033E+01    4.007E+01    3.980E+01    3.953E+01    3.926E+01    3.899E+01    3.871E+01    3.842E+01    3.814E+01    3.785E+01
     3.755E+01    3.725E+01    3.695E+01    3.664E+01    3.633E+01    3.601E+01    3.569E+01    3.537E+01    3.504E+01    3.470E+01
     3.436E+01    3.402E+01    3.366E+01    3.331E+01    3.295E+01    3.258E+01    3.221E+01    3.183E+01    3.145E+01    3.106E+01
     3.066E+01    3.026E+01    2.985E+01    2.944E+01    2.902E+01    2.860E+01    2.818E+01    2.776E+01    2.733E+01    2.690E+01
     2.647E+01    2.604E+01    2.561E+01    2.517E+01    2.474E+01    2.432E+01    2.389E+01    2.346E+01    2.304E+01    2.262E+01
     2.221E+01    2.180E+01    2.139E+01    2.099E+01    2.060E+01    2.021E+01    1.983E+01    1.946E+01    1.909E+01    1.873E+01
     1.838E+01    1.804E+01    1.771E+01    1.739E+01    1.708E+01    1.678E+01    1.648E+01    1.619E+01    1.591E+01    1.564E+01
     1.538E+01    1.513E+01    1.488E+01    1.464E+01    1.441E+01    1.419E+01    1.398E+01    1.377E+01    1.357E+01    1.338E+01
     1.320E+01    1.302E+01    1.285E+01    1.269E+01    1.253E+01    1.239E+01    1.225E+01    1.211E+01    1.199E+01    1.187E+01
     1.175E+01    1.165E+01    1.155E+01    1.145E+01    1.137E+01    1.128E+01    1.121E+01    1.113E+01    1.107E+01    1.101E+01
     1.095E+01    1.090E+01    1.085E+01    1.080E+01    1.076E+01    1.073E+01    1.069E+01    1.066E+01    1.064E+01    1.061E+01
     1.059E+01    1.057E+01    1.055E+01    1.054E+01    1.052E+01    1.051E+01    1.050E+01    1.049E+01    1.048E+01    1.047E+01
     1.047E+01    1.046E+01    1.045E+01    1.045E+01    1.044E+01    1.043E+01    1.043E+01    1.042E+01    1.042E+01    1.042E+01
     1.041E+01    1.041E+01    1.041E+01    1.040E+01    1.040E+01    1.040E+01    1.040E+01    1.040E+01    1.040E+01    1.040E+01
     1.040E+01    1.040E+01    1.040E+01    1.040E+01    1.040E+01    1.041E+01    1.041E+01    1.041E+01    1.042E+01    1.042E+01
     1.042E+01    1.043E+01    1.043E+01    1.044E+01    1.044E+01    1.045E+01    1.045E+01    1.046E+01    1.047E+01    1.047E+01
     1.048E+01    1.049E+01    1.049E+01    1.050E+01    1.051E+01    1.051E+01    1.052E+01    1.053E+01    1.054E+01    1.054E+01
     1.055E+01    1.056E+01    1.057E+01    1.058E+01    1.058E+01    1.059E+01    1.060E+01    1.061E+01    1.061E+01    1.062E+01
 Mac      Conc. = 2.61E-04
   6.78414E+01  6.72010E+01  6.65241E+01  6.58601E+01  6.51669E+01  6.43903E+01  6.34339E+01  6.22812E+01  6.09403E+01  5.96099E+01
   5.84175E+01  5.73885E+01  5.64911E+01  5.57605E+01  5.54493E+01  5.53243E+01  5.51069E+01  5.50967E+01  5.58937E+01  5.78577E+01
   6.07307E+01  6.37839E+01  6.65705E+01  6.90195E+01  7.10622E+01  7.25889E+01  7.37617E+01  7.49018E+01  7.61703E+01  7.75490E+01
   7.88605E+01  7.99182E+01  8.06847E+01  8.12910E+01  8.18435E+01  8.22719E+01  8.24969E+01  8.27202E+01  8.33298E+01  8.44182E+01
   8.56945E+01  8.66601E+01  8.70857E+01  8.72360E+01  8.74614E+01  8.78775E+01  8.82539E+01  8.83329E+01  8.79814E+01  8.72358E+01
   8.62380E+01  8.50889E+01  8.39343E+01  8.29915E+01  8.23976E+01  8.20226E+01  8.18547E+01  8.20139E+01  8.24912E+01  8.31997E+01
   8.39666E+01  8.45725E+01  8.50616E+01  8.53441E+01  8.52370E+01  8.46385E+01  8.38270E+01  8.31869E+01  8.28599E+01  8.27641E+01
   8.28700E+01  8.32994E+01  8.42382E+01  8.55026E+01  8.66273E+01  8.72937E+01  8.74690E+01  8.72241E+01  8.66407E+01  8.58937E+01
   8.52069E+01  8.46184E+01  8.41968E+01  8.39156E+01  8.38562E+01  8.40191E+01  8.43624E+01  8.47578E+01  8.51516E+01  8.54666E+01
   8.56833E+01  8.56852E+01  8.54787E+01  8.50470E+01  8.43159E+01  8.32246E+01  8.17791E+01  7.99323E+01  7.77149E+01  7.53032E+01
   7.28408E+01  7.03457E+01  6.76444E+01  6.44709E+01  6.08277E+01  5.68819E+01  5.26356E+01  4.81838E+01  4.39378E+01  4.06197E+01
