 LCModel (Version 6.3-1N) Copyright: S.W. Provencher.          Ref.: Magn. Reson. Med. 30:672-679 (1993).                
 Slice_N1@14_15  28-Feb-2025 11:37:56
 27 lines in following concentration table = NCONC+1
    Conc.  %SD /Cr+PCr  Metabolite                                         
 2.56E-04   5% 2.0E-04 Mac                                                 
    3.172  61%   2.441 Cr                                                  
    7.224  26%   5.559 PCr                                                 
    9.112  13%   7.012 Ins                                                 
   10.108  10%   7.779 NAA                                                 
    4.228  27%   3.253 Tau                                                 
    0.000 999%   0.000 PCho                                                
    2.464  16%   1.896 GPC                                                 
    6.345  20%   4.883 Glu                                                 
    3.189  31%   2.454 Gln                                                 
    8.093  12%   6.228 Ala                                                 
    4.878  32%   3.754 Asc                                                 
    4.194  29%   3.228 Asp                                                 
    0.179 375%   0.138 GABA                                                
    1.276  69%   0.982 Glc                                                 
    1.964  30%   1.511 GSH                                                 
    0.000 999%   0.000 Lac                                                 
    1.077  72%   0.828 NAAG                                                
    0.425 346%   0.327 PE                                                  
    2.464  16%   1.896 GPC+PCho                                            
   11.185   8%   8.607 NAA+NAAG                                            
    9.534  16%   7.337 Glu+Gln                                             
   10.396   8%   8.000 Cr+PCr                                              
   11.185   8%   8.607 NAA+NAAG                                            
   10.396   8%   8.000 Cr+PCr                                              
    9.534  16%   7.337 Glu+Gln                                             
   6 lines in following misc. output table
  FWHM = 0.024 ppm    S/N =   3                                            
  Data shift = 0.033 ppm                                                   
  Ph:-145 deg       0.0 deg/ppm                                            
  alphaB,S = 1.3E+01,   6.3E+00                                            
   19 spline knots.   Ns = 5(1)                                            
  ( 4) 2 infls.   ( 1) 1 extrs.                                            
  480 points on ppm-axis = NY
      4.100000     4.091866     4.083733     4.075600     4.067466     4.059333     4.051199     4.043066     4.034933     4.026799
      4.018666     4.010532     4.002399     3.994265     3.986132     3.977998     3.969864     3.961731     3.953597     3.945463
      3.937330     3.929196     3.921062     3.912929     3.904795     3.896662     3.888528     3.880394     3.872261     3.864127
      3.855993     3.847860     3.839726     3.831592     3.823459     3.815325     3.807191     3.799058     3.790924     3.782790
      3.774657     3.766523     3.758389     3.750256     3.742122     3.733989     3.725855     3.717721     3.709588     3.701454
      3.693320     3.685187     3.677053     3.668919     3.660786     3.652652     3.644518     3.636385     3.628251     3.620117
      3.611984     3.603850     3.595716     3.587583     3.579449     3.571316     3.563182     3.555048     3.546915     3.538781
      3.530647     3.522514     3.514380     3.506246     3.498113     3.489979     3.481845     3.473712     3.465578     3.457444
      3.449311     3.441177     3.433043     3.424910     3.416776     3.408643     3.400509     3.392375     3.384242     3.376108
      3.367974     3.359841     3.351707     3.343573     3.335440     3.327306     3.319172     3.311039     3.302905     3.294771
      3.286638     3.278504     3.270370     3.262237     3.254103     3.245970     3.237836     3.229702     3.221569     3.213435
      3.205301     3.197168     3.189034     3.180900     3.172767     3.164633     3.156499     3.148366     3.140232     3.132098
      3.123965     3.115831     3.107697     3.099564     3.091430     3.083297     3.075163     3.067029     3.058896     3.050762
      3.042628     3.034495     3.026361     3.018227     3.010094     3.001960     2.993826     2.985693     2.977559     2.969425
      2.961292     2.953158     2.945024     2.936891     2.928757     2.920624     2.912490     2.904356     2.896223     2.888089
      2.879955     2.871822     2.863688     2.855554     2.847421     2.839287     2.831153     2.823020     2.814886     2.806752
      2.798619     2.790485     2.782351     2.774218     2.766084     2.757951     2.749817     2.741683     2.733550     2.725416
      2.717282     2.709149     2.701015     2.692881     2.684748     2.676614     2.668480     2.660347     2.652213     2.644079
      2.635946     2.627812     2.619678     2.611545     2.603411     2.595278     2.587144     2.579010     2.570877     2.562743
      2.554609     2.546476     2.538342     2.530208     2.522075     2.513941     2.505807     2.497674     2.489540     2.481406
      2.473273     2.465139     2.457006     2.448872     2.440738     2.432605     2.424471     2.416337     2.408204     2.400070
      2.391936     2.383803     2.375669     2.367535     2.359402     2.351268     2.343134     2.335001     2.326867     2.318733
      2.310600     2.302466     2.294333     2.286199     2.278065     2.269932     2.261798     2.253664     2.245531     2.237397
      2.229263     2.221130     2.212996     2.204862     2.196729     2.188595     2.180461     2.172328     2.164194     2.156060
      2.147927     2.139793     2.131660     2.123526     2.115392     2.107259     2.099125     2.090991     2.082858     2.074724
      2.066590     2.058457     2.050323     2.042189     2.034056     2.025922     2.017788     2.009655     2.001521     1.993387
      1.985254     1.977120     1.968987     1.960853     1.952719     1.944586     1.936452     1.928318     1.920185     1.912051
      1.903917     1.895784     1.887650     1.879516     1.871383     1.863249     1.855115     1.846982     1.838848     1.830714
      1.822581     1.814447     1.806314     1.798180     1.790046     1.781913     1.773779     1.765645     1.757512     1.749378
      1.741244     1.733111     1.724977     1.716843     1.708710     1.700576     1.692442     1.684309     1.676175     1.668041
      1.659908     1.651774     1.643641     1.635507     1.627373     1.619240     1.611106     1.602972     1.594839     1.586705
      1.578571     1.570438     1.562304     1.554170     1.546037     1.537903     1.529769     1.521636     1.513502     1.505368
      1.497235     1.489101     1.480968     1.472834     1.464700     1.456567     1.448433     1.440299     1.432166     1.424032
      1.415898     1.407765     1.399631     1.391497     1.383364     1.375230     1.367096     1.358963     1.350829     1.342695
      1.334562     1.326428     1.318295     1.310161     1.302027     1.293894     1.285760     1.277626     1.269493     1.261359
      1.253225     1.245092     1.236958     1.228824     1.220691     1.212557     1.204423     1.196290     1.188156     1.180022
      1.171889     1.163755     1.155622     1.147488     1.139354     1.131221     1.123087     1.114953     1.106820     1.098686
      1.090552     1.082419     1.074285     1.066151     1.058018     1.049884     1.041750     1.033617     1.025483     1.017349
      1.009216     1.001082     0.992949     0.984815     0.976681     0.968548     0.960414     0.952280     0.944147     0.936013
      0.927879     0.919746     0.911612     0.903478     0.895345     0.887211     0.879077     0.870944     0.862810     0.854676
      0.846543     0.838409     0.830276     0.822142     0.814008     0.805875     0.797741     0.789607     0.781474     0.773340
      0.765206     0.757073     0.748939     0.740805     0.732672     0.724538     0.716404     0.708271     0.700137     0.692003
      0.683870     0.675736     0.667603     0.659469     0.651335     0.643202     0.635068     0.626934     0.618801     0.610667
      0.602533     0.594400     0.586266     0.578132     0.569999     0.561865     0.553731     0.545598     0.537464     0.529330
      0.521197     0.513063     0.504930     0.496796     0.488662     0.480529     0.472395     0.464261     0.456128     0.447994
      0.439861     0.431727     0.423593     0.415460     0.407326     0.399192     0.391059     0.382925     0.374792     0.366658
      0.358524     0.350391     0.342257     0.334124     0.325990     0.317856     0.309723     0.301589     0.293455     0.285322
      0.277188     0.269055     0.260921     0.252787     0.244654     0.236520     0.228386     0.220253     0.212119     0.203986
 NY phased data points follow
  -1.19734E+02 -1.22568E+02 -1.23665E+02 -1.27665E+02 -1.13748E+02 -1.12644E+02 -1.15928E+02 -1.09775E+02 -1.06867E+02 -9.67277E+01
  -1.08406E+02 -1.15490E+02 -1.19601E+02 -1.31669E+02 -1.22591E+02 -1.32799E+02 -1.39398E+02 -1.47643E+02 -1.53158E+02 -1.83189E+02
  -1.82765E+02 -1.33748E+02 -1.37663E+02 -1.24095E+02 -1.10814E+02 -7.91974E+01 -6.40491E+01 -7.19938E+01 -6.18165E+01 -7.62183E+01
  -5.43295E+01 -6.12437E+01 -6.96469E+01 -6.71557E+01 -6.94355E+01 -4.97173E+01 -5.49715E+01 -5.83119E+01 -7.66139E+01 -1.00379E+02
  -1.09901E+02 -1.11570E+02 -1.16630E+02 -1.13032E+02 -1.03915E+02 -9.31401E+01 -7.16537E+01 -6.09462E+01 -3.71919E+01 -3.71844E+01
  -4.42138E+01 -3.27971E+01 -4.58107E+01 -5.37105E+01 -5.64950E+01 -7.71032E+01 -8.44732E+01 -8.78640E+01 -9.14197E+01 -8.57662E+01
  -9.84935E+01 -9.25249E+01 -6.75509E+01 -5.89406E+01 -5.46566E+01 -3.92183E+01 -4.51651E+01 -6.72058E+01 -7.69715E+01 -9.12099E+01
  -9.01468E+01 -9.79516E+01 -1.00067E+02 -8.07231E+01 -5.32676E+01 -3.79482E+01 -3.42684E+01 -2.42978E+01 -2.86688E+01 -1.50015E+01
  -2.48118E+01 -3.47183E+01 -4.32022E+01 -6.81602E+01 -5.62630E+01 -5.53835E+01 -5.69592E+01 -5.41149E+01 -3.86004E+01 -3.06598E+01
  -2.61486E+01 -1.61523E+00 -3.64703E+00 -2.41164E+00  6.36355E+00  2.82486E+00 -1.40637E+00  5.57124E+00  1.02060E+01  5.24224E+00
   5.37467E-01 -7.14688E-01 -6.28383E+00 -1.94040E+01 -3.33856E+01 -4.87014E+01 -4.00249E+01 -5.02347E+01 -7.97520E+01 -1.08342E+02
  -1.61188E+02 -1.73530E+02 -1.51640E+02 -1.40229E+02 -1.22276E+02 -1.11533E+02 -9.99535E+01 -8.09035E+01 -8.04380E+01 -7.61285E+01
  -6.02172E+01 -5.02191E+01 -5.34297E+01 -4.50339E+01 -2.40305E+01 -2.82384E+01 -1.74509E+01 -2.13553E+00  1.68489E+01  6.25170E+01
   7.96482E+01  5.01847E+01 -1.82254E+01 -7.26774E+01 -9.84084E+01 -1.29224E+02 -1.38669E+02 -1.24385E+02 -1.03215E+02 -1.02081E+02
  -1.12036E+02 -1.02509E+02 -1.23036E+02 -1.27822E+02 -1.06848E+02 -1.17196E+02 -1.07616E+02 -1.09817E+02 -1.09308E+02 -9.79497E+01
  -1.04287E+02 -8.92181E+01 -9.19825E+01 -9.73543E+01 -9.23681E+01 -8.83170E+01 -7.90349E+01 -7.73525E+01 -7.55674E+01 -8.28657E+01
  -7.47234E+01 -6.90114E+01 -8.37829E+01 -6.85289E+01 -6.58774E+01 -8.70643E+01 -7.81083E+01 -7.74278E+01 -7.32214E+01 -6.99743E+01
  -7.34053E+01 -3.83268E+01 -3.96436E+01 -5.80467E+01 -5.43499E+01 -5.59005E+01 -3.78975E+01 -3.07299E+01 -4.76858E+01 -6.27697E+01
  -5.92327E+01 -6.24468E+01 -8.20241E+01 -8.53553E+01 -8.35595E+01 -8.89898E+01 -8.44458E+01 -7.96170E+01 -8.93021E+01 -7.50372E+01
  -7.26573E+01 -8.89110E+01 -6.54370E+01 -5.52422E+01 -6.22952E+01 -5.45399E+01 -5.69591E+01 -5.98819E+01 -5.15051E+01 -6.04955E+01
  -6.96165E+01 -5.88045E+01 -5.42546E+01 -4.74650E+01 -5.20126E+01 -6.09116E+01 -5.57399E+01 -5.92644E+01 -7.01190E+01 -8.16098E+01
  -8.60372E+01 -8.08303E+01 -7.28947E+01 -6.80551E+01 -4.92898E+01 -3.18995E+01 -2.27025E+01 -8.04168E+00 -1.00224E+01 -2.44313E+01
  -4.56278E+01 -5.24671E+01 -5.78390E+01 -5.60183E+01 -5.73322E+01 -8.45854E+01 -7.29720E+01 -6.45241E+01 -6.41878E+01 -4.95433E+01
  -5.79771E+01 -6.39115E+01 -5.79238E+01 -6.59262E+01 -9.15869E+01 -8.72072E+01 -9.06655E+01 -1.01986E+02 -8.57829E+01 -9.36457E+01
  -9.27553E+01 -8.46161E+01 -8.04298E+01 -6.70858E+01 -6.70805E+01 -5.45585E+01 -5.07851E+01 -5.91214E+01 -4.97269E+01 -4.81870E+01
  -5.30049E+01 -6.74893E+01 -7.69422E+01 -6.95379E+01 -1.01845E+02 -1.46465E+02 -1.26983E+02 -5.63322E+01  2.04880E+01  5.73923E+01
   7.26312E+01  9.78390E+01  7.84096E+01  6.20530E+01  6.71017E+01  5.22837E+01  4.87038E+01  2.63407E+01  2.66154E+01  4.18589E+01
   3.71586E+01  3.46693E+01  1.48367E+01  2.92616E+01  4.14032E+01  3.00297E+01  3.22850E+01  3.55852E+01  4.42243E+01  3.24974E+01
   3.37952E+01  5.15552E+01  3.71208E+01  2.48679E+01  2.26401E+01  1.22399E+01  1.53829E+01  2.44438E+01  2.22830E+01  2.89929E+01
   3.53335E+01  2.40878E+01  3.03879E+01  2.34873E+01  6.34488E+00  2.00035E+01  1.00779E+01  8.94314E+00  1.26710E+01  1.14049E+01
   2.76030E+01  1.28377E+01  5.54686E+00  2.20600E+00 -5.65600E+00  1.02951E+00 -1.86268E+00 -1.96217E+00  6.44181E+00  4.31317E+00
   7.60926E+00  1.32197E+01 -9.26107E-02  9.77895E+00  4.20293E+00 -1.30406E+00  2.02792E+01  1.08140E+01  1.67074E+01  7.04304E+00
  -1.00224E+01 -4.18592E+00 -3.32882E+01 -4.66886E+01 -6.21147E+01 -8.91308E+01 -1.00124E+02 -1.22453E+02 -1.17825E+02 -1.26581E+02
  -1.38829E+02 -1.34065E+02 -1.39585E+02 -1.13396E+02 -1.08261E+02 -9.90971E+01 -6.63350E+01 -4.56756E+01 -1.78851E+01  5.90557E+00
   4.35587E+01  6.60599E+01  6.35862E+01  5.83689E+01  5.12331E+01  4.86360E+01  3.86325E+01  2.05855E+01  3.75026E+00 -1.47142E+01
  -2.21407E+01 -2.67320E+01 -5.17725E+01 -5.04868E+01 -5.15529E+01 -6.78133E+01 -5.58101E+01 -5.60398E+01 -6.64239E+01 -6.05152E+01
  -6.28720E+01 -7.12804E+01 -6.11329E+01 -5.63579E+01 -4.25499E+01 -3.23705E+01 -4.40428E+01 -3.77632E+01 -2.50683E+01 -1.96990E+01
  -1.90607E+01 -2.53250E+01 -2.61813E+01 -4.87709E+00 -6.34635E+00 -3.37764E+00  2.65993E+00 -8.84498E+00  1.85999E+01  1.94476E+01
   2.34910E+01  4.53037E+01  5.63006E+01  6.92685E+01  6.32009E+01  7.90828E+01  8.41479E+01  8.95276E+01  1.03249E+02  9.24940E+01
   8.04069E+01  6.88574E+01  5.98330E+01  3.41184E+01  1.96223E+01  1.72350E+01  1.31040E+01  1.74282E+01  5.31485E+00 -6.58473E+00
  -1.75719E+01 -2.53393E+01 -3.53375E+01 -3.91445E+01 -2.71181E+01 -2.77481E+01 -3.01504E+01 -4.63075E+01 -4.26508E+01 -4.33484E+01
  -6.06799E+01 -3.65443E+01 -3.76861E+01 -4.06365E+01 -2.52397E+01 -3.42301E+01 -3.59062E+01 -3.47445E+01 -4.36191E+01 -3.99610E+01
  -4.22531E+01 -5.01052E+01 -4.14597E+01 -4.49846E+01 -3.60970E+01 -2.96515E+01 -3.60200E+01 -3.52429E+01 -4.14600E+01 -4.54070E+01
  -4.74493E+01 -4.84817E+01 -4.43564E+01 -3.46569E+01 -4.50446E+01 -3.77205E+01 -3.97739E+01 -4.77484E+01 -3.63190E+01 -3.95194E+01
  -2.59257E+01 -4.65772E+01 -4.17814E+01 -2.77328E+01 -4.16777E+01 -3.63337E+01 -3.07413E+01 -2.17431E+01 -3.87610E+01 -2.81964E+01
  -3.81692E+01 -4.67198E+01 -2.47961E+01 -3.60482E+01 -3.61905E+01 -3.36799E+01 -2.95113E+01 -4.47997E+01 -3.43281E+01 -1.91358E+01
  -3.55038E+01 -2.46397E+01 -1.89361E+01 -3.40718E+01 -4.46627E+01 -3.62745E+01 -3.82010E+01 -3.81103E+01 -3.88658E+01 -4.80739E+01
  -3.42129E+01 -2.76287E+01 -3.84656E+01 -4.01315E+01 -2.63444E+01 -1.60826E+01 -2.93875E+01 -3.87492E+01 -3.51230E+01 -4.48708E+01
 NY points of the fit to the data follow
  -1.06038E+02 -1.13055E+02 -1.21774E+02 -1.27208E+02 -1.22907E+02 -1.10699E+02 -9.96428E+01 -9.54594E+01 -9.65997E+01 -9.99215E+01
  -1.04409E+02 -1.08508E+02 -1.11171E+02 -1.12734E+02 -1.13226E+02 -1.13255E+02 -1.16606E+02 -1.25757E+02 -1.44336E+02 -1.62175E+02
  -1.61084E+02 -1.45368E+02 -1.27483E+02 -1.08484E+02 -8.79945E+01 -6.96994E+01 -5.78071E+01 -4.84093E+01 -4.06326E+01 -3.69851E+01
  -3.60466E+01 -3.67193E+01 -3.89272E+01 -4.23083E+01 -4.63582E+01 -5.12506E+01 -5.84354E+01 -7.10954E+01 -8.94708E+01 -1.10034E+02
  -1.23900E+02 -1.25216E+02 -1.18384E+02 -1.09423E+02 -9.83722E+01 -8.46736E+01 -7.05190E+01 -5.89300E+01 -4.96509E+01 -4.31265E+01
  -4.02377E+01 -4.21082E+01 -4.89642E+01 -5.84418E+01 -6.67897E+01 -7.06983E+01 -7.24428E+01 -7.97517E+01 -8.86998E+01 -9.01835E+01
  -8.74165E+01 -8.40086E+01 -7.60971E+01 -6.19200E+01 -4.73908E+01 -3.85834E+01 -3.69467E+01 -4.70060E+01 -6.60405E+01 -8.00008E+01
  -8.48923E+01 -8.65713E+01 -8.48389E+01 -7.57517E+01 -6.18562E+01 -5.01061E+01 -4.16513E+01 -3.46161E+01 -2.93726E+01 -2.74908E+01
  -2.85571E+01 -3.26388E+01 -3.96525E+01 -4.71564E+01 -5.24527E+01 -5.37305E+01 -5.06828E+01 -4.49824E+01 -3.80734E+01 -3.15601E+01
  -2.55859E+01 -2.03423E+01 -1.61042E+01 -1.25180E+01 -9.01632E+00 -5.51398E+00 -1.78671E+00  2.10768E-01 -3.41316E-01 -6.13451E-01
  -1.86318E+00 -8.48491E+00 -1.78331E+01 -2.83883E+01 -3.78845E+01 -4.27435E+01 -3.88729E+01 -4.00802E+01 -7.04383E+01 -1.18840E+02
  -1.51539E+02 -1.58919E+02 -1.52766E+02 -1.43001E+02 -1.28427E+02 -1.12523E+02 -9.98525E+01 -8.96514E+01 -8.07678E+01 -7.24289E+01
  -6.41914E+01 -5.54942E+01 -4.59921E+01 -3.57946E+01 -2.58526E+01 -1.80752E+01 -1.24020E+01 -1.89624E+00  1.82542E+01  5.16339E+01
   7.18498E+01  4.20964E+01 -2.39415E+01 -8.25724E+01 -1.15668E+02 -1.33150E+02 -1.42908E+02 -1.40817E+02 -1.33555E+02 -1.27458E+02
  -1.23835E+02 -1.22058E+02 -1.20774E+02 -1.19629E+02 -1.18454E+02 -1.16772E+02 -1.14334E+02 -1.11535E+02 -1.09097E+02 -1.07040E+02
  -1.04961E+02 -1.02706E+02 -1.00122E+02 -9.68817E+01 -9.27600E+01 -8.87911E+01 -8.67452E+01 -8.66655E+01 -8.64144E+01 -8.37153E+01
  -7.90643E+01 -7.60425E+01 -7.66868E+01 -7.93938E+01 -8.19571E+01 -8.38662E+01 -8.55414E+01 -8.65287E+01 -8.57253E+01 -8.18010E+01
  -7.31642E+01 -6.19847E+01 -5.50411E+01 -5.44174E+01 -5.44789E+01 -5.06586E+01 -4.47303E+01 -4.30019E+01 -4.78408E+01 -5.58617E+01
  -6.39832E+01 -7.12146E+01 -7.71774E+01 -8.11133E+01 -8.28078E+01 -8.34765E+01 -8.37736E+01 -8.35335E+01 -8.32020E+01 -8.29808E+01
  -8.23821E+01 -8.15960E+01 -7.81988E+01 -7.12446E+01 -6.53551E+01 -6.17943E+01 -5.80706E+01 -5.32298E+01 -5.00088E+01 -5.08766E+01
  -5.23942E+01 -5.15139E+01 -4.95779E+01 -4.89247E+01 -5.02219E+01 -5.19224E+01 -5.41380E+01 -5.75997E+01 -6.20106E+01 -6.67908E+01
  -7.16001E+01 -7.44679E+01 -7.40126E+01 -7.07537E+01 -6.27412E+01 -5.17166E+01 -4.10187E+01 -3.18854E+01 -2.62340E+01 -2.43330E+01
  -2.51397E+01 -2.65532E+01 -2.75941E+01 -2.97614E+01 -3.28550E+01 -3.71184E+01 -4.27206E+01 -4.94711E+01 -5.70575E+01 -6.50898E+01
  -7.34481E+01 -8.17122E+01 -8.92334E+01 -9.58497E+01 -1.01126E+02 -1.04326E+02 -1.06012E+02 -1.06056E+02 -1.04366E+02 -1.01939E+02
  -9.79696E+01 -9.26690E+01 -8.66043E+01 -8.01816E+01 -7.46510E+01 -7.02891E+01 -6.72959E+01 -6.60104E+01 -6.55888E+01 -6.66117E+01
  -6.80821E+01 -6.90202E+01 -7.24610E+01 -8.15126E+01 -1.08747E+02 -1.37411E+02 -1.23508E+02 -6.73124E+01 -1.00481E+01  2.39478E+01
   4.21605E+01  5.39968E+01  5.48753E+01  4.98279E+01  4.47490E+01  4.05440E+01  3.70323E+01  3.41472E+01  3.18648E+01  3.00228E+01
   2.85316E+01  2.73066E+01  2.61599E+01  2.50404E+01  2.41025E+01  2.33411E+01  2.25635E+01  2.15811E+01  2.04213E+01  1.92172E+01
   1.80016E+01  1.66023E+01  1.50322E+01  1.33991E+01  1.16882E+01  9.82177E+00  7.61095E+00  5.02220E+00  2.16547E+00 -9.18481E-01
  -4.12031E+00 -7.11121E+00 -9.36738E+00 -1.04778E+01 -1.03893E+01 -9.31628E+00 -7.63311E+00 -5.49639E+00 -2.97255E+00 -2.33285E-01
   2.50186E+00  5.16031E+00  7.72926E+00  1.02066E+01  1.27571E+01  1.55602E+01  1.85013E+01  2.13598E+01  2.40303E+01  2.66050E+01
   2.91846E+01  3.16844E+01  3.39932E+01  3.61413E+01  3.81022E+01  3.97010E+01  4.10588E+01  4.27959E+01  4.59238E+01  4.88185E+01
   5.05829E+01  3.96694E+01  1.20166E+01 -2.37295E+01 -6.07650E+01 -9.03335E+01 -1.04901E+02 -1.06023E+02 -1.00374E+02 -9.50730E+01
  -8.84618E+01 -8.17895E+01 -7.57975E+01 -6.98364E+01 -6.40337E+01 -5.87893E+01 -5.43624E+01 -5.06949E+01 -4.71846E+01 -4.34478E+01
  -3.93650E+01 -3.50811E+01 -3.10514E+01 -2.77030E+01 -2.52144E+01 -2.33911E+01 -2.21811E+01 -2.18256E+01 -2.23635E+01 -2.38790E+01
  -2.64614E+01 -2.97893E+01 -3.31566E+01 -3.59310E+01 -3.78036E+01 -3.85930E+01 -3.82736E+01 -3.69408E+01 -3.48204E+01 -3.20474E+01
  -2.88514E+01 -2.55516E+01 -2.23019E+01 -1.91800E+01 -1.61780E+01 -1.32026E+01 -1.02432E+01 -7.30683E+00 -4.45530E+00 -1.53458E+00
   1.53141E+00  4.84519E+00  8.49658E+00  1.24745E+01  1.68558E+01  2.18390E+01  2.73793E+01  3.32615E+01  3.95024E+01  4.63637E+01
   5.36795E+01  6.10014E+01  6.76293E+01  7.27892E+01  7.53800E+01  7.44903E+01  7.00614E+01  6.30589E+01  5.49348E+01  4.67446E+01
   3.91112E+01  3.24076E+01  2.63582E+01  2.01827E+01  1.33603E+01  5.97332E+00 -1.75709E+00 -9.49116E+00 -1.65187E+01 -2.24536E+01
  -2.73115E+01 -3.12049E+01 -3.40696E+01 -3.60557E+01 -3.75168E+01 -3.87094E+01 -3.97065E+01 -4.05190E+01 -4.10655E+01 -4.13541E+01
  -4.15150E+01 -4.16329E+01 -4.15863E+01 -4.13677E+01 -4.12168E+01 -4.12531E+01 -4.11621E+01 -4.08168E+01 -4.05079E+01 -4.03519E+01
  -4.01741E+01 -3.98855E+01 -3.96498E+01 -3.95315E+01 -3.93766E+01 -3.90487E+01 -3.85782E+01 -3.81382E+01 -3.78515E+01 -3.76730E+01
  -3.75686E+01 -3.74675E+01 -3.72435E+01 -3.69108E+01 -3.65362E+01 -3.61496E+01 -3.57777E+01 -3.54261E+01 -3.50747E+01 -3.47300E+01
  -3.44739E+01 -3.43439E+01 -3.42911E+01 -3.41454E+01 -3.38617E+01 -3.35578E+01 -3.32198E+01 -3.29185E+01 -3.27172E+01 -3.25646E+01
  -3.22953E+01 -3.19346E+01 -3.15633E+01 -3.12248E+01 -3.08894E+01 -3.05869E+01 -3.02560E+01 -2.99208E+01 -2.96890E+01 -2.95773E+01
  -2.94899E+01 -2.94144E+01 -2.93014E+01 -2.90941E+01 -2.86434E+01 -2.80517E+01 -2.75319E+01 -2.72701E+01 -2.72438E+01 -2.72902E+01
  -2.72512E+01 -2.71114E+01 -2.69454E+01 -2.67575E+01 -2.65322E+01 -2.64437E+01 -2.64509E+01 -2.63707E+01 -2.61207E+01 -2.56937E+01
 NY background values follow
    -7.050E+01   -7.039E+01   -7.028E+01   -7.017E+01   -7.006E+01   -6.995E+01   -6.984E+01   -6.973E+01   -6.962E+01   -6.951E+01
    -6.940E+01   -6.929E+01   -6.917E+01   -6.906E+01   -6.895E+01   -6.884E+01   -6.873E+01   -6.862E+01   -6.851E+01   -6.840E+01
    -6.829E+01   -6.818E+01   -6.807E+01   -6.796E+01   -6.785E+01   -6.774E+01   -6.763E+01   -6.752E+01   -6.741E+01   -6.730E+01
    -6.719E+01   -6.708E+01   -6.697E+01   -6.686E+01   -6.675E+01   -6.664E+01   -6.653E+01   -6.641E+01   -6.630E+01   -6.619E+01
    -6.608E+01   -6.597E+01   -6.586E+01   -6.575E+01   -6.564E+01   -6.553E+01   -6.542E+01   -6.531E+01   -6.520E+01   -6.509E+01
    -6.498E+01   -6.487E+01   -6.476E+01   -6.465E+01   -6.454E+01   -6.443E+01   -6.432E+01   -6.421E+01   -6.410E+01   -6.399E+01
    -6.388E+01   -6.377E+01   -6.366E+01   -6.355E+01   -6.344E+01   -6.332E+01   -6.321E+01   -6.310E+01   -6.299E+01   -6.288E+01
    -6.277E+01   -6.266E+01   -6.255E+01   -6.244E+01   -6.233E+01   -6.222E+01   -6.211E+01   -6.200E+01   -6.189E+01   -6.178E+01
    -6.167E+01   -6.156E+01   -6.145E+01   -6.134E+01   -6.123E+01   -6.112E+01   -6.101E+01   -6.090E+01   -6.079E+01   -6.068E+01
    -6.057E+01   -6.046E+01   -6.035E+01   -6.024E+01   -6.013E+01   -6.002E+01   -5.991E+01   -5.979E+01   -5.968E+01   -5.957E+01
    -5.946E+01   -5.935E+01   -5.924E+01   -5.913E+01   -5.902E+01   -5.891E+01   -5.880E+01   -5.869E+01   -5.858E+01   -5.847E+01
    -5.836E+01   -5.825E+01   -5.814E+01   -5.803E+01   -5.792E+01   -5.781E+01   -5.770E+01   -5.759E+01   -5.748E+01   -5.737E+01
    -5.726E+01   -5.715E+01   -5.704E+01   -5.693E+01   -5.682E+01   -5.671E+01   -5.660E+01   -5.649E+01   -5.638E+01   -5.627E+01
    -5.616E+01   -5.605E+01   -5.594E+01   -5.583E+01   -5.572E+01   -5.561E+01   -5.550E+01   -5.539E+01   -5.528E+01   -5.517E+01
    -5.506E+01   -5.495E+01   -5.484E+01   -5.473E+01   -5.462E+01   -5.451E+01   -5.440E+01   -5.429E+01   -5.418E+01   -5.407E+01
    -5.396E+01   -5.385E+01   -5.374E+01   -5.363E+01   -5.352E+01   -5.341E+01   -5.330E+01   -5.319E+01   -5.308E+01   -5.297E+01
    -5.286E+01   -5.275E+01   -5.264E+01   -5.253E+01   -5.242E+01   -5.231E+01   -5.220E+01   -5.209E+01   -5.198E+01   -5.187E+01
    -5.176E+01   -5.165E+01   -5.154E+01   -5.143E+01   -5.132E+01   -5.121E+01   -5.110E+01   -5.099E+01   -5.088E+01   -5.077E+01
    -5.066E+01   -5.055E+01   -5.044E+01   -5.033E+01   -5.022E+01   -5.011E+01   -5.000E+01   -4.989E+01   -4.978E+01   -4.967E+01
    -4.956E+01   -4.945E+01   -4.934E+01   -4.923E+01   -4.912E+01   -4.901E+01   -4.890E+01   -4.879E+01   -4.868E+01   -4.857E+01
    -4.847E+01   -4.836E+01   -4.825E+01   -4.814E+01   -4.803E+01   -4.792E+01   -4.781E+01   -4.770E+01   -4.759E+01   -4.748E+01
    -4.737E+01   -4.726E+01   -4.715E+01   -4.704E+01   -4.693E+01   -4.682E+01   -4.671E+01   -4.660E+01   -4.649E+01   -4.638E+01
    -4.627E+01   -4.616E+01   -4.605E+01   -4.594E+01   -4.583E+01   -4.572E+01   -4.562E+01   -4.551E+01   -4.540E+01   -4.529E+01
    -4.518E+01   -4.507E+01   -4.496E+01   -4.485E+01   -4.474E+01   -4.463E+01   -4.452E+01   -4.441E+01   -4.430E+01   -4.419E+01
    -4.408E+01   -4.397E+01   -4.386E+01   -4.375E+01   -4.365E+01   -4.354E+01   -4.343E+01   -4.332E+01   -4.321E+01   -4.310E+01
    -4.299E+01   -4.288E+01   -4.277E+01   -4.266E+01   -4.255E+01   -4.244E+01   -4.233E+01   -4.222E+01   -4.211E+01   -4.200E+01
    -4.190E+01   -4.179E+01   -4.168E+01   -4.157E+01   -4.146E+01   -4.135E+01   -4.124E+01   -4.113E+01   -4.102E+01   -4.091E+01
    -4.080E+01   -4.069E+01   -4.058E+01   -4.048E+01   -4.037E+01   -4.026E+01   -4.015E+01   -4.004E+01   -3.993E+01   -3.982E+01
    -3.971E+01   -3.960E+01   -3.949E+01   -3.938E+01   -3.927E+01   -3.917E+01   -3.906E+01   -3.895E+01   -3.884E+01   -3.873E+01
    -3.862E+01   -3.851E+01   -3.840E+01   -3.829E+01   -3.818E+01   -3.807E+01   -3.797E+01   -3.786E+01   -3.775E+01   -3.764E+01
    -3.753E+01   -3.742E+01   -3.731E+01   -3.720E+01   -3.709E+01   -3.698E+01   -3.687E+01   -3.677E+01   -3.666E+01   -3.655E+01
    -3.644E+01   -3.633E+01   -3.622E+01   -3.611E+01   -3.600E+01   -3.589E+01   -3.578E+01   -3.568E+01   -3.557E+01   -3.546E+01
    -3.535E+01   -3.524E+01   -3.513E+01   -3.502E+01   -3.491E+01   -3.480E+01   -3.469E+01   -3.459E+01   -3.448E+01   -3.437E+01
    -3.426E+01   -3.415E+01   -3.404E+01   -3.393E+01   -3.382E+01   -3.371E+01   -3.360E+01   -3.350E+01   -3.339E+01   -3.328E+01
    -3.317E+01   -3.306E+01   -3.295E+01   -3.284E+01   -3.273E+01   -3.262E+01   -3.252E+01   -3.241E+01   -3.230E+01   -3.219E+01
    -3.208E+01   -3.197E+01   -3.186E+01   -3.175E+01   -3.164E+01   -3.154E+01   -3.143E+01   -3.132E+01   -3.121E+01   -3.110E+01
    -3.099E+01   -3.088E+01   -3.077E+01   -3.066E+01   -3.056E+01   -3.045E+01   -3.034E+01   -3.023E+01   -3.012E+01   -3.001E+01
    -2.990E+01   -2.979E+01   -2.968E+01   -2.958E+01   -2.947E+01   -2.936E+01   -2.925E+01   -2.914E+01   -2.903E+01   -2.892E+01
    -2.881E+01   -2.871E+01   -2.860E+01   -2.849E+01   -2.838E+01   -2.827E+01   -2.816E+01   -2.805E+01   -2.794E+01   -2.783E+01
    -2.773E+01   -2.762E+01   -2.751E+01   -2.740E+01   -2.729E+01   -2.718E+01   -2.707E+01   -2.696E+01   -2.685E+01   -2.675E+01
    -2.664E+01   -2.653E+01   -2.642E+01   -2.631E+01   -2.620E+01   -2.609E+01   -2.598E+01   -2.588E+01   -2.577E+01   -2.566E+01
    -2.555E+01   -2.544E+01   -2.533E+01   -2.522E+01   -2.511E+01   -2.501E+01   -2.490E+01   -2.479E+01   -2.468E+01   -2.457E+01
    -2.446E+01   -2.435E+01   -2.424E+01   -2.413E+01   -2.403E+01   -2.392E+01   -2.381E+01   -2.370E+01   -2.359E+01   -2.348E+01
    -2.337E+01   -2.326E+01   -2.316E+01   -2.305E+01   -2.294E+01   -2.283E+01   -2.272E+01   -2.261E+01   -2.250E+01   -2.239E+01
    -2.229E+01   -2.218E+01   -2.207E+01   -2.196E+01   -2.185E+01   -2.174E+01   -2.163E+01   -2.152E+01   -2.142E+01   -2.131E+01
    -2.120E+01   -2.109E+01   -2.098E+01   -2.087E+01   -2.076E+01   -2.065E+01   -2.055E+01   -2.044E+01   -2.033E+01   -2.022E+01
    -2.011E+01   -2.000E+01   -1.989E+01   -1.978E+01   -1.968E+01   -1.957E+01   -1.946E+01   -1.935E+01   -1.924E+01   -1.913E+01
    -1.902E+01   -1.891E+01   -1.881E+01   -1.870E+01   -1.859E+01   -1.848E+01   -1.837E+01   -1.826E+01   -1.815E+01   -1.804E+01
 Mac      Conc. = 2.56E-04
  -8.88296E+01 -8.90578E+01 -8.94834E+01 -9.03065E+01 -9.15192E+01 -9.29279E+01 -9.42396E+01 -9.52273E+01 -9.58325E+01 -9.61366E+01
  -9.63769E+01 -9.69687E+01 -9.81508E+01 -9.95348E+01 -9.98126E+01 -9.82156E+01 -9.55101E+01 -9.24503E+01 -8.91056E+01 -8.57262E+01
  -8.29941E+01 -8.11404E+01 -7.96556E+01 -7.82330E+01 -7.67493E+01 -7.50600E+01 -7.32725E+01 -7.16242E+01 -7.01734E+01 -6.88967E+01
  -6.79669E+01 -6.75887E+01 -6.75979E+01 -6.74112E+01 -6.64813E+01 -6.48065E+01 -6.30577E+01 -6.19197E+01 -6.13420E+01 -6.08802E+01
  -6.01589E+01 -5.91377E+01 -5.80661E+01 -5.72189E+01 -5.67880E+01 -5.68130E+01 -5.72980E+01 -5.81287E+01 -5.90491E+01 -5.99258E+01
  -6.06560E+01 -6.12087E+01 -6.15772E+01 -6.16312E+01 -6.11737E+01 -6.03010E+01 -5.93086E+01 -5.81210E+01 -5.67428E+01 -5.55961E+01
  -5.50104E+01 -5.50071E+01 -5.53320E+01 -5.57642E+01 -5.61924E+01 -5.66501E+01 -5.70670E+01 -5.68622E+01 -5.56202E+01 -5.37738E+01
  -5.18914E+01 -5.03204E+01 -4.91723E+01 -4.85431E+01 -4.84990E+01 -4.88268E+01 -4.92444E+01 -4.96412E+01 -5.00025E+01 -5.02858E+01
  -5.02261E+01 -4.98134E+01 -4.92301E+01 -4.85340E+01 -4.77174E+01 -4.69009E+01 -4.61810E+01 -4.55379E+01 -4.49307E+01 -4.44310E+01
  -4.40546E+01 -4.39762E+01 -4.44554E+01 -4.55666E+01 -4.71537E+01 -4.90363E+01 -5.09197E+01 -5.26041E+01 -5.42216E+01 -5.60322E+01
  -5.81725E+01 -6.08704E+01 -6.45741E+01 -6.95162E+01 -7.50345E+01 -7.99138E+01 -8.32494E+01 -8.48541E+01 -8.49279E+01 -8.36854E+01
