 
 $NMID
 ID=''
 FMTDAT='(2E13.5)'
 TRAMP=   1.00000E+0
 VOLUME=   1.00000E+0
 $END
  -4.07968E+5   5.93220E+5
  -1.62020E+6   1.14232E+6
  -1.43255E+6   1.30794E+6
  -1.38783E+6   1.13139E+6
  -1.50756E+6   1.12881E+6
  -1.45146E+6   1.19558E+6
  -1.40021E+6   1.14222E+6
  -1.45205E+6   1.12138E+6
  -1.44073E+6   1.12641E+6
  -1.43448E+6   1.08398E+6
  -1.45343E+6   1.06712E+6
  -1.43790E+6   1.04936E+6
  -1.44363E+6   1.01056E+6
  -1.46082E+6   9.97828E+5
  -1.44498E+6   9.72942E+5
  -1.44713E+6   9.36024E+5
  -1.46314E+6   9.29190E+5
  -1.45373E+6   9.10540E+5
  -1.45476E+6   8.79929E+5
  -1.45917E+6   8.78615E+5
  -1.44968E+6   8.62997E+5
  -1.45095E+6   8.36212E+5
  -1.45532E+6   8.25689E+5
  -1.45064E+6   8.08116E+5
  -1.45285E+6   7.81674E+5
  -1.44923E+6   7.73452E+5
  -1.44625E+6   7.53869E+5
  -1.45196E+6   7.26571E+5
  -1.45056E+6   7.06883E+5
  -1.44230E+6   6.90503E+5
  -1.44604E+6   6.72114E+5
  -1.44268E+6   6.59988E+5
  -1.43552E+6   6.41789E+5
  -1.43457E+6   6.26652E+5
  -1.42689E+6   6.19076E+5
  -1.41858E+6   6.11241E+5
  -1.42011E+6   6.00388E+5
  -1.41712E+6   5.88767E+5
  -1.40647E+6   5.73710E+5
  -1.40424E+6   5.60465E+5
  -1.40042E+6   5.47187E+5
  -1.39161E+6   5.30496E+5
  -1.38542E+6   5.16849E+5
  -1.38205E+6   5.04442E+5
  -1.37616E+6   4.87354E+5
  -1.37177E+6   4.71824E+5
  -1.36791E+6   4.58801E+5
  -1.36213E+6   4.42712E+5
  -1.35372E+6   4.27485E+5
  -1.34643E+6   4.16713E+5
  -1.34071E+6   4.06109E+5
  -1.33571E+6   3.93797E+5
  -1.32967E+6   3.82680E+5
  -1.32317E+6   3.70878E+5
  -1.31702E+6   3.58141E+5
  -1.31141E+6   3.44791E+5
  -1.30414E+6   3.29845E+5
  -1.29546E+6   3.16341E+5
  -1.28800E+6   3.04838E+5
  -1.28217E+6   2.93395E+5
  -1.27575E+6   2.79078E+5
  -1.26877E+6   2.65915E+5
  -1.26269E+6   2.54025E+5
  -1.25560E+6   2.40893E+5
  -1.24676E+6   2.27756E+5
  -1.23740E+6   2.17017E+5
  -1.22891E+6   2.07223E+5
  -1.22142E+6   1.96268E+5
  -1.21517E+6   1.85292E+5
  -1.20857E+6   1.73321E+5
  -1.20011E+6   1.60783E+5
  -1.19242E+6   1.49333E+5
  -1.18526E+6   1.39412E+5
  -1.17846E+6   1.27922E+5
  -1.17027E+6   1.15759E+5
  -1.16204E+6   1.05068E+5
  -1.15405E+6   9.52631E+4
  -1.14660E+6   8.46038E+4
  -1.13876E+6   7.37284E+4
  -1.12984E+6   6.31009E+4
  -1.12098E+6   5.29351E+4
  -1.11257E+6   4.34274E+4
  -1.10477E+6   3.33926E+4
  -1.09641E+6   2.18263E+4
  -1.08721E+6   1.03486E+4
  -1.07865E+6   6.28664E+2
  -1.06998E+6  -9.34878E+3
  -1.06162E+6  -2.02138E+4
  -1.05274E+6  -3.04113E+4
  -1.04362E+6  -3.90888E+4
  -1.03471E+6  -4.72262E+4
  -1.02660E+6  -5.57596E+4
  -1.01812E+6  -6.47280E+4
  -1.00873E+6  -7.31552E+4
  -9.98760E+5  -8.00876E+4
  -9.89946E+5  -8.65520E+4
  -9.82380E+5  -9.32284E+4
  -9.74267E+5  -1.01003E+5
  -9.64997E+5  -1.08298E+5
  -9.56183E+5  -1.14478E+5
  -9.48454E+5  -1.21553E+5
  -9.40105E+5  -1.29873E+5
  -9.30137E+5  -1.37514E+5
  -9.19795E+5  -1.43934E+5
  -9.11327E+5  -1.49393E+5
  -9.03458E+5  -1.55402E+5
  -8.95279E+5  -1.61713E+5
  -8.85674E+5  -1.68729E+5
  -8.76204E+5  -1.74241E+5
  -8.66764E+5  -1.78534E+5
  -8.59195E+5  -1.83323E+5
  -8.51406E+5  -1.89483E+5
  -8.42541E+5  -1.96586E+5
  -8.33208E+5  -2.02476E+5
  -8.24273E+5  -2.08205E+5
  -8.15989E+5  -2.14329E+5
  -8.06675E+5  -2.20840E+5
  -7.96604E+5  -2.26435E+5
  -7.86883E+5  -2.30382E+5
  -7.78566E+5  -2.34373E+5
  -7.70948E+5  -2.39413E+5
  -7.62783E+5  -2.44663E+5
  -7.54278E+5  -2.49298E+5
  -7.45620E+5  -2.54278E+5
  -7.37007E+5  -2.59500E+5
  -7.27641E+5  -2.63940E+5
  -7.18746E+5  -2.67991E+5
  -7.10269E+5  -2.72780E+5
  -7.01813E+5  -2.77409E+5
  -6.93250E+5  -2.82738E+5
  -6.84166E+5  -2.88621E+5
  -6.74500E+5  -2.94171E+5
  -6.65205E+5  -2.98702E+5
  -6.56725E+5  -3.02934E+5
  -6.47811E+5  -3.07675E+5
  -6.38565E+5  -3.12359E+5
  -6.29982E+5  -3.16077E+5
  -6.21776E+5  -3.20043E+5
  -6.13633E+5  -3.23990E+5
  -6.04566E+5  -3.29045E+5
  -5.95035E+5  -3.32577E+5
  -5.86163E+5  -3.35037E+5
  -5.78199E+5  -3.37888E+5
  -5.70527E+5  -3.41629E+5
  -5.61926E+5  -3.45887E+5
  -5.52859E+5  -3.49205E+5
  -5.43552E+5  -3.51673E+5
  -5.34628E+5  -3.54651E+5
  -5.26168E+5  -3.57250E+5
  -5.18066E+5  -3.59733E+5
  -5.09673E+5  -3.61851E+5
  -5.01416E+5  -3.63683E+5
  -4.94197E+5  -3.65567E+5
  -4.86610E+5  -3.67643E+5
  -4.77958E+5  -3.69944E+5
  -4.69816E+5  -3.70774E+5
  -4.62467E+5  -3.71617E+5
  -4.54925E+5  -3.72910E+5
  -4.47228E+5  -3.74405E+5
  -4.39531E+5  -3.75144E+5
  -4.32006E+5  -3.75827E+5
  -4.24541E+5  -3.76538E+5
  -4.16545E+5  -3.77269E+5
  -4.08733E+5  -3.77140E+5
  -4.01101E+5  -3.77248E+5
  -3.94351E+5  -3.77028E+5
  -3.87428E+5  -3.77498E+5
  -3.80239E+5  -3.78354E+5
  -3.72744E+5  -3.78182E+5
  -3.65896E+5  -3.77581E+5
  -3.59061E+5  -3.77244E+5
  -3.52317E+5  -3.76826E+5
  -3.45408E+5  -3.76595E+5
  -3.38551E+5  -3.76027E+5
  -3.31603E+5  -3.75347E+5
  -3.24981E+5  -3.74972E+5
  -3.18215E+5  -3.75002E+5
  -3.10872E+5  -3.74435E+5
  -3.03614E+5  -3.73527E+5
  -2.97323E+5  -3.72314E+5
  -2.91227E+5  -3.71956E+5
  -2.84187E+5  -3.71665E+5
  -2.77362E+5  -3.70939E+5
  -2.70474E+5  -3.69714E+5
  -2.64364E+5  -3.68706E+5
  -2.58183E+5  -3.67521E+5
  -2.51808E+5  -3.66288E+5
  -2.45391E+5  -3.64767E+5
  -2.39756E+5  -3.63395E+5
  -2.34383E+5  -3.62611E+5
  -2.28367E+5  -3.61975E+5
  -2.21370E+5  -3.61123E+5
  -2.14751E+5  -3.59514E+5
  -2.08599E+5  -3.57885E+5
  -2.02612E+5  -3.56394E+5
  -1.96774E+5  -3.55161E+5
  -1.90789E+5  -3.54011E+5
  -1.84611E+5  -3.52406E+5
  -1.78740E+5  -3.50928E+5
  -1.72489E+5  -3.49689E+5
  -1.66279E+5  -3.47952E+5
  -1.60130E+5  -3.45859E+5
  -1.54796E+5  -3.43663E+5
  -1.49474E+5  -3.41786E+5
  -1.43764E+5  -3.40368E+5
  -1.38261E+5  -3.38589E+5
  -1.32238E+5  -3.36277E+5
  -1.26684E+5  -3.34049E+5
  -1.21750E+5  -3.32216E+5
  -1.16292E+5  -3.29815E+5
  -1.10647E+5  -3.27608E+5
  -1.05350E+5  -3.24776E+5
  -1.00657E+5  -3.22896E+5
  -9.58950E+4  -3.21105E+5
  -8.99138E+4  -3.18512E+5
  -8.48967E+4  -3.15752E+5
  -8.03920E+4  -3.12430E+5
  -7.59864E+4  -3.09550E+5
  -7.16250E+4  -3.07088E+5
  -6.69595E+4  -3.04456E+5
  -6.27363E+4  -3.01755E+5
  -5.85984E+4  -2.98591E+5
  -5.43532E+4  -2.95869E+5
  -4.99875E+4  -2.93144E+5
  -4.55459E+4  -2.89858E+5
  -4.20825E+4  -2.86704E+5
  -3.84817E+4  -2.83612E+5
  -3.49840E+4  -2.81170E+5
  -3.10051E+4  -2.78233E+5
  -2.69429E+4  -2.75196E+5
  -2.36064E+4  -2.71490E+5
  -2.02554E+4  -2.68401E+5
  -1.72895E+4  -2.65442E+5
  -1.40880E+4  -2.62626E+5
  -1.08466E+4  -2.59274E+5
  -8.18592E+3  -2.56212E+5
  -5.32454E+3  -2.53237E+5
  -2.53000E+3  -2.50297E+5
   4.68523E+2  -2.47019E+5
   2.97706E+3  -2.43724E+5
   5.35209E+3  -2.40802E+5
   7.68328E+3  -2.37889E+5
   1.05102E+4  -2.34663E+5
   1.30026E+4  -2.31631E+5
   1.53234E+4  -2.28149E+5
   1.74033E+4  -2.25406E+5
   1.94469E+4  -2.22278E+5
   2.18561E+4  -2.19246E+5
   2.39257E+4  -2.15807E+5
   2.56631E+4  -2.12962E+5
   2.73426E+4  -2.10400E+5
   2.94977E+4  -2.07817E+5
   3.17343E+4  -2.04708E+5
   3.33797E+4  -2.01424E+5
   3.48196E+4  -1.98479E+5
   3.66402E+4  -1.95861E+5
   3.85133E+4  -1.92951E+5
   3.99794E+4  -1.89979E+5
   4.20791E+4  -1.87136E+5
   4.35016E+4  -1.84085E+5
   4.52259E+4  -1.81327E+5
   4.68921E+4  -1.78158E+5
   4.84972E+4  -1.74878E+5
   4.97123E+4  -1.71992E+5
   5.09027E+4  -1.69575E+5
   5.23913E+4  -1.67001E+5
   5.40395E+4  -1.64226E+5
   5.51990E+4  -1.61013E+5
   5.65309E+4  -1.58075E+5
   5.73646E+4  -1.55558E+5
   5.84183E+4  -1.52872E+5
   5.95531E+4  -1.50001E+5
   6.06662E+4  -1.47075E+5
   6.15675E+4  -1.44600E+5
   6.27367E+4  -1.41895E+5
   6.39421E+4  -1.39322E+5
   6.46136E+4  -1.36380E+5
   6.54578E+4  -1.33677E+5
   6.61495E+4  -1.31219E+5
   6.67213E+4  -1.28751E+5
   6.78967E+4  -1.25917E+5
   6.87324E+4  -1.23481E+5
   6.90561E+4  -1.21045E+5
   6.97702E+4  -1.18479E+5
   7.00419E+4  -1.16121E+5
   7.07856E+4  -1.13193E+5
   7.10495E+4  -1.10663E+5
   7.10250E+4  -1.08619E+5
   7.15038E+4  -1.06398E+5
   7.19301E+4  -1.04195E+5
   7.24403E+4  -1.01536E+5
   7.25492E+4  -9.89596E+4
   7.27286E+4  -9.68435E+4
   7.27129E+4  -9.49063E+4
   7.31571E+4  -9.24344E+4
   7.31710E+4  -9.02385E+4
   7.32447E+4  -8.81424E+4
   7.30306E+4  -8.59564E+4
   7.33782E+4  -8.37721E+4
   7.32986E+4  -8.17246E+4
   7.30869E+4  -7.94472E+4
   7.29219E+4  -7.76509E+4
   7.30976E+4  -7.59325E+4
   7.30743E+4  -7.37881E+4
   7.27547E+4  -7.14805E+4
   7.22813E+4  -6.95722E+4
   7.21276E+4  -6.78139E+4
   7.18784E+4  -6.59868E+4
   7.17983E+4  -6.40598E+4
   7.13683E+4  -6.19400E+4
   7.10156E+4  -6.02042E+4
   7.04212E+4  -5.86150E+4
   7.02233E+4  -5.69917E+4
   6.99413E+4  -5.51483E+4
   6.95981E+4  -5.33383E+4
   6.90814E+4  -5.16137E+4
   6.86030E+4  -5.00277E+4
   6.81792E+4  -4.85931E+4
   6.76899E+4  -4.71098E+4
   6.70193E+4  -4.52204E+4
   6.64965E+4  -4.38376E+4
   6.62447E+4  -4.23006E+4
   6.55106E+4  -4.05785E+4
   6.50022E+4  -3.90552E+4
   6.43010E+4  -3.77994E+4
   6.36829E+4  -3.63181E+4
   6.35989E+4  -3.48689E+4
   6.27259E+4  -3.33782E+4
   6.21256E+4  -3.17020E+4
   6.13926E+4  -3.06182E+4
   6.08276E+4  -2.92987E+4
   6.02985E+4  -2.78206E+4
   5.95614E+4  -2.67829E+4
   5.90210E+4  -2.54571E+4
   5.84642E+4  -2.43272E+4
   5.79094E+4  -2.28142E+4
   5.74590E+4  -2.15823E+4
   5.65626E+4  -2.01782E+4
   5.56708E+4  -1.92686E+4
   5.49875E+4  -1.82246E+4
   5.44676E+4  -1.71981E+4
   5.39270E+4  -1.59159E+4
   5.32453E+4  -1.45877E+4
   5.22959E+4  -1.36792E+4
   5.16160E+4  -1.24367E+4
   5.11413E+4  -1.16315E+4
   5.02535E+4  -1.07623E+4
   4.95304E+4  -9.67619E+3
   4.88196E+4  -8.97002E+3
   4.81092E+4  -8.01301E+3
   4.76634E+4  -6.84662E+3
   4.66740E+4  -6.04163E+3
   4.58563E+4  -5.09650E+3
   4.51096E+4  -4.40225E+3
   4.45886E+4  -3.60738E+3
   4.39765E+4  -2.85778E+3
   4.31865E+4  -2.08468E+3
   4.26095E+4  -1.16798E+3
   4.18020E+4  -6.95834E+2
   4.11495E+4  -3.81558E+1
   4.05115E+4   9.94879E+2
   3.94012E+4   1.49165E+3
   3.87723E+4   2.00562E+3
   3.81054E+4   2.46460E+3
   3.74407E+4   3.30131E+3
   3.68171E+4   3.94158E+3
   3.59680E+4   4.39145E+3
