 LCModel (Version 6.3-1N) Copyright: S.W. Provencher.          Ref.: Magn. Reson. Med. 30:672-679 (1993).                
 Slice_N1@15_22  28-Feb-2025 11:37:56
 27 lines in following concentration table = NCONC+1
    Conc.  %SD /Cr+PCr  Metabolite                                         
 2.20E-04   6% 2.1E-04 Mac                                                 
    4.405  48%   4.109 Cr                                                  
    4.172  49%   3.891 PCr                                                 
    6.950  15%   6.483 Ins                                                 
   11.275   8%  10.517 NAA                                                 
    4.991  21%   4.655 Tau                                                 
    0.533 271%   0.497 PCho                                                
    1.668  82%   1.556 GPC                                                 
    8.462  14%   7.893 Glu                                                 
    3.542  27%   3.304 Gln                                                 
    6.657  12%   6.209 Ala                                                 
    3.515  43%   3.279 Asc                                                 
    2.593  51%   2.419 Asp                                                 
    0.873  78%   0.814 GABA                                                
    1.212  78%   1.131 Glc                                                 
    1.786  33%   1.666 GSH                                                 
    0.000 999%   0.000 Lac                                                 
    2.222  32%   2.073 NAAG                                                
    0.942 151%   0.879 PE                                                  
    2.201  17%   2.053 GPC+PCho                                            
   13.497   6%  12.590 NAA+NAAG                                            
   12.004  12%  11.197 Glu+Gln                                             
    8.576   9%   8.000 Cr+PCr                                              
   13.497   6%  12.590 NAA+NAAG                                            
    8.576   9%   8.000 Cr+PCr                                              
   12.004  12%  11.197 Glu+Gln                                             
   6 lines in following misc. output table
  FWHM = 0.041 ppm    S/N =   3                                            
  Data shift = 0.016 ppm                                                   
  Ph: -52 deg       0.0 deg/ppm                                            
  alphaB,S = 1.8E-01,   4.2E+01                                            
   19 spline knots.   Ns = 5(1)                                            
  ( 5) 2 infls.   ( 3) 1 extrs.                                            
  480 points on ppm-axis = NY
      4.100000     4.091866     4.083733     4.075600     4.067466     4.059333     4.051199     4.043066     4.034933     4.026799
      4.018666     4.010532     4.002399     3.994265     3.986132     3.977998     3.969864     3.961731     3.953597     3.945463
      3.937330     3.929196     3.921062     3.912929     3.904795     3.896662     3.888528     3.880394     3.872261     3.864127
      3.855993     3.847860     3.839726     3.831592     3.823459     3.815325     3.807191     3.799058     3.790924     3.782790
      3.774657     3.766523     3.758389     3.750256     3.742122     3.733989     3.725855     3.717721     3.709588     3.701454
      3.693320     3.685187     3.677053     3.668919     3.660786     3.652652     3.644518     3.636385     3.628251     3.620117
      3.611984     3.603850     3.595716     3.587583     3.579449     3.571316     3.563182     3.555048     3.546915     3.538781
      3.530647     3.522514     3.514380     3.506246     3.498113     3.489979     3.481845     3.473712     3.465578     3.457444
      3.449311     3.441177     3.433043     3.424910     3.416776     3.408643     3.400509     3.392375     3.384242     3.376108
      3.367974     3.359841     3.351707     3.343573     3.335440     3.327306     3.319172     3.311039     3.302905     3.294771
      3.286638     3.278504     3.270370     3.262237     3.254103     3.245970     3.237836     3.229702     3.221569     3.213435
      3.205301     3.197168     3.189034     3.180900     3.172767     3.164633     3.156499     3.148366     3.140232     3.132098
      3.123965     3.115831     3.107697     3.099564     3.091430     3.083297     3.075163     3.067029     3.058896     3.050762
      3.042628     3.034495     3.026361     3.018227     3.010094     3.001960     2.993826     2.985693     2.977559     2.969425
      2.961292     2.953158     2.945024     2.936891     2.928757     2.920624     2.912490     2.904356     2.896223     2.888089
      2.879955     2.871822     2.863688     2.855554     2.847421     2.839287     2.831153     2.823020     2.814886     2.806752
      2.798619     2.790485     2.782351     2.774218     2.766084     2.757951     2.749817     2.741683     2.733550     2.725416
      2.717282     2.709149     2.701015     2.692881     2.684748     2.676614     2.668480     2.660347     2.652213     2.644079
      2.635946     2.627812     2.619678     2.611545     2.603411     2.595278     2.587144     2.579010     2.570877     2.562743
      2.554609     2.546476     2.538342     2.530208     2.522075     2.513941     2.505807     2.497674     2.489540     2.481406
      2.473273     2.465139     2.457006     2.448872     2.440738     2.432605     2.424471     2.416337     2.408204     2.400070
      2.391936     2.383803     2.375669     2.367535     2.359402     2.351268     2.343134     2.335001     2.326867     2.318733
      2.310600     2.302466     2.294333     2.286199     2.278065     2.269932     2.261798     2.253664     2.245531     2.237397
      2.229263     2.221130     2.212996     2.204862     2.196729     2.188595     2.180461     2.172328     2.164194     2.156060
      2.147927     2.139793     2.131660     2.123526     2.115392     2.107259     2.099125     2.090991     2.082858     2.074724
      2.066590     2.058457     2.050323     2.042189     2.034056     2.025922     2.017788     2.009655     2.001521     1.993387
      1.985254     1.977120     1.968987     1.960853     1.952719     1.944586     1.936452     1.928318     1.920185     1.912051
      1.903917     1.895784     1.887650     1.879516     1.871383     1.863249     1.855115     1.846982     1.838848     1.830714
      1.822581     1.814447     1.806314     1.798180     1.790046     1.781913     1.773779     1.765645     1.757512     1.749378
      1.741244     1.733111     1.724977     1.716843     1.708710     1.700576     1.692442     1.684309     1.676175     1.668041
      1.659908     1.651774     1.643641     1.635507     1.627373     1.619240     1.611106     1.602972     1.594839     1.586705
      1.578571     1.570438     1.562304     1.554170     1.546037     1.537903     1.529769     1.521636     1.513502     1.505368
      1.497235     1.489101     1.480968     1.472834     1.464700     1.456567     1.448433     1.440299     1.432166     1.424032
      1.415898     1.407765     1.399631     1.391497     1.383364     1.375230     1.367096     1.358963     1.350829     1.342695
      1.334562     1.326428     1.318295     1.310161     1.302027     1.293894     1.285760     1.277626     1.269493     1.261359
      1.253225     1.245092     1.236958     1.228824     1.220691     1.212557     1.204423     1.196290     1.188156     1.180022
      1.171889     1.163755     1.155622     1.147488     1.139354     1.131221     1.123087     1.114953     1.106820     1.098686
      1.090552     1.082419     1.074285     1.066151     1.058018     1.049884     1.041750     1.033617     1.025483     1.017349
      1.009216     1.001082     0.992949     0.984815     0.976681     0.968548     0.960414     0.952280     0.944147     0.936013
      0.927879     0.919746     0.911612     0.903478     0.895345     0.887211     0.879077     0.870944     0.862810     0.854676
      0.846543     0.838409     0.830276     0.822142     0.814008     0.805875     0.797741     0.789607     0.781474     0.773340
      0.765206     0.757073     0.748939     0.740805     0.732672     0.724538     0.716404     0.708271     0.700137     0.692003
      0.683870     0.675736     0.667603     0.659469     0.651335     0.643202     0.635068     0.626934     0.618801     0.610667
      0.602533     0.594400     0.586266     0.578132     0.569999     0.561865     0.553731     0.545598     0.537464     0.529330
      0.521197     0.513063     0.504930     0.496796     0.488662     0.480529     0.472395     0.464261     0.456128     0.447994
      0.439861     0.431727     0.423593     0.415460     0.407326     0.399192     0.391059     0.382925     0.374792     0.366658
      0.358524     0.350391     0.342257     0.334124     0.325990     0.317856     0.309723     0.301589     0.293455     0.285322
      0.277188     0.269055     0.260921     0.252787     0.244654     0.236520     0.228386     0.220253     0.212119     0.203986
 NY phased data points follow
  -5.98674E+01 -4.44675E+01 -7.43958E+01 -8.16747E+01 -7.37148E+01 -8.08478E+01 -6.93066E+01 -6.68540E+01 -7.01163E+01 -8.52919E+01
  -9.15335E+01 -8.08209E+01 -7.10466E+01 -6.72113E+01 -8.30226E+01 -9.51817E+01 -8.99827E+01 -9.38052E+01 -9.83079E+01 -9.93270E+01
  -1.12340E+02 -1.15216E+02 -9.80273E+01 -7.59774E+01 -6.15049E+01 -4.16148E+01 -3.44420E+01 -4.57773E+01 -4.31646E+01 -2.98354E+01
  -2.26759E+01 -2.91978E+01 -4.00728E+01 -5.05502E+01 -4.44214E+01 -3.79484E+01 -3.54097E+01 -5.23270E+01 -7.24947E+01 -5.96296E+01
  -7.60279E+01 -8.90780E+01 -7.94911E+01 -6.50821E+01 -6.24861E+01 -5.12205E+01 -2.01612E+01 -1.90399E+01  1.39657E+00 -1.20448E+01
  -1.79716E+01  9.61166E-01 -1.97123E+01 -2.46159E+01 -3.29142E+01 -3.04506E+01 -3.63206E+01 -2.81716E+01 -3.88144E+01 -6.09996E+01
  -4.78754E+01 -4.90750E+01 -1.35371E+01 -1.34091E+01 -9.96987E+00  1.19756E+00 -1.35905E+01 -5.60650E+00 -4.51181E+01 -6.16841E+01
  -6.37150E+01 -5.25620E+01 -2.31419E+01 -2.90178E+01 -2.45004E+01 -2.01443E+01 -1.06811E+01  3.78664E+00  5.23378E+00 -5.35012E+00
  -1.01934E+01 -1.09053E+01 -1.86743E+01 -2.82530E+01 -3.54660E+01 -3.02719E+01 -3.29943E+01 -2.77376E+01 -1.12337E+01 -3.69564E+00
   1.37899E+01  2.65562E+01  2.44457E+01  2.34752E+01  2.22490E+01  2.80307E+01  3.54822E+01  4.70177E+01  4.40967E+01  4.08385E+01
   3.20684E+01  7.21946E+00  2.54590E+01  7.01475E+00 -8.08929E+00 -7.66374E+00 -2.68768E+01 -1.18061E+01 -4.46817E+01 -6.32920E+01
  -9.53847E+01 -1.46046E+02 -1.21139E+02 -1.01651E+02 -9.14831E+01 -7.32300E+01 -6.24266E+01 -5.67483E+01 -3.93248E+01 -3.13408E+01
  -3.78068E+01 -3.32093E+01 -2.23970E+01 -1.11989E+01 -7.55857E+00  3.10518E+00  2.80791E+01  3.96022E+01  4.57126E+01  6.38087E+01
   6.39192E+01  5.67831E+01  2.86221E+01 -2.16761E+01 -8.35264E+01 -1.07944E+02 -8.68510E+01 -8.19923E+01 -6.88572E+01 -7.58577E+01
  -7.16816E+01 -7.16356E+01 -8.40644E+01 -7.25352E+01 -6.58339E+01 -6.99262E+01 -8.99585E+01 -7.98754E+01 -8.25724E+01 -7.77142E+01
  -5.54197E+01 -6.30729E+01 -6.69042E+01 -5.51848E+01 -5.45448E+01 -5.39409E+01 -5.39572E+01 -7.15153E+01 -3.73643E+01 -4.40191E+01
  -5.04334E+01 -3.06183E+01 -4.74765E+01 -3.98866E+01 -4.89714E+01 -4.62564E+01 -5.54126E+01 -5.26883E+01 -3.92988E+01 -3.21801E+01
  -2.38383E+01 -2.76392E+01 -1.16620E+01 -1.20942E+01  2.91301E+00 -7.79739E+00 -2.60756E+01 -1.57426E+01 -1.07178E+01 -2.81196E+01
  -4.74787E+01 -4.73986E+01 -5.87351E+01 -5.45194E+01 -5.81336E+01 -5.18048E+01 -5.17791E+01 -5.07122E+01 -5.02671E+01 -5.99124E+01
  -4.73922E+01 -4.61546E+01 -4.69505E+01 -5.11095E+01 -2.96582E+01 -2.78580E+01 -2.36642E+01 -2.19474E+01 -3.79989E+01 -1.84583E+01
  -1.66355E+01 -7.32087E+00 -2.55076E+01 -3.42957E+01 -6.14479E+00 -1.87047E+01 -3.81961E+01 -3.54928E+01 -4.73136E+01 -6.65452E+01
  -5.22433E+01 -4.35051E+01 -5.32466E+01 -5.72962E+01 -2.80576E+01 -9.46480E+00 -6.11653E+00  1.84321E+01  1.77452E+01  2.62735E-01
  -4.97572E+00 -1.20620E+01 -3.53410E+01 -4.32575E+01 -4.16479E+01 -4.08098E+01 -3.18471E+01 -2.90643E+01 -3.18552E+01 -1.86964E+01
  -2.11101E+01 -4.65573E+01 -3.85273E+01 -4.99099E+01 -6.39748E+01 -5.61301E+01 -7.77093E+01 -8.51422E+01 -6.81788E+01 -7.15922E+01
  -7.15639E+01 -6.90738E+01 -6.88161E+01 -5.52589E+01 -5.75489E+01 -3.69298E+01 -2.84451E+01 -4.73208E+01 -5.35495E+01 -5.50352E+01
  -6.33432E+01 -8.35855E+01 -6.64995E+01 -7.30120E+01 -9.62295E+01 -8.37046E+01 -7.61758E+01 -6.04036E+01  7.77275E+00  9.65043E+01
   1.19295E+02  9.33709E+01  9.18379E+01  9.95755E+01  6.85441E+01  6.15150E+01  5.45252E+01  4.83822E+01  5.83861E+01  3.75246E+01
   4.60515E+01  4.97454E+01  4.80844E+01  4.84182E+01  5.31962E+01  5.97635E+01  5.16332E+01  6.15352E+01  5.20300E+01  5.25131E+01
   5.36722E+01  4.44519E+01  5.55289E+01  7.24101E+01  6.66965E+01  4.23012E+01  4.75225E+01  4.45703E+01  4.83960E+01  6.43267E+01
   5.08036E+01  5.02104E+01  4.71460E+01  3.46318E+01  2.60962E+01  1.79641E+01  2.04457E+01  1.19459E+01  2.09366E+01  2.34123E+01
   2.11457E+01  3.99951E+01  2.94868E+01  3.66290E+01  4.47160E+01  4.36537E+01  5.58944E+01  4.00688E+01  2.75151E+01  2.77453E+01
   1.91222E+01  1.45887E+01  1.52814E-01 -2.12694E+01 -2.20022E+01 -3.59785E+01 -3.97167E+01 -3.19697E+01 -3.20201E+01 -3.66186E+01
  -5.68920E+01 -5.35909E+01 -6.69760E+01 -6.51677E+01 -3.93037E+01 -5.23608E+01 -3.72941E+01 -1.27507E+01 -2.10374E+01 -1.71143E+01
  -2.59955E+01 -2.73522E+01 -1.03332E+01 -3.26576E+01 -3.09171E+01 -2.93590E+01 -4.50373E+01 -4.00897E+01 -4.90523E+01 -4.45883E+01
  -4.33325E+01 -5.00551E+01 -3.92002E+01 -2.83449E+01 -2.38184E+01 -6.61429E+00  3.08539E+00  4.82589E+00  1.00014E+01  3.68499E+00
   1.48887E+01  1.59176E+01  7.74672E+00  4.84825E+00 -5.75693E+00 -1.47322E+01 -2.31515E+01 -1.65700E+01 -2.10455E+01 -3.53951E+01
  -2.75272E+01 -3.16083E+01 -3.48857E+01 -1.83203E+01 -1.44440E+01 -8.18654E+00 -1.11016E+01 -1.52093E+01 -7.97403E+00 -3.99708E+00
  -8.10030E-01  8.20693E+00  1.48510E+01  1.94264E+01  4.89736E+01  3.58018E+01  2.86108E+01  4.66101E+01  4.34843E+01  4.96132E+01
   3.68383E+01  4.88297E+01  5.97460E+01  5.83237E+01  5.99282E+01  6.36501E+01  9.57787E+01  1.11748E+02  1.03262E+02  9.82649E+01
   1.00831E+02  8.86909E+01  7.15455E+01  6.13577E+01  6.85539E+01  5.78002E+01  4.93213E+01  3.81327E+01  2.62290E+01  5.51116E+01
   3.00399E+01  1.28556E+01  8.56792E+00 -5.24688E+00 -5.60528E+00 -1.12878E+01 -1.24182E+00 -1.21179E+01 -1.54837E+01 -2.45545E+01
  -1.85484E+01 -1.62478E+01 -2.99328E+01 -1.60403E+01 -2.05168E+01 -2.79108E+01 -3.15474E+01 -2.04497E+01 -1.42232E+01 -2.54063E+01
  -2.25944E+01 -1.29521E+01 -1.40727E+01 -2.33985E+01 -2.66831E+01 -1.92917E+01 -2.50372E+01 -3.40222E+01 -1.92930E+01 -1.96659E+01
  -1.24078E+01 -2.60209E+01 -3.28692E+01 -1.29854E+01 -2.51787E+01 -9.66432E+00 -5.97378E+00 -1.85154E+01 -2.23063E+01 -2.26201E+01
  -1.94712E+01 -2.92869E+01 -1.67261E+01 -2.52009E+01 -3.21096E+01 -1.00791E+01 -1.96614E+01 -2.73168E+01 -2.56383E+01 -2.75128E+01
  -2.26554E+01 -2.88418E+01 -2.54221E+01 -2.04277E+01 -2.46143E+01 -2.84508E+01 -2.12532E+01 -1.83570E+01 -1.91997E+01 -8.81625E+00
  -2.71005E+01 -1.69631E+01 -1.87384E+01 -3.24490E+01 -5.25199E+00 -1.83778E+01 -2.18567E+01 -2.36213E+01 -3.37166E+01 -1.68274E+01
  -1.64418E+01 -2.05107E+01 -1.20117E+01 -1.61328E+01 -1.21742E+01 -1.13764E+01 -2.50344E+01 -1.11662E+01 -1.72425E+01 -1.00007E+01
 NY points of the fit to the data follow
  -7.32568E+01 -7.71172E+01 -8.07466E+01 -8.27599E+01 -8.17068E+01 -7.71717E+01 -7.08006E+01 -6.58645E+01 -6.50199E+01 -6.80487E+01
  -7.23591E+01 -7.57495E+01 -7.76562E+01 -7.86273E+01 -7.97952E+01 -8.24850E+01 -8.71103E+01 -9.33206E+01 -1.01087E+02 -1.08084E+02
  -1.11824E+02 -1.09111E+02 -9.76849E+01 -7.92240E+01 -5.85669E+01 -4.06128E+01 -2.84710E+01 -2.22431E+01 -1.98117E+01 -1.93845E+01
  -2.09239E+01 -2.42934E+01 -2.92394E+01 -3.50233E+01 -4.10587E+01 -4.71613E+01 -5.31844E+01 -5.89642E+01 -6.55247E+01 -7.28735E+01
  -7.93317E+01 -8.19487E+01 -7.84514E+01 -6.89485E+01 -5.61955E+01 -4.28970E+01 -3.05380E+01 -2.02412E+01 -1.31881E+01 -9.77130E+00
  -9.68888E+00 -1.25495E+01 -1.75075E+01 -2.40706E+01 -3.17004E+01 -3.81844E+01 -4.26066E+01 -4.55787E+01 -4.71808E+01 -4.75118E+01
  -4.54389E+01 -3.97106E+01 -3.14756E+01 -2.27612E+01 -1.51600E+01 -1.02274E+01 -9.93889E+00 -1.55572E+01 -2.55590E+01 -3.62880E+01
  -4.35025E+01 -4.41925E+01 -3.89137E+01 -3.05514E+01 -2.10416E+01 -1.13620E+01 -3.29728E+00  1.76847E+00  3.27894E+00  1.93375E+00
  -2.23788E+00 -8.89264E+00 -1.67936E+01 -2.40166E+01 -2.84221E+01 -2.84502E+01 -2.41601E+01 -1.69930E+01 -8.93405E+00 -1.52646E+00
   4.63331E+00  9.80002E+00  1.44289E+01  1.87715E+01  2.26760E+01  2.62180E+01  2.93803E+01  3.14984E+01  3.22677E+01  3.18853E+01
   2.94620E+01  2.51684E+01  1.84979E+01  9.96421E+00  9.85641E-01 -8.94781E+00 -1.86852E+01 -3.02497E+01 -4.78098E+01 -7.30669E+01
  -1.01257E+02 -1.20999E+02 -1.22873E+02 -1.09593E+02 -9.18269E+01 -7.68158E+01 -6.53221E+01 -5.60268E+01 -4.79717E+01 -4.06005E+01
  -3.35291E+01 -2.63889E+01 -1.88036E+01 -1.04326E+01 -1.01311E+00  9.92813E+00  2.34831E+01  3.78433E+01  5.04780E+01  5.98735E+01
   6.07783E+01  4.65498E+01  1.44213E+01 -2.93599E+01 -6.88530E+01 -9.04013E+01 -9.44737E+01 -9.07730E+01 -8.64534E+01 -8.33009E+01
  -8.13207E+01 -8.02483E+01 -7.97586E+01 -7.94531E+01 -7.90027E+01 -7.81478E+01 -7.67448E+01 -7.47871E+01 -7.24340E+01 -6.99463E+01
  -6.75068E+01 -6.51331E+01 -6.27777E+01 -6.04024E+01 -5.80113E+01 -5.57184E+01 -5.37080E+01 -5.21623E+01 -5.09623E+01 -4.97154E+01
  -4.82768E+01 -4.69967E+01 -4.64459E+01 -4.67795E+01 -4.73780E+01 -4.73959E+01 -4.64598E+01 -4.45703E+01 -4.19135E+01 -3.80713E+01
  -3.23183E+01 -2.52218E+01 -1.87225E+01 -1.51248E+01 -1.50448E+01 -1.60216E+01 -1.57600E+01 -1.51398E+01 -1.72130E+01 -2.37559E+01
  -3.31465E+01 -4.19060E+01 -4.80343E+01 -5.17560E+01 -5.39224E+01 -5.50272E+01 -5.51942E+01 -5.46977E+01 -5.36365E+01 -5.17037E+01
  -4.89652E+01 -4.57384E+01 -4.18061E+01 -3.70141E+01 -3.17232E+01 -2.68134E+01 -2.33747E+01 -2.11773E+01 -1.91518E+01 -1.72148E+01
  -1.60636E+01 -1.56351E+01 -1.53488E+01 -1.54630E+01 -1.72146E+01 -2.13868E+01 -2.73828E+01 -3.40376E+01 -4.03680E+01 -4.59410E+01
  -4.96717E+01 -5.01717E+01 -4.71852E+01 -3.97570E+01 -2.85195E+01 -1.54005E+01 -2.94179E+00  5.84521E+00  9.21438E+00  7.75040E+00
   3.38079E+00 -1.48421E+00 -4.98435E+00 -6.70781E+00 -7.68052E+00 -9.31503E+00 -1.25399E+01 -1.76872E+01 -2.45504E+01 -3.27900E+01
  -4.17358E+01 -5.06816E+01 -5.91935E+01 -6.67409E+01 -7.28632E+01 -7.74616E+01 -8.03069E+01 -8.10614E+01 -8.00384E+01 -7.71183E+01
  -7.26876E+01 -6.72911E+01 -6.13322E+01 -5.55271E+01 -5.08553E+01 -4.80070E+01 -4.78108E+01 -5.05050E+01 -5.55777E+01 -6.19386E+01
  -6.92495E+01 -7.79797E+01 -8.59172E+01 -9.01132E+01 -9.16724E+01 -8.85906E+01 -7.42452E+01 -4.12617E+01  8.91127E+00  5.92307E+01
   8.95111E+01  9.60202E+01  8.98030E+01  8.12877E+01  7.38629E+01  6.76369E+01  6.21722E+01  5.72831E+01  5.30613E+01  4.96897E+01
   4.73718E+01  4.60768E+01  4.56268E+01  4.57315E+01  4.60643E+01  4.63363E+01  4.63633E+01  4.60501E+01  4.53963E+01  4.44205E+01
   4.31283E+01  4.15712E+01  3.98463E+01  3.80513E+01  3.62286E+01  3.43399E+01  3.23473E+01  3.02392E+01  2.79635E+01  2.54784E+01
   2.27928E+01  1.99976E+01  1.72653E+01  1.48192E+01  1.29050E+01  1.17598E+01  1.15319E+01  1.21740E+01  1.34883E+01  1.52415E+01
   1.72511E+01  1.94121E+01  2.16633E+01  2.39469E+01  2.62100E+01  2.84388E+01  3.06971E+01  3.30599E+01  3.55959E+01  3.83202E+01
   4.11789E+01  4.41464E+01  4.73060E+01  5.06131E+01  5.27560E+01  5.32349E+01  5.00684E+01  4.07293E+01  2.45901E+01  2.85117E+00
  -1.99386E+01 -3.73760E+01 -4.57526E+01 -4.52495E+01 -3.89080E+01 -3.15414E+01 -2.71295E+01 -2.66037E+01 -2.87457E+01 -3.21291E+01
  -3.56736E+01 -3.86169E+01 -4.04845E+01 -4.09800E+01 -4.00262E+01 -3.78184E+01 -3.47934E+01 -3.14856E+01 -2.83409E+01 -2.55276E+01
  -2.29273E+01 -2.03131E+01 -1.75048E+01 -1.45018E+01 -1.15167E+01 -8.86687E+00 -6.82040E+00 -5.50127E+00 -4.89316E+00 -4.92623E+00
  -5.59719E+00 -6.92474E+00 -8.87723E+00 -1.12667E+01 -1.37643E+01 -1.59668E+01 -1.74632E+01 -1.80073E+01 -1.75845E+01 -1.63066E+01
  -1.43467E+01 -1.18884E+01 -9.11283E+00 -6.18976E+00 -3.24490E+00 -3.66892E-01  2.39700E+00  5.06331E+00  7.67422E+00  1.02784E+01
   1.29228E+01  1.56389E+01  1.84399E+01  2.14079E+01  2.46508E+01  2.82340E+01  3.21981E+01  3.65530E+01  4.12918E+01  4.64026E+01
   5.18447E+01  5.74958E+01  6.31875E+01  6.86547E+01  7.34113E+01  7.68266E+01  7.82928E+01  7.73741E+01  7.39432E+01  6.83727E+01
   6.14729E+01  5.42067E+01  4.73046E+01  4.10676E+01  3.53696E+01  2.98508E+01  2.41678E+01  1.81098E+01  1.17542E+01  5.42934E+00
  -4.53380E-01 -5.55837E+00 -9.69823E+00 -1.28745E+01 -1.52301E+01 -1.69407E+01 -1.81609E+01 -1.90551E+01 -1.97661E+01 -2.03784E+01
  -2.08816E+01 -2.12312E+01 -2.14069E+01 -2.14523E+01 -2.14303E+01 -2.13690E+01 -2.12942E+01 -2.12254E+01 -2.11679E+01 -2.10924E+01
  -2.09544E+01 -2.07741E+01 -2.06296E+01 -2.05468E+01 -2.04705E+01 -2.03763E+01 -2.02763E+01 -2.01725E+01 -2.00363E+01 -1.98554E+01
  -1.96844E+01 -1.95844E+01 -1.95708E+01 -1.95813E+01 -1.95595E+01 -1.94699E+01 -1.93125E+01 -1.91105E+01 -1.89022E+01 -1.87217E+01
  -1.85853E+01 -1.84994E+01 -1.84608E+01 -1.84683E+01 -1.85148E+01 -1.85549E+01 -1.85424E+01 -1.84620E+01 -1.83400E+01 -1.82288E+01
  -1.81514E+01 -1.80920E+01 -1.80261E+01 -1.79184E+01 -1.77573E+01 -1.75754E+01 -1.74094E+01 -1.72685E+01 -1.71539E+01 -1.70576E+01
  -1.69810E+01 -1.69380E+01 -1.69207E+01 -1.69081E+01 -1.68521E+01 -1.67208E+01 -1.65032E+01 -1.62304E+01 -1.59487E+01 -1.57228E+01
  -1.56088E+01 -1.55958E+01 -1.56004E+01 -1.55538E+01 -1.54322E+01 -1.52513E+01 -1.50411E+01 -1.48219E+01 -1.45669E+01 -1.42635E+01
 NY background values follow
    -4.606E+01   -4.584E+01   -4.562E+01   -4.541E+01   -4.519E+01   -4.497E+01   -4.475E+01   -4.453E+01   -4.432E+01   -4.410E+01
    -4.388E+01   -4.366E+01   -4.344E+01   -4.322E+01   -4.300E+01   -4.278E+01   -4.255E+01   -4.233E+01   -4.211E+01   -4.189E+01
    -4.166E+01   -4.144E+01   -4.121E+01   -4.099E+01   -4.076E+01   -4.054E+01   -4.031E+01   -4.008E+01   -3.986E+01   -3.963E+01
    -3.940E+01   -3.917E+01   -3.894E+01   -3.871E+01   -3.848E+01   -3.825E+01   -3.801E+01   -3.778E+01   -3.755E+01   -3.732E+01
    -3.708E+01   -3.685E+01   -3.662E+01   -3.638E+01   -3.615E+01   -3.592E+01   -3.568E+01   -3.545E+01   -3.522E+01   -3.498E+01
    -3.475E+01   -3.452E+01   -3.428E+01   -3.405E+01   -3.382E+01   -3.359E+01   -3.336E+01   -3.312E+01   -3.289E+01   -3.266E+01
    -3.243E+01   -3.220E+01   -3.198E+01   -3.175E+01   -3.152E+01   -3.130E+01   -3.107E+01   -3.085E+01   -3.062E+01   -3.040E+01
    -3.018E+01   -2.995E+01   -2.973E+01   -2.951E+01   -2.930E+01   -2.908E+01   -2.886E+01   -2.865E+01   -2.843E+01   -2.822E+01
    -2.801E+01   -2.780E+01   -2.759E+01   -2.738E+01   -2.718E+01   -2.697E+01   -2.677E+01   -2.656E+01   -2.636E+01   -2.616E+01
    -2.597E+01   -2.577E+01   -2.558E+01   -2.538E+01   -2.519E+01   -2.500E+01   -2.482E+01   -2.463E+01   -2.445E+01   -2.426E+01
    -2.408E+01   -2.391E+01   -2.373E+01   -2.355E+01   -2.338E+01   -2.321E+01   -2.305E+01   -2.288E+01   -2.272E+01   -2.256E+01
    -2.240E+01   -2.224E+01   -2.209E+01   -2.194E+01   -2.179E+01   -2.164E+01   -2.150E+01   -2.136E+01   -2.122E+01   -2.109E+01
    -2.095E+01   -2.082E+01   -2.070E+01   -2.057E+01   -2.045E+01   -2.033E+01   -2.022E+01   -2.010E+01   -1.999E+01   -1.989E+01
    -1.978E+01   -1.968E+01   -1.958E+01   -1.948E+01   -1.939E+01   -1.930E+01   -1.921E+01   -1.912E+01   -1.904E+01   -1.896E+01
    -1.888E+01   -1.880E+01   -1.873E+01   -1.866E+01   -1.859E+01   -1.853E+01   -1.846E+01   -1.840E+01   -1.835E+01   -1.829E+01
    -1.824E+01   -1.819E+01   -1.814E+01   -1.810E+01   -1.805E+01   -1.801E+01   -1.797E+01   -1.794E+01   -1.790E+01   -1.787E+01
    -1.784E+01   -1.781E+01   -1.778E+01   -1.775E+01   -1.773E+01   -1.771E+01   -1.769E+01   -1.767E+01   -1.765E+01   -1.763E+01
    -1.762E+01   -1.760E+01   -1.759E+01   -1.758E+01   -1.756E+01   -1.755E+01   -1.754E+01   -1.753E+01   -1.753E+01   -1.752E+01
    -1.751E+01   -1.750E+01   -1.750E+01   -1.749E+01   -1.749E+01   -1.748E+01   -1.747E+01   -1.747E+01   -1.746E+01   -1.746E+01
    -1.745E+01   -1.745E+01   -1.744E+01   -1.744E+01   -1.743E+01   -1.743E+01   -1.742E+01   -1.741E+01   -1.741E+01   -1.740E+01
    -1.739E+01   -1.738E+01   -1.737E+01   -1.736E+01   -1.735E+01   -1.734E+01   -1.732E+01   -1.731E+01   -1.729E+01   -1.728E+01
    -1.726E+01   -1.724E+01   -1.722E+01   -1.720E+01   -1.718E+01   -1.716E+01   -1.713E+01   -1.711E+01   -1.709E+01   -1.706E+01
    -1.704E+01   -1.701E+01   -1.699E+01   -1.696E+01   -1.694E+01   -1.691E+01   -1.689E+01   -1.687E+01   -1.684E+01   -1.682E+01
    -1.680E+01   -1.678E+01   -1.676E+01   -1.674E+01   -1.672E+01   -1.671E+01   -1.669E+01   -1.668E+01   -1.667E+01   -1.666E+01
    -1.665E+01   -1.664E+01   -1.664E+01   -1.664E+01   -1.664E+01   -1.664E+01   -1.664E+01   -1.665E+01   -1.666E+01   -1.667E+01
    -1.669E+01   -1.670E+01   -1.672E+01   -1.674E+01   -1.677E+01   -1.680E+01   -1.683E+01   -1.687E+01   -1.690E+01   -1.695E+01
    -1.699E+01   -1.704E+01   -1.709E+01   -1.715E+01   -1.721E+01   -1.727E+01   -1.734E+01   -1.741E+01   -1.749E+01   -1.757E+01
    -1.765E+01   -1.774E+01   -1.783E+01   -1.793E+01   -1.803E+01   -1.813E+01   -1.824E+01   -1.835E+01   -1.846E+01   -1.857E+01
    -1.869E+01   -1.881E+01   -1.893E+01   -1.905E+01   -1.917E+01   -1.929E+01   -1.942E+01   -1.954E+01   -1.967E+01   -1.979E+01
    -1.992E+01   -2.004E+01   -2.017E+01   -2.029E+01   -2.041E+01   -2.054E+01   -2.065E+01   -2.077E+01   -2.089E+01   -2.100E+01
    -2.111E+01   -2.122E+01   -2.133E+01   -2.143E+01   -2.153E+01   -2.163E+01   -2.172E+01   -2.181E+01   -2.189E+01   -2.198E+01
    -2.205E+01   -2.212E+01   -2.219E+01   -2.225E+01   -2.231E+01   -2.236E+01   -2.240E+01   -2.244E+01   -2.248E+01   -2.250E+01
    -2.252E+01   -2.254E+01   -2.254E+01   -2.254E+01   -2.254E+01   -2.252E+01   -2.250E+01   -2.247E+01   -2.243E+01   -2.238E+01
    -2.232E+01   -2.226E+01   -2.219E+01   -2.211E+01   -2.202E+01   -2.192E+01   -2.182E+01   -2.171E+01   -2.159E+01   -2.147E+01
    -2.134E+01   -2.120E+01   -2.106E+01   -2.091E+01   -2.076E+01   -2.060E+01   -2.043E+01   -2.026E+01   -2.009E+01   -1.991E+01
    -1.973E+01   -1.954E+01   -1.935E+01   -1.916E+01   -1.896E+01   -1.876E+01   -1.856E+01   -1.835E+01   -1.814E+01   -1.793E+01
    -1.772E+01   -1.751E+01   -1.729E+01   -1.707E+01   -1.686E+01   -1.664E+01   -1.642E+01   -1.620E+01   -1.598E+01   -1.577E+01
    -1.555E+01   -1.533E+01   -1.512E+01   -1.491E+01   -1.470E+01   -1.449E+01   -1.428E+01   -1.408E+01   -1.388E+01   -1.369E+01
    -1.349E+01   -1.330E+01   -1.312E+01   -1.294E+01   -1.277E+01   -1.260E+01   -1.243E+01   -1.228E+01   -1.212E+01   -1.198E+01
    -1.184E+01   -1.171E+01   -1.158E+01   -1.146E+01   -1.135E+01   -1.124E+01   -1.114E+01   -1.105E+01   -1.096E+01   -1.088E+01
    -1.081E+01   -1.074E+01   -1.068E+01   -1.062E+01   -1.057E+01   -1.053E+01   -1.049E+01   -1.045E+01   -1.043E+01   -1.041E+01
    -1.039E+01   -1.038E+01   -1.038E+01   -1.038E+01   -1.038E+01   -1.040E+01   -1.041E+01   -1.044E+01   -1.047E+01   -1.050E+01
    -1.054E+01   -1.058E+01   -1.063E+01   -1.068E+01   -1.074E+01   -1.080E+01   -1.087E+01   -1.094E+01   -1.102E+01   -1.109E+01
    -1.118E+01   -1.126E+01   -1.135E+01   -1.144E+01   -1.154E+01   -1.164E+01   -1.174E+01   -1.184E+01   -1.195E+01   -1.206E+01
    -1.217E+01   -1.228E+01   -1.239E+01   -1.251E+01   -1.262E+01   -1.274E+01   -1.286E+01   -1.298E+01   -1.310E+01   -1.323E+01
    -1.335E+01   -1.347E+01   -1.359E+01   -1.372E+01   -1.384E+01   -1.397E+01   -1.409E+01   -1.422E+01   -1.434E+01   -1.447E+01
    -1.460E+01   -1.472E+01   -1.485E+01   -1.498E+01   -1.510E+01   -1.523E+01   -1.536E+01   -1.549E+01   -1.562E+01   -1.574E+01
    -1.587E+01   -1.600E+01   -1.613E+01   -1.626E+01   -1.638E+01   -1.651E+01   -1.664E+01   -1.677E+01   -1.690E+01   -1.702E+01
 Mac      Conc. = 2.20E-04
  -6.17035E+01 -6.18879E+01 -6.20303E+01 -6.21850E+01 -6.24600E+01 -6.29534E+01 -6.36698E+01 -6.45448E+01 -6.54236E+01 -6.61568E+01
  -6.66557E+01 -6.69351E+01 -6.71089E+01 -6.72732E+01 -6.74926E+01 -6.77065E+01 -6.75714E+01 -6.66323E+01 -6.46550E+01 -6.18286E+01
  -5.87174E+01 -5.58284E+01 -5.33754E+01 -5.13712E+01 -4.97696E+01 -4.84119E+01 -4.70711E+01 -4.56191E+01 -4.40759E+01 -4.25603E+01
  -4.11984E+01 -4.00862E+01 -3.92465E+01 -3.86276E+01 -3.81408E+01 -3.76511E+01 -3.69668E+01 -3.59277E+01 -3.45901E+01 -3.32312E+01
  -3.21478E+01 -3.14328E+01 -3.08810E+01 -3.02334E+01 -2.94240E+01 -2.86372E+01 -2.81150E+01 -2.79897E+01 -2.82522E+01 -2.87773E+01
  -2.94192E+01 -3.00464E+01 -3.05315E+01 -3.07968E+01 -3.08492E+01 -3.06697E+01 -3.01921E+01 -2.94004E+01 -2.83672E+01 -2.72258E+01
  -2.61554E+01 -2.52562E+01 -2.46149E+01 -2.43179E+01 -2.43808E+01 -2.46582E+01 -2.49374E+01 -2.50516E+01 -2.49115E+01 -2.44462E+01
  -2.35729E+01 -2.22836E+01 -2.07344E+01 -1.92542E+01 -1.81379E+01 -1.74798E+01 -1.72304E+01 -1.72909E+01 -1.75306E+01 -1.78021E+01
  -1.80065E+01 -1.80616E+01 -1.79377E+01 -1.75922E+01 -1.70307E+01 -1.63083E+01 -1.55273E+01 -1.47727E+01 -1.40926E+01 -1.34936E+01
  -1.30036E+01 -1.26427E+01 -1.24517E+01 -1.25172E+01 -1.29226E+01 -1.37125E+01 -1.48813E+01 -1.63449E+01 -1.79404E+01 -1.95314E+01
  -2.10983E+01 -2.27512E+01 -2.47221E+01 -2.71925E+01 -3.02204E+01 -3.37559E+01 -3.75530E+01 -4.11460E+01 -4.39101E+01 -4.53566E+01
