 
 $NMID
 ID=''
 FMTDAT='(2E13.5)'
 TRAMP=   1.00000E+0
 VOLUME=   1.00000E+0
 $END
   7.13515E+3   1.50692E+4
   1.48417E+4   7.19771E+3
   5.10066E+3  -8.10559E+3
  -8.87229E+3   7.04651E+3
  -8.74258E+2   1.22399E+4
   1.16247E+3  -5.32246E+3
  -5.53955E+3  -3.59790E+3
  -4.84459E+2   5.83366E+3
   8.70116E+2  -1.26191E+3
  -6.06261E+3  -1.92203E+3
  -1.38891E+3   1.88506E+3
   3.28564E+3  -4.29801E+3
  -2.02291E+3  -3.10985E+3
  -9.94169E+2   3.11245E+3
   3.57962E+3  -2.71989E+3
   2.39184E+3  -3.32981E+3
   2.12473E+3   4.82288E+3
   1.54137E+3   3.11737E+3
  -9.27733E+2  -6.73288E+2
   3.11443E+2   2.55945E+3
   5.75490E+2   1.46961E+3
  -2.19896E+3  -1.16571E+3
  -8.02369E+2   1.03424E+3
   2.30341E+2   9.67702E+2
  -2.10311E+3  -2.23804E+3
  -7.27655E+0  -1.59679E+3
   2.44077E+3  -6.41771E+1
  -1.33891E+3   1.75451E+2
  -1.57856E+3  -7.38773E+2
   2.02335E+3  -1.21109E+3
   1.70277E+3   2.23675E+2
  -2.08409E+2   1.64967E+3
  -8.56731E+2   5.76347E+2
  -1.44004E+3  -8.86737E+2
   3.52590E+2  -8.17999E+2
   2.34925E+3   1.80414E+2
   6.72939E+1   1.59552E+3
  -2.02082E+3   1.15710E+3
  -5.35258E+2  -5.52525E+2
  -3.63284E+2  -6.62377E+2
  -1.82391E+3   3.46042E+2
  -5.70680E+2  -1.39511E+3
   1.27226E+3  -1.84940E+3
   1.08638E+3   1.27160E+2
   4.86512E+2   1.31606E+2
   5.88058E+2   6.43503E+2
  -1.60545E+2   2.02450E+3
  -1.10929E+3   1.10455E+3
  -1.41504E+3  -1.18256E+3
  -2.10886E+2  -6.17656E+2
   4.86993E+2   2.68093E+2
  -1.25442E+2  -2.83503E+2
  -1.07488E+2  -3.53731E+2
   6.63394E+2   3.22618E+2
  -4.56828E+1   1.59071E+2
  -7.40744E+2   1.14587E+2
  -3.50387E+2  -2.16347E+2
  -8.63553E+1  -1.10135E+3
   7.46061E+2  -5.82576E+2
   1.22070E+3   1.85187E+2
   4.67015E+2   7.87364E-1
   2.17394E+2   8.55051E+2
   1.07906E+2   1.27677E+3
  -8.91743E+2   8.08058E+2
  -1.42945E+3  -2.83954E+2
  -4.23779E+2  -8.32695E+2
   2.37052E+2  -8.83173E+2
   2.76749E+2  -4.98964E+2
   6.38250E+2   9.58428E+1
   3.45686E+2   3.77604E+1
  -4.03258E+2  -2.12531E+1
   3.67380E+1  -4.32451E+2
   6.30678E+2  -3.36184E+2
   1.88985E+2   5.58718E+2
   5.98851E+1   2.54916E+2
  -1.91700E+2  -4.61357E+2
   1.65083E+0  -1.98612E+2
   2.52294E+2   2.71917E+2
  -7.63261E+1   7.47340E+1
  -5.67579E+2  -3.34868E+2
  -2.53481E+2  -4.20608E+2
  -1.08097E+2  -2.84154E+2
   1.48686E+2   1.58112E+2
  -2.11692E+2  -7.99366E+1
  -1.26382E+2  -4.63120E+2
   1.61989E+2  -3.94179E+2
   4.53621E+2   1.51649E+1
   2.75263E+1   6.51756E+1
  -2.15856E+2   1.49641E+2
   2.62434E+2   1.08242E+2
   3.99383E+2   8.90736E+1
   3.26182E+1   2.05306E+2
  -4.59439E+2   3.21007E+2
  -5.10258E+2  -7.14348E+1
  -3.85347E+2  -4.95338E+2
   2.61746E+2  -2.99923E+2
   1.53105E+2  -1.55977E+2
  -1.05312E+2   1.04895E+2
   1.68565E+2   8.22575E+1
   3.03611E+2  -2.22018E+2
   2.97129E+2   2.46443E+2
  -1.89142E+2   4.23894E+2
  -5.28619E+2   1.61362E+2
  -2.37001E+2  -3.06537E+2
   2.02405E+1  -3.38155E+2
   2.83336E+2   2.49923E+2
   4.41933E+1   5.60293E+2
  -3.52425E+2   6.10260E+1
  -4.44512E+2  -5.27012E+2
   3.26065E+2  -1.59423E+2
   5.03820E+2   3.54096E+2
   2.93372E+2   3.20897E+2
  -1.89770E+2   1.57828E+2
  -4.20510E+1   2.90543E+2
   9.21576E+1   1.65683E+2
  -1.88160E+2   1.32549E+2
  -3.12924E+2   2.53654E+1
  -1.50832E+2  -3.17944E+2
   1.46906E+2  -4.70251E+2
   3.32514E+2  -3.09532E+2
   5.94962E+2   3.26625E+2
   2.63485E+2   2.10600E+2
   8.39845E+0   3.23852E+2
   1.12704E+2   1.71075E+2
  -4.10207E+2   2.13337E+2
  -1.63740E+2  -6.69124E+1
   2.03941E+2  -3.20443E+1
   2.19167E+2  -7.28483E+1
  -8.79071E+0   1.20939E+2
   3.20719E+2   1.27682E+2
  -2.31774E+2   1.99531E+2
  -2.33634E+2  -1.10028E+2
  -1.04124E+1  -2.38174E+2
   9.07472E+1  -2.03854E+2
  -1.66659E+1  -1.66216E+1
   3.77274E+1   4.54027E+0
   2.86196E+2   7.48853E+1
   2.55596E+2   1.53868E+2
   6.98707E+1   2.28152E+2
  -1.15647E+2   1.56405E+2
  -2.63816E+1  -7.52675E+1
   4.71624E+1  -7.08473E+1
   4.87056E+2  -9.34376E+1
   9.43275E+1   1.59638E+2
  -7.37003E+1   1.22036E+2
  -1.52333E+2   8.36002E+1
   8.01675E+0   2.02954E+1
   9.91485E+1  -1.28911E+2
  -1.33329E+2   8.56213E+1
   5.86384E+1  -3.11682E+2
   2.18440E+2  -8.01308E+1
   2.92537E+2   2.94206E-1
   3.20146E+2   2.44574E+1
   3.72497E+1   2.73991E+2
  -4.73143E+1   9.48470E+1
  -1.78591E+2   7.56728E+1
   1.19777E+2   1.22433E+2
   1.04838E+1   4.93377E+1
   2.41054E+1  -3.89000E+1
   7.54089E+1  -3.20894E+1
  -9.78932E+1  -2.11672E+1
   1.30869E+2   3.98343E+1
   5.70886E+1  -1.67185E+1
   1.99910E+2  -6.05620E+1
   1.64505E+2  -5.04218E+1
   3.76150E+2  -1.53544E+2
   2.55511E+2   1.33212E+2
   8.68665E+0   1.08025E+2
  -1.94599E+2  -2.24282E+1
   3.23120E+2  -1.25138E+2
  -5.60927E+1  -1.69488E+2
  -8.70317E+1   8.03581E+1
   1.43326E+2   1.14560E+2
  -7.04809E+1  -4.17887E+1
  -1.74350E+2  -1.37205E+2
   8.41698E+1  -1.19909E+1
  -8.36721E+1   2.70205E+2
   2.14011E+1  -6.79288E+1
   1.04051E+1  -1.29390E+2
   1.85326E+2  -6.62982E+1
   2.00117E+2   1.71165E+2
  -3.63035E+1   3.88417E+2
  -9.21082E+1  -1.26940E+2
   1.91995E+2  -1.99486E+2
  -9.88517E+1  -2.95762E+2
   1.59934E+2  -1.92238E+2
   1.06104E+1  -7.93827E+1
  -2.43198E+2  -9.73661E+1
   8.83711E+1  -1.27757E+0
   2.49239E+2  -1.08222E+2
  -1.28702E+2   2.82284E+2
  -4.48435E+2  -1.16147E+2
   2.00365E+1  -3.63431E+1
  -1.32866E+2  -1.35030E+2
  -1.66215E+2  -6.89150E+1
  -1.47646E+2   8.76678E+1
  -3.42051E+1  -2.20101E+1
   7.24327E+1  -1.66559E+2
   8.48588E+1  -2.31923E+2
  -1.57087E+0  -9.30872E+1
  -7.32959E+1   8.10665E+1
   4.73351E+1  -2.56265E+2
   1.63007E+2  -2.09173E+2
   1.16929E+2   8.03878E+1
   6.25557E+1   3.34588E+1
  -1.36100E+2   1.01509E+2
  -1.39508E+2  -5.92278E+1
  -8.32170E+1  -7.88063E+1
  -1.98533E+2   5.45029E+1
  -1.18026E+2   1.35447E+2
  -1.18196E+2  -6.26866E+1
   6.05658E+1  -2.96272E+1
   2.32388E+2   8.68043E+1
  -1.67696E+2   1.58146E+2
  -2.63344E+2   3.66811E+1
  -3.21412E+2  -3.54700E+1
   4.90699E+1  -2.16976E+0
   2.88663E+2  -9.66045E+1
   4.28667E+1   2.28052E+2
   1.99588E+2   8.84868E+1
  -4.32580E+1   6.09317E+1
  -1.47314E+2   1.14764E+2
   9.33325E+1   7.70431E+1
  -2.35610E+2  -2.69446E+1
  -4.33237E+1   8.03153E+1
  -8.07487E+1  -1.95336E+2
  -1.67591E+2  -5.58566E+1
  -1.25077E+2   2.81422E+2
   6.45750E+1   1.73249E+2
  -9.21322E+1  -1.66615E+2
  -2.31295E+2  -5.31246E+1
   4.58692E+1   1.40170E+2
   5.35045E+1   1.45281E+2
  -6.06810E+1   1.16839E+1
  -2.78982E+1   6.64569E+1
   3.03377E+0  -4.33485E+1
   1.71887E+2  -4.88390E+1
  -9.70657E+1   1.33862E+2
  -1.31915E+2  -3.31120E+1
  -1.15935E+2  -1.35834E+2
   1.18416E+1   2.58826E+1
   1.42523E+2   8.33309E+1
  -2.16417E+2  -1.44971E+2
   2.30841E+0  -5.27157E+1
  -8.95736E-1   8.52681E+0
   1.96050E+2   5.98425E+1
  -1.79912E+2   1.52781E+2
   1.66000E+1  -3.00897E+2
   1.30159E+2  -2.88378E+2
   3.47282E+1  -1.66321E+2
   2.61036E+1  -5.72349E+1
   8.24191E+1  -3.72255E+1
  -2.24225E+2   1.04825E+2
  -1.54653E+2  -1.38759E+2
   1.21240E+2  -2.20046E+2
  -1.66822E+2   2.39156E+2
   4.59262E+0   1.13525E+1
  -2.45193E+1  -5.04189E+1
  -4.88864E+0  -4.47602E+1
   2.72144E+2   9.94274E+1
  -4.61200E+1   1.89622E+2
  -9.06648E+1  -2.26821E+1
  -5.47009E+1  -9.44752E+1
   9.95663E+1  -1.27945E+2
   1.78522E+2  -1.66862E+2
  -5.38152E+1   1.29763E+2
  -1.69925E+2  -8.03790E+1
  -8.16734E+1  -3.38450E+1
   6.21600E+1  -1.49532E+2
   1.15494E+2   2.32524E+1
  -7.39708E+1   2.71180E+1
  -5.06629E+0   6.87757E+1
   5.74990E+0  -4.33904E+1
   2.39369E+2  -2.67932E+2
   3.80076E+1   8.70144E+1
  -1.66882E+2   1.79213E+2
  -2.35356E+1  -2.12779E+2
   1.83880E+2   4.75455E+1
   2.27379E+2  -9.69008E+1
  -2.02178E+2   9.88119E+1
  -1.95119E+1  -3.62060E+1
  -5.65598E+1   3.11153E+1
   1.03056E+2   2.08657E+1
   3.26356E+1   1.27495E+2
  -5.17521E+1   1.77605E+1
   3.75581E+0  -2.27958E+2
   5.32655E+1   2.97059E+1
  -9.63631E+1  -2.08638E+1
  -7.33763E+1   2.57565E+1
  -1.27515E+2   6.34182E+1
  -1.17723E+2   1.15757E+1
  -1.13664E+2  -2.08589E+2
  -5.99399E+1   1.12523E+2
  -2.92839E+1  -2.11236E+2
   1.20743E+2  -8.26943E+1
  -1.09209E+1   1.66833E+2
   4.92373E+1  -2.19996E+1
  -4.20354E+1   2.49330E+1
  -1.16920E+2  -2.68608E+0
   1.25486E+2  -1.54170E+1
  -1.17877E+2  -1.08578E+2
   1.61940E+0   2.31223E+2
   1.31200E+2   1.85923E+2
   2.59419E+1   2.29028E+2
   7.39159E-1   1.54616E+1
  -7.34496E+1  -3.88698E+1
  -1.29474E+1   1.38267E+2
   6.25980E+1   2.64039E+1
   2.15116E+2   5.65453E+1
  -1.92700E+0  -9.76258E+1
   2.42787E+2  -1.24538E+1
  -2.05116E+2   1.08453E+2
  -3.85089E+1   9.58184E+1
  -3.62090E+1  -6.67160E+0
  -3.25108E+1  -1.70077E+1
  -1.02468E+2   1.81482E+2
   1.70724E+2   1.98034E+1
   5.69638E+0  -4.20374E+1
  -8.84539E+1   1.49789E+2
  -3.82533E+1  -2.79142E+2
  -1.41100E+1   4.13762E+1
  -4.94449E+1   6.03973E+1
  -2.96159E+1  -3.13575E+1
   1.61354E+2   6.38828E+0
  -2.79471E+1  -7.65375E+1
   2.61153E+1  -6.00725E+0
  -1.01442E+1   2.89460E+2
  -9.69435E+1  -3.57611E+1
   9.34867E+1  -4.37702E+1
  -2.41146E+1  -2.10954E+2
   1.16871E+2  -1.49246E+2
  -1.29322E+2  -2.59170E+2
  -9.93194E+1  -6.73693E+1
  -1.06299E+2  -7.04090E+1
  -2.76563E+2   9.63462E+1
  -2.11867E+2   9.82478E+1
  -6.99452E+1  -1.51208E+1
  -2.88963E+2  -1.37587E+2
   8.55496E+0  -8.73432E+1
   2.15335E+2   1.33486E+2
   2.97808E+2  -6.54886E+1
  -1.11316E+2   2.24310E+2
  -1.29069E+2  -5.47280E+0
  -6.19455E+1  -1.42149E+1
   1.02430E+1  -6.31783E+1
  -1.12102E+2  -7.36616E+1
  -9.46585E+1   7.63322E+1
   7.77044E+1  -4.10102E+2
  -6.52014E+1   1.55346E+2
   1.30778E+2  -2.37096E+0
  -2.42546E+2   2.09075E+2
  -9.85908E+1  -3.04935E+1
  -5.62184E+1  -5.47829E+1
  -5.45938E+1  -9.73881E+1
  -1.79791E+1   7.92899E+1
   5.59892E+1  -2.93046E+1
   7.37274E+1  -1.93045E+2
   2.14160E+2  -6.25467E+1
   7.06679E+1  -2.63098E+1
  -1.57320E+2  -3.20285E+2
  -2.98350E+2  -1.18354E+2
  -5.69845E+1  -1.26971E+2
   1.01421E+2  -1.12943E+2
   7.78501E+1   1.45069E+2
  -1.48569E+2  -1.15117E+1
   3.31451E+1   1.01283E+2
  -1.29105E+2   1.73288E+2
