 
 $NMID
 ID=''
 FMTDAT='(2E13.5)'
 TRAMP=   1.00000E+0
 VOLUME=   1.00000E+0
 $END
   4.32428E+5   3.81327E+5
   7.65138E+5   1.35726E+6
   9.42922E+5   1.19399E+6
   8.83434E+5   1.10207E+6
   9.61084E+5   1.10861E+6
   1.07178E+6   9.77074E+5
   1.07824E+6   8.78032E+5
   1.11913E+6   8.54963E+5
   1.15931E+6   7.67159E+5
   1.14553E+6   7.02690E+5
   1.17014E+6   6.66742E+5
   1.19115E+6   5.83797E+5
   1.17608E+6   5.21280E+5
   1.18512E+6   4.86214E+5
   1.18542E+6   4.23184E+5
   1.16655E+6   3.70429E+5
   1.17562E+6   3.24260E+5
   1.17478E+6   2.49933E+5
   1.14972E+6   1.86905E+5
   1.14509E+6   1.28580E+5
   1.13281E+6   6.07169E+4
   1.10500E+6   7.95595E+3
   1.08956E+6  -4.11412E+4
   1.06557E+6  -9.98232E+4
   1.03069E+6  -1.40790E+5
   1.00710E+6  -1.80516E+5
   9.80950E+5  -2.22898E+5
   9.47936E+5  -2.52116E+5
   9.19162E+5  -2.79998E+5
   8.84361E+5  -3.17829E+5
   8.48034E+5  -3.47746E+5
   8.16074E+5  -3.78223E+5
   7.77439E+5  -4.11386E+5
   7.35894E+5  -4.37866E+5
   6.96922E+5  -4.65147E+5
   6.52922E+5  -4.94424E+5
   6.09612E+5  -5.15502E+5
   5.71140E+5  -5.33966E+5
   5.28641E+5  -5.48524E+5
   4.87935E+5  -5.57881E+5
   4.50842E+5  -5.64551E+5
   4.12681E+5  -5.69816E+5
   3.75515E+5  -5.71267E+5
   3.41807E+5  -5.72510E+5
   3.06980E+5  -5.71480E+5
   2.73501E+5  -5.67352E+5
   2.42048E+5  -5.63280E+5
   2.09622E+5  -5.57133E+5
   1.76593E+5  -5.48633E+5
   1.45550E+5  -5.41166E+5
   1.14391E+5  -5.32221E+5
   8.57156E+4  -5.20099E+5
   5.83804E+4  -5.07473E+5
   3.23808E+4  -4.94495E+5
   9.05146E+3  -4.79406E+5
  -1.23222E+4  -4.63382E+5
  -3.21955E+4  -4.46689E+5
  -5.00043E+4  -4.29174E+5
  -6.65990E+4  -4.10858E+5
  -8.20682E+4  -3.93108E+5
  -9.58603E+4  -3.75380E+5
  -1.08273E+5  -3.56685E+5
  -1.19752E+5  -3.37579E+5
  -1.29820E+5  -3.18601E+5
  -1.38541E+5  -2.99344E+5
  -1.46540E+5  -2.80606E+5
  -1.52995E+5  -2.61606E+5
  -1.58382E+5  -2.42041E+5
  -1.62485E+5  -2.23733E+5
  -1.65102E+5  -2.06257E+5
  -1.66250E+5  -1.88931E+5
  -1.67271E+5  -1.71717E+5
  -1.67143E+5  -1.55043E+5
  -1.66292E+5  -1.39203E+5
  -1.63964E+5  -1.23775E+5
  -1.61560E+5  -1.08526E+5
  -1.58221E+5  -9.39903E+4
  -1.54414E+5  -7.96851E+4
  -1.49679E+5  -6.64740E+4
  -1.44699E+5  -5.36696E+4
  -1.39536E+5  -4.11898E+4
  -1.33693E+5  -2.97503E+4
  -1.27435E+5  -1.87994E+4
  -1.20466E+5  -8.41453E+3
  -1.13586E+5   6.35149E+2
  -1.06605E+5   9.13126E+3
  -9.94253E+4   1.75814E+4
  -9.20525E+4   2.53106E+4
  -8.44001E+4   3.18850E+4
  -7.66720E+4   3.84448E+4
  -6.92407E+4   4.41421E+4
  -6.18798E+4   4.95297E+4
  -5.44055E+4   5.46117E+4
  -4.69637E+4   5.91427E+4
  -3.95029E+4   6.29227E+4
  -3.23028E+4   6.65411E+4
  -2.54500E+4   6.96611E+4
  -1.86774E+4   7.24995E+4
  -1.21112E+4   7.48790E+4
  -5.60497E+3   7.65283E+4
   5.33476E+2   7.81538E+4
   6.33810E+3   7.91134E+4
   1.18592E+4   7.96016E+4
   1.71284E+4   8.05552E+4
   2.24287E+4   8.06142E+4
   2.71587E+4   8.06482E+4
   3.18934E+4   8.05655E+4
   3.59058E+4   8.00557E+4
   4.03804E+4   7.98694E+4
   4.38265E+4   7.93458E+4
   4.80274E+4   7.82002E+4
   5.12447E+4   7.77215E+4
   5.42097E+4   7.70856E+4
   5.70366E+4   7.60517E+4
   5.97081E+4   7.47816E+4
   6.24120E+4   7.39675E+4
   6.41276E+4   7.30840E+4
   6.60953E+4   7.17500E+4
   6.75302E+4   7.01236E+4
   6.90061E+4   6.88178E+4
   7.02313E+4   6.77218E+4
   7.14151E+4   6.63786E+4
   7.22415E+4   6.46092E+4
   7.29045E+4   6.32255E+4
   7.33495E+4   6.19478E+4
   7.35917E+4   6.09833E+4
   7.38876E+4   5.95872E+4
   7.39247E+4   5.81903E+4
   7.36725E+4   5.72056E+4
   7.31393E+4   5.60603E+4
   7.23081E+4   5.51028E+4
   7.16431E+4   5.41323E+4
   7.09175E+4   5.28433E+4
   7.00046E+4   5.17867E+4
   6.89634E+4   5.07598E+4
   6.76697E+4   5.00788E+4
   6.63029E+4   4.90502E+4
   6.51332E+4   4.80006E+4
   6.40047E+4   4.71223E+4
   6.21678E+4   4.64901E+4
   6.06257E+4   4.57040E+4
   5.90424E+4   4.50376E+4
   5.73344E+4   4.40811E+4
   5.55302E+4   4.31435E+4
   5.38543E+4   4.26538E+4
   5.16071E+4   4.21754E+4
   4.97881E+4   4.14965E+4
   4.73207E+4   4.12692E+4
   4.51988E+4   4.04920E+4
   4.31755E+4   3.99786E+4
   4.08362E+4   3.96981E+4
   3.88934E+4   3.91602E+4
   3.67227E+4   3.90245E+4
   3.43939E+4   3.87153E+4
   3.20749E+4   3.83300E+4
   3.01066E+4   3.82650E+4
   2.78330E+4   3.78714E+4
   2.57890E+4   3.79133E+4
   2.34075E+4   3.80045E+4
   2.13310E+4   3.78793E+4
   1.89891E+4   3.77808E+4
   1.69617E+4   3.77461E+4
   1.47081E+4   3.81229E+4
   1.27686E+4   3.81455E+4
   1.05499E+4   3.81723E+4
   8.69903E+3   3.84885E+4
   6.79007E+3   3.88311E+4
   4.86864E+3   3.91219E+4
   3.08852E+3   3.93705E+4
   1.19983E+3   3.95703E+4
  -4.90662E+2   3.98591E+4
  -2.33098E+3   4.02065E+4
  -3.86767E+3   4.08633E+4
  -5.59496E+3   4.11156E+4
  -7.05406E+3   4.15614E+4
  -8.49835E+3   4.20482E+4
  -1.00901E+4   4.24693E+4
  -1.13126E+4   4.28071E+4
  -1.27856E+4   4.32253E+4
  -1.38229E+4   4.36317E+4
  -1.49132E+4   4.41080E+4
  -1.59854E+4   4.44643E+4
  -1.72054E+4   4.46594E+4
  -1.83522E+4   4.50301E+4
  -1.92128E+4   4.50996E+4
  -1.98245E+4   4.53423E+4
  -2.03207E+4   4.55426E+4
  -2.11191E+4   4.58736E+4
  -2.16277E+4   4.56281E+4
  -2.21425E+4   4.60924E+4
  -2.27627E+4   4.59004E+4
  -2.30120E+4   4.62240E+4
  -2.38019E+4   4.60593E+4
  -2.38114E+4   4.55285E+4
  -2.41732E+4   4.53681E+4
  -2.47193E+4   4.51570E+4
  -2.50326E+4   4.46053E+4
  -2.53238E+4   4.46497E+4
  -2.53805E+4   4.38220E+4
  -2.56827E+4   4.34508E+4
  -2.58305E+4   4.28713E+4
  -2.61445E+4   4.20258E+4
  -2.61441E+4   4.14344E+4
  -2.64247E+4   4.06357E+4
  -2.64866E+4   4.00468E+4
  -2.66426E+4   3.91486E+4
  -2.66198E+4   3.83871E+4
  -2.69901E+4   3.74589E+4
  -2.70208E+4   3.65144E+4
  -2.71386E+4   3.54798E+4
  -2.73840E+4   3.42848E+4
  -2.74788E+4   3.31732E+4
  -2.73987E+4   3.21194E+4
  -2.75691E+4   3.13287E+4
  -2.81750E+4   3.00201E+4
  -2.80889E+4   2.90382E+4
  -2.82288E+4   2.77436E+4
  -2.83784E+4   2.63395E+4
  -2.83971E+4   2.53665E+4
  -2.85233E+4   2.42475E+4
  -2.89273E+4   2.29482E+4
  -2.88928E+4   2.16516E+4
  -2.91102E+4   2.08429E+4
  -2.93174E+4   1.95613E+4
  -2.95727E+4   1.83814E+4
  -2.97541E+4   1.71119E+4
  -2.99495E+4   1.61113E+4
  -3.01083E+4   1.49286E+4
  -3.03055E+4   1.41224E+4
  -3.07636E+4   1.28245E+4
  -3.10706E+4   1.16894E+4
  -3.12071E+4   1.08628E+4
  -3.16777E+4   9.83646E+3
  -3.18284E+4   8.77793E+3
  -3.19552E+4   7.99627E+3
  -3.21482E+4   6.95195E+3
  -3.25440E+4   5.87911E+3
  -3.28340E+4   5.16231E+3
  -3.31126E+4   4.33381E+3
  -3.32405E+4   3.75694E+3
  -3.33957E+4   2.86585E+3
  -3.36017E+4   2.15912E+3
  -3.36884E+4   1.41997E+3
  -3.38931E+4   7.88081E+2
  -3.39284E+4   2.53939E+2
  -3.40293E+4  -5.02224E+2
  -3.42218E+4  -7.17096E+2
  -3.45126E+4  -1.68342E+3
  -3.45483E+4  -2.22339E+3
  -3.42375E+4  -2.79099E+3
  -3.44072E+4  -3.12519E+3
  -3.45964E+4  -3.75472E+3
  -3.45150E+4  -4.27893E+3
  -3.44760E+4  -4.66185E+3
  -3.41770E+4  -5.21397E+3
  -3.45287E+4  -5.48897E+3
  -3.42993E+4  -5.76565E+3
  -3.43501E+4  -6.35563E+3
  -3.40815E+4  -6.67017E+3
  -3.37576E+4  -7.27012E+3
  -3.38003E+4  -7.55129E+3
  -3.32812E+4  -7.93361E+3
  -3.31351E+4  -8.47075E+3
  -3.29188E+4  -8.62689E+3
  -3.26556E+4  -8.73718E+3
  -3.25556E+4  -9.04933E+3
  -3.21328E+4  -9.63939E+3
  -3.18894E+4  -1.03432E+4
  -3.14961E+4  -1.04486E+4
  -3.10630E+4  -1.06854E+4
  -3.05710E+4  -1.09230E+4
  -3.02581E+4  -1.12562E+4
  -2.99895E+4  -1.18011E+4
  -2.93677E+4  -1.21297E+4
  -2.92498E+4  -1.22900E+4
  -2.86216E+4  -1.26251E+4
  -2.83769E+4  -1.29762E+4
  -2.78087E+4  -1.33384E+4
  -2.75865E+4  -1.34606E+4
  -2.70673E+4  -1.40578E+4
  -2.65691E+4  -1.43672E+4
  -2.60938E+4  -1.46671E+4
  -2.57530E+4  -1.47289E+4
  -2.51969E+4  -1.49085E+4
  -2.45940E+4  -1.54937E+4
  -2.44482E+4  -1.58037E+4
  -2.40895E+4  -1.59880E+4
  -2.35733E+4  -1.65002E+4
  -2.32181E+4  -1.62839E+4
  -2.28772E+4  -1.65926E+4
  -2.23961E+4  -1.69204E+4
  -2.21713E+4  -1.69996E+4
  -2.16192E+4  -1.74575E+4
  -2.11577E+4  -1.75599E+4
  -2.11444E+4  -1.79091E+4
  -2.05249E+4  -1.78876E+4
  -1.98662E+4  -1.82200E+4
  -1.96948E+4  -1.85111E+4
  -1.95492E+4  -1.85930E+4
  -1.91211E+4  -1.88720E+4
  -1.88754E+4  -1.90711E+4
  -1.83624E+4  -1.89159E+4
  -1.80626E+4  -1.91915E+4
  -1.78243E+4  -1.91715E+4
  -1.76303E+4  -1.90147E+4
  -1.72385E+4  -1.97288E+4
  -1.68557E+4  -1.95084E+4
  -1.67702E+4  -1.95598E+4
  -1.63122E+4  -1.95549E+4
  -1.59890E+4  -1.97462E+4
  -1.57657E+4  -1.95271E+4
  -1.55842E+4  -1.95160E+4
  -1.52657E+4  -1.97426E+4
  -1.48781E+4  -1.96107E+4
  -1.45734E+4  -1.94142E+4
  -1.44547E+4  -1.94726E+4
  -1.39668E+4  -1.94330E+4
  -1.38782E+4  -1.94794E+4
  -1.36184E+4  -1.93991E+4
  -1.32446E+4  -1.92457E+4
  -1.28785E+4  -1.89929E+4
  -1.25329E+4  -1.88055E+4
  -1.25132E+4  -1.91583E+4
  -1.18499E+4  -1.87378E+4
  -1.18520E+4  -1.86044E+4
  -1.15391E+4  -1.84461E+4
  -1.13333E+4  -1.81983E+4
  -1.11722E+4  -1.80171E+4
  -1.04985E+4  -1.81547E+4
  -1.06459E+4  -1.76592E+4
  -1.00836E+4  -1.75105E+4
  -9.83282E+3  -1.73115E+4
  -9.52448E+3  -1.72159E+4
  -9.27258E+3  -1.69413E+4
  -9.00217E+3  -1.71311E+4
  -8.81683E+3  -1.66687E+4
  -8.28803E+3  -1.65978E+4
  -8.12905E+3  -1.65454E+4
  -7.64976E+3  -1.60575E+4
  -7.51357E+3  -1.61104E+4
  -7.14473E+3  -1.57123E+4
  -6.96674E+3  -1.57120E+4
  -6.46477E+3  -1.56899E+4
  -6.15251E+3  -1.52085E+4
  -5.98273E+3  -1.51557E+4
  -5.80282E+3  -1.49402E+4
  -5.42823E+3  -1.49863E+4
  -4.98334E+3  -1.46039E+4
  -5.13723E+3  -1.46305E+4
  -4.72793E+3  -1.43615E+4
  -4.10342E+3  -1.43431E+4
  -4.04181E+3  -1.41053E+4
  -3.67863E+3  -1.37572E+4
  -3.44387E+3  -1.37410E+4
  -3.14104E+3  -1.34051E+4
  -3.15270E+3  -1.32728E+4
  -3.02715E+3  -1.30759E+4
  -2.67925E+3  -1.31512E+4
  -2.66970E+3  -1.28589E+4
  -2.11500E+3  -1.28012E+4
  -1.91837E+3  -1.25837E+4
  -1.86873E+3  -1.25216E+4
  -1.70766E+3  -1.24504E+4
  -1.38599E+3  -1.21958E+4
  -1.26440E+3  -1.20124E+4
  -1.19380E+3  -1.18630E+4
  -1.14708E+3  -1.18670E+4
