 
 $NMID
 ID=''
 FMTDAT='(2E13.5)'
 TRAMP=   1.00000E+0
 VOLUME=   1.00000E+0
 $END
  -2.47990E+3  -2.26261E+4
  -2.09284E+4  -1.16657E+4
  -5.43762E+3   2.54604E+4
   2.12446E+4   7.53076E+3
  -5.11631E+3  -2.24202E+4
  -1.74783E+4   2.57548E+3
   1.21637E+4   1.60094E+4
   9.43248E+3  -7.60265E+3
  -1.08116E+4  -4.19929E+3
   2.21521E+1   8.49209E+3
   4.75833E+3  -2.85335E+3
  -5.21284E+3  -4.50835E+3
   3.61828E+2   3.34538E+3
   2.45150E+3  -3.61474E+3
  -4.78829E+3  -4.37841E+3
   1.63476E+3   2.88157E+3
   4.76204E+3   4.16654E+2
  -2.78017E+3  -9.36761E+2
  -4.63562E+2   1.75465E+3
   2.52128E+3  -9.42556E+2
  -2.32437E+3  -1.08890E+3
   7.46837E+1   2.15457E+3
   2.53640E+3   1.31145E+3
  -1.92925E+3  -2.68754E+2
  -1.35519E+3  -1.25089E+2
   3.24461E+3  -4.03740E+2
  -3.54905E+1   1.43422E+3
  -3.26972E+3   1.21896E+3
  -2.29955E+2  -2.12872E+3
   1.32224E+3  -1.29869E+3
  -4.84097E+1   2.25298E+3
  -8.69661E+2   8.13979E+2
  -1.34593E+3  -1.70680E+3
  -9.36481E+2  -1.13822E+3
   9.61171E+2  -4.89773E+2
   2.02574E+3   4.15609E+2
   2.75181E+1   1.88668E+3
  -1.68340E+3   1.18869E+3
  -1.42510E+2  -1.56334E+2
   4.00053E+2   9.85316E+1
  -1.15864E+3   2.11023E+2
   4.68408E+1  -5.01710E+2
   1.57907E+3  -5.59496E+2
   1.06990E+3   1.45023E+2
   9.26359E+2   2.34704E+2
   5.17072E+2   1.11787E+3
  -7.77336E+2   1.94731E+3
  -1.92955E+3  -1.28467E+2
  -9.26246E+2  -1.95337E+3
   3.61975E+2  -1.06427E+3
   4.86046E+2   1.75160E+2
   2.45422E+2  -7.33964E+2
   3.95996E+2  -5.83934E+2
   3.56724E+2   5.31122E+2
   8.27511E+1   7.43547E+2
  -3.10328E+2   3.96166E+2
  -8.89918E+2  -2.85963E+2
  -2.94165E+1  -6.73407E+2
   5.01321E+2  -8.29121E+2
   5.65629E+2   3.74812E+1
   3.44864E+2   6.65082E+2
   4.58091E+2   9.37140E+2
  -3.69975E+2   1.15954E+3
  -1.15754E+3   5.81500E+2
  -1.47623E+3  -4.27437E+2
  -8.34405E+2  -8.94579E+2
   3.02808E+2  -1.29643E+3
   9.15987E+2  -1.34288E+3
   1.05218E+3   2.77019E+1
   8.85067E+1   7.98154E+2
  -7.59983E+2  -1.08845E+2
   2.87737E+2  -1.17599E+3
   1.37331E+3   9.16349E+1
   2.41769E+2   1.19413E+3
  -6.36226E+2   6.04037E+2
  -3.79121E+2  -2.30243E+2
   5.50954E+2   5.76532E+1
   4.79614E+1   6.06721E+2
  -4.33134E+2  -3.34863E+1
  -4.43645E+2  -3.07901E+2
  -3.20028E+2  -1.97825E+2
  -2.24473E+0  -1.37180E+2
  -1.43135E+1  -7.24708E+1
  -3.60096E+1  -2.14703E+2
  -3.22470E+1  -2.30944E+2
   1.47280E+2  -4.71067E+2
   5.51475E+2   3.26144E+1
   4.53611E+2   2.42950E+2
  -6.77342E+1   6.24658E+1
   9.05763E+1  -9.18936E+1
   4.87670E+2   2.16258E+2
   3.79126E+2   1.83360E+2
  -4.27196E+2   7.81812E+2
  -9.79644E+2   3.55103E+2
  -4.01436E+2  -6.19029E+2
  -5.38180E+1  -9.31648E+2
   3.41798E+2  -1.68174E+2
   2.43392E+2   4.10703E+2
  -2.79728E+2  -3.92202E+2
   2.89985E+2  -4.09294E+2
   4.66523E+2   2.77221E+2
   2.48220E+2   6.91192E+2
  -7.33868E+2   4.28461E+2
  -4.35125E+2  -4.79629E+2
   2.39591E+2  -6.35775E+2
   2.82126E+2   4.18020E+1
   3.51895E+1   5.38713E+2
  -6.02725E+2   3.83427E+2
  -5.88296E+2  -5.90506E+2
   4.33016E+2  -7.42768E+2
   3.61096E+2  -1.00978E+2
   4.01944E+2   2.63442E+2
   2.15980E+1   4.23662E+2
   1.84311E+2   2.15082E+2
  -2.61521E+1   4.28890E+1
  -5.57883E+1   1.24649E+2
  -2.79301E+2   3.05194E+2
  -4.62140E+2  -1.56909E+1
  -2.43006E+2  -7.11225E+2
   2.31078E+2  -2.47460E+2
   5.33545E+2   1.77400E+1
   4.08852E+2   2.39730E+2
   2.21483E+2   6.70187E+1
  -2.35901E+0   3.15996E+2
  -4.10654E+2   1.67254E+2
  -1.77245E+2  -1.01385E+2
  -1.25916E+2  -2.84133E+2
   5.77598E+1   1.21129E+2
   4.31239E+2  -1.51470E+2
   2.46716E+1   6.98933E+1
  -4.00997E+2   2.99603E+2
  -3.18726E+2   1.05716E+2
  -3.01573E+2  -2.66084E+2
  -1.78726E+2  -1.42003E+2
  -1.16839E+2   2.72385E+1
  -1.55623E+2  -2.46668E+2
  -2.51733E+2  -2.66834E+2
   2.46109E+2  -1.56298E+2
   4.06989E+2   1.55707E+2
  -2.58893E+2   2.70286E+2
  -5.19901E+2  -1.36025E+2
  -2.18931E+2  -2.70426E+2
   4.42203E+2  -3.92059E+2
   2.49704E+2   1.74701E+2
   2.25838E+2   4.31751E+2
  -1.47602E+2   9.63695E+1
  -4.45882E+2  -5.63443E+1
  -1.85608E+2   2.61931E+1
   2.27616E+1  -5.79530E+1
  -3.65987E+1   5.81282E+1
  -2.21903E+2  -1.50964E+2
   9.47407E+0  -2.88526E+2
   2.31301E+2  -1.23085E+2
   2.76181E+2   2.08921E+2
   1.39462E+1   2.06082E+2
  -3.13393E+2  -1.43785E+2
  -3.64302E+0  -4.62559E+1
   2.42166E+2   1.26634E+2
  -8.51406E+1   1.43002E+2
  -1.41693E+2   6.01620E+1
  -2.79705E+1  -4.41512E+1
   5.12218E+1   5.64319E+1
  -1.01957E+2   2.84192E+2
  -3.08723E+2   4.17983E+0
  -2.64102E+1  -3.24761E+2
   2.04556E+2  -1.49364E+2
   1.61919E+2   4.20942E+1
   1.09715E+2   1.53068E+1
   6.40063E+1   8.06826E+1
   5.00074E+0  -2.16857E+2
   1.50188E+2   3.22873E+1
   8.82358E+1  -5.97150E+1
   7.08600E+1   1.91457E+2
  -2.57802E+1   2.33941E+1
   3.88262E+1  -7.11628E+1
   1.04698E+1   1.11233E+2
   2.27878E+2   1.93762E+2
  -7.79512E+1  -3.35118E+1
  -2.53091E+2  -2.05123E+2
   4.67867E+1  -1.37335E+2
   2.72231E+2  -1.91992E+2
  -6.15323E+0   2.45581E+2
  -7.44027E+1   1.19333E+2
   3.01788E+1   1.23232E+2
   4.44517E+1  -7.12044E+1
   2.57648E+1   5.83762E+1
  -1.86994E+2  -1.22652E+2
  -2.11350E+2  -1.79659E+1
   4.61196E+1  -2.73799E+2
   1.59444E+2  -4.43685E+1
  -1.20316E+2   4.91685E+0
  -1.82228E+1   7.63668E+1
  -3.41232E+2  -1.90237E+1
   6.67755E+1  -6.45254E+1
  -1.15414E+2  -8.37825E+1
   2.27442E+1   3.45825E+1
   1.03575E+2   2.72790E+1
  -8.08631E+1  -9.47320E+1
   2.15745E+2   9.35675E+1
   1.38016E+2   8.42073E+0
  -1.87335E+2   2.72738E+2
  -2.15261E-1  -2.05406E+2
  -2.54598E+1   1.51780E+1
  -1.15726E+1  -6.86872E+1
  -2.15144E+1   2.64949E+0
   8.51412E+1   1.32650E+2
  -1.57405E+2   8.83227E+1
   1.47681E+2  -6.86919E+1
  -1.31661E+2   1.20490E+2
   1.60891E+2  -2.05945E+1
  -2.04140E+1   1.43319E+2
  -2.32711E+2  -6.68292E+1
   2.19377E+2   1.53158E+2
   3.53267E+2   8.61583E+1
   1.58435E+2   2.91093E+2
   5.09966E+0  -6.10365E+1
   8.55082E+1  -1.08418E+2
   1.00779E+2   2.57198E+1
  -1.13072E+2  -6.11845E+1
  -6.83234E+1   1.66266E+2
   1.04363E+2  -4.07690E+1
  -3.38630E+1   4.82706E+1
   1.66942E+2   7.05256E+1
   7.06419E+1  -5.37971E+1
  -1.94512E+2   5.88151E-1
   2.07278E+2   4.18444E+1
   1.75890E+2  -2.43933E+2
   7.95719E+1  -1.61294E+2
   1.87683E+2   6.81914E+1
  -2.64242E+2   7.90132E+1
  -1.14722E+2  -6.82512E+1
   3.47067E+1  -3.27222E+2
  -6.79851E+1   2.47628E+2
   1.26425E+2  -1.12854E+2
   5.57615E+0  -8.66757E+1
   2.52063E+2  -1.24054E+2
  -1.28527E+2  -9.45559E+1
   9.22133E+1   6.56632E+1
  -5.04032E+1  -1.24813E+2
   3.73905E+1  -2.07828E+2
  -1.20076E+2  -1.86263E+2
  -1.29216E+2   4.81325E+1
   2.10693E+2  -1.36051E+2
   9.85040E+1   1.76456E+2
  -1.48658E+2  -7.44493E+1
   2.38506E+0  -1.24998E+2
   3.08536E+1   4.05978E+1
   2.60892E+2  -9.47066E+0
  -4.83642E+1   1.63904E+0
   5.98831E+1   4.05843E+1
   2.11223E+1   2.73573E+1
  -4.45601E+0  -9.84513E+1
  -6.32553E+1   8.36817E+1
  -8.08756E+1   9.91015E+1
  -2.20057E+1  -2.07242E+1
  -4.43998E+1   2.55385E+1
   1.22413E+2   6.70276E+1
  -8.29181E+1  -1.29165E+2
  -2.47967E+1  -5.47634E+1
   2.19509E+1  -3.14150E+1
   7.33469E+1   2.92907E+2
   4.81525E+1  -2.17231E+2
   1.02864E+2  -8.61228E+1
  -1.87891E+1  -2.33062E+2
   1.88785E+2  -1.07674E+1
   1.44046E+2  -7.53994E+1
   1.78096E+2   1.62240E+2
  -1.33855E+2  -2.26013E+1
   5.08670E+1  -5.75621E+1
  -2.08531E+1  -1.88110E+2
   6.97005E+1  -1.65837E+2
   2.25566E+1   1.34147E+2
  -1.54806E+2  -1.46175E+1
   1.87493E+2  -1.34037E+2
  -4.31034E+1   1.51647E+2
   1.07012E+2  -4.63855E+1
   9.04035E+1   7.90670E+1
   2.18308E+2  -1.22048E+2
  -8.86306E+1   2.80354E+1
  -2.14869E+2   1.90359E+2
   1.54591E+2  -1.73243E+2
   1.38013E+2  -1.79075E+2
   8.83207E+1  -4.48972E+1
   9.65668E+0  -1.05984E+2
   2.72637E+2   1.13209E+2
   1.64023E+1  -4.22432E+0
   2.17216E+2   2.39200E+1
   4.79980E+1  -2.62652E+2
   4.08219E+2  -8.64899E+1
   2.39466E+2   2.11551E+2
  -1.18279E+2  -6.93921E+1
  -1.12019E+2  -2.49213E+1
  -1.76440E+2  -9.84696E+1
   1.51647E+2  -1.55256E+2
  -1.30542E+2   2.28821E+1
  -2.10242E+2   2.79168E+2
   3.27228E+1   4.72673E+1
   3.87040E+1   8.74376E+1
   1.40841E+2  -1.91324E+1
  -9.20345E+1   1.13451E+1
  -8.57591E+0   1.17711E+2
  -1.07080E+1  -2.55780E+2
   1.70189E+2   1.06282E+2
   2.95522E+1   6.45549E+1
  -2.18836E+2   6.38723E+1
  -6.02638E+0   2.88157E+1
   1.76584E+1  -3.13901E+2
  -1.15378E+1   5.10405E+1
  -2.50502E+2   2.21369E+2
  -9.28467E+1   2.70731E+1
   1.14201E+2  -2.28272E+2
   2.16860E+2  -2.49512E+2
   2.06638E+1   2.46636E+2
   1.87427E+2  -9.43210E+1
   2.53769E+1   7.61959E+1
  -1.90112E+1  -1.09949E+2
  -5.01093E+1  -2.20958E+2
  -1.77059E+1   1.72126E+2
   1.75151E+1  -4.99334E+1
   1.69369E+2   6.86201E+1
   5.21650E+1  -1.51433E+2
   1.35107E+2  -1.74524E+1
   4.92024E+1   1.45870E+2
  -2.07923E+2  -1.30490E+2
   1.39544E+2  -1.42662E+1
   9.77773E+1  -9.33561E+1
   8.37147E+1   3.77437E+2
   2.23068E+1  -2.30322E+2
  -1.59158E+2  -1.55449E+2
   1.68854E+2   7.05670E+1
   2.74325E+1   2.13669E+2
   1.08686E+2  -1.00872E+2
   1.13747E+1   7.90641E+1
  -3.00497E+1  -4.49322E+1
   8.29148E+1  -5.17026E+1
   1.07507E+2  -1.88148E+2
  -1.55151E+2  -3.91317E-1
  -8.26561E+1   1.77254E+2
   4.55507E+1  -2.00778E+2
   2.65312E+1  -1.79522E+2
   1.38676E+2  -9.83016E+1
   3.42827E+2  -2.80467E+1
   1.90641E+2   1.54093E+2
   2.62311E+1  -5.68087E+1
   1.20993E+2   1.23883E+2
   1.38273E+2  -7.23219E+1
   1.67941E+2  -8.98247E+1
   7.12189E+1   1.61767E+1
  -9.24267E+1  -7.11044E+1
   1.60299E+2  -7.01077E+1
  -9.60143E+1   1.72596E+0
  -1.27948E+2  -1.70620E+2
  -2.24460E+1   1.75346E+2
   7.47691E+1   3.50768E+1
  -1.14780E+2  -3.97108E+1
   1.64278E+1   7.19481E+1
   6.44936E+1   9.50585E+1
  -9.52594E+1  -2.34535E+1
  -8.02032E+0   1.19429E+2
  -1.62852E+2  -1.38227E+2
   3.78405E+1  -9.41135E+0
  -1.25307E+2   2.25387E+2
  -1.05826E+2   6.22182E-1
   1.23785E+2  -7.17019E+1
   2.53036E+2  -1.67222E+2
   6.34742E+1   9.81498E+1
  -1.39472E+2   2.89828E+1
