 
 $NMID
 ID=''
 FMTDAT='(2E13.5)'
 TRAMP=   1.00000E+0
 VOLUME=   1.00000E+0
 $END
   2.61919E+3   1.67376E+4
   2.21688E+4   1.90482E+4
   2.18471E+4  -2.04746E+4
  -1.58302E+4  -2.71996E+4
  -2.73298E+4   1.29854E+4
   3.32339E+3   2.60718E+4
   2.00762E+4  -2.30482E+3
   4.05290E+3  -1.88571E+4
  -1.17915E+4  -7.21789E+3
  -7.11270E+3   8.98551E+3
   5.55808E+3   1.05817E+4
   7.92787E+3  -1.47591E+3
   2.60769E+2  -8.27289E+3
  -3.66480E+3  -3.69393E+2
  -3.08894E+3   5.54464E+3
  -1.81273E+3   9.86994E+2
   1.74843E+3  -1.56036E+3
   3.59501E+3   1.29743E+2
  -5.38545E+2  -6.32795E+2
  -2.96665E+3  -1.83009E+3
  -1.18409E+3   1.04180E+3
   5.01417E+2   2.44852E+3
   1.65344E+3  -6.30100E+2
   1.31031E+3  -3.29091E+3
  -2.42333E+3  -6.09606E+2
  -3.04815E+3   1.45544E+3
   2.01945E+3   1.93469E+2
   3.88791E+3  -5.74822E+2
  -9.14427E+1  -5.12626E+2
  -3.01840E+3  -5.87879E+2
  -9.47397E+2   6.90508E+1
   2.46847E+3   1.05111E+3
   2.28643E+3  -2.08070E+2
  -5.51075E+2  -3.96003E+2
  -2.66365E+3   7.19822E+2
  -1.33080E+3   4.46113E+2
   1.66989E+3  -7.84039E+2
   1.67569E+3  -8.16554E+2
  -8.62584E+2  -2.95886E+2
  -1.12653E+3   2.06960E+2
   1.06815E+3   7.51196E+2
   1.23930E+3   4.20515E+2
  -1.25232E+3  -5.86620E+2
  -1.75078E+3  -3.01716E+2
  -2.88398E+2   1.68457E+2
   1.10103E+3  -6.58303E+2
   1.16557E+3  -1.26733E+3
   9.21947E+2   5.55355E+1
  -8.17938E+1   1.62391E+3
   4.52042E+1   6.91339E+2
   3.20903E+2  -4.15784E+2
  -2.23619E+2   3.12275E+0
  -7.10885E+2   1.73180E+1
  -3.49546E+2   1.17816E+2
   2.44120E+2  -6.27710E+2
   3.92961E+2  -4.65463E+2
   2.94750E+2   1.76868E+2
   2.15104E+2   8.56073E+2
  -4.51866E+2   6.39432E+2
  -6.82524E+2  -4.40395E+2
  -4.21592E+2  -5.41668E+2
  -2.45061E+1  -4.36426E+2
   1.07636E+2  -4.68761E+2
   5.68402E+2  -5.00336E+2
   9.07071E+2  -1.45166E+2
   6.37991E+2   1.07175E+3
   3.60278E+1   1.07283E+3
  -7.34561E+2   6.32548E+2
  -6.01822E+2  -3.81495E+2
  -1.82810E+1  -6.29332E+2
   3.82288E+2   3.42532E+2
  -1.93538E+2   3.88412E+2
  -4.59273E+2  -2.17831E+2
  -4.18186E+2  -8.65336E+2
   2.16698E+2  -3.86703E+1
   4.64082E+2   5.21779E+2
   9.38098E+1   7.10828E+1
   1.85803E+1  -6.02754E+2
   4.44181E+1  -2.32451E+2
   4.50129E+2   2.44633E+2
   4.22842E+2   3.32498E+2
   1.14797E+2   4.19246E+1
  -2.70037E+2  -8.65796E+1
   1.12933E+2   4.16355E+2
   5.50102E+2   4.66892E+2
  -5.82256E+1   8.86860E+1
  -4.86560E+2  -2.22027E+2
  -3.30179E+2  -1.35235E+2
   2.17087E+2   2.86861E+1
   2.07936E+1   3.08258E+2
  -2.69291E+2   5.59049E+1
  -2.12687E+2  -3.23547E+2
   2.39745E+1  -4.08500E+2
   5.26113E+2  -1.35282E+2
   9.13765E+2   3.76015E+2
   5.37086E+1   7.02356E+2
  -4.88228E+2   5.47047E+1
   4.22172E+1  -4.00170E+2
   2.21173E+2   4.12192E+2
  -3.33838E+2   4.07228E+2
  -5.05741E+2  -2.20317E+2
  -3.25742E+1  -6.00999E+2
   5.58498E+2   1.93600E+1
   4.47648E+2   5.26292E+2
  -3.16541E+2   6.80819E+2
  -6.65816E+2  -1.61449E+1
  -2.48504E+2  -3.71036E+2
   3.78873E+2  -5.31401E+1
   6.11840E+2   1.49099E+2
  -9.15983E+1   4.67143E+2
  -5.19900E+2   4.10695E+2
  -3.69066E+2  -6.97578E+0
  -1.24894E+2  -1.70911E+2
  -9.42078E+0  -2.13078E+2
  -1.14664E+2   1.71605E+2
  -3.56136E+2  -1.90692E+1
   3.27490E+2  -3.20702E+2
   5.69028E+2  -1.20853E+2
   1.36586E+2   3.86026E+2
   3.14774E+1   5.33009E+2
   1.24899E+2   2.80785E+2
  -5.49298E+1  -9.94801E+1
  -1.76906E+2  -1.17942E+2
  -3.71114E+2   2.68764E+2
  -3.87485E+1  -6.44925E+1
   2.97096E+2   1.79173E+1
   2.18812E+2   2.01067E+1
   1.12544E+2   8.88657E+1
  -6.76349E+1   2.86544E+2
  -6.75772E+1   2.35028E+2
  -1.69262E+1  -2.96682E+1
   2.05911E+2  -4.75294E+2
   5.17360E+2   3.97938E+1
   4.46219E+1   2.05341E+2
   6.62153E+1   1.25928E+2
   2.25629E+2   2.32439E+2
   1.14251E+2   3.03357E+2
  -3.61627E+2   3.36086E+2
  -1.59792E+2  -3.99590E+1
  -2.74870E+1  -1.86265E+2
   3.66847E+2   9.35230E+0
   4.32594E+2   3.17968E+2
  -2.68661E+1   2.24464E+2
  -5.26017E+1   5.37865E+1
  -2.70991E+2  -9.68148E+1
   1.72728E+2  -1.13899E+2
   2.10600E+2   1.92498E+2
   1.24998E+2   1.55001E+2
   1.87734E+2  -2.68646E+2
  -1.60196E+2  -4.69706E+2
  -4.15352E+1   2.77255E+2
  -1.20722E+1   2.73180E+2
  -1.88200E+2   6.51859E+1
  -2.62560E+2  -1.34798E+1
  -3.02748E+2  -3.49130E+2
   1.10584E+2   5.67488E+1
  -9.48430E+1   1.38433E+2
  -5.39027E+0   1.10128E+2
   1.47395E+2  -2.60873E+2
  -3.96367E+2  -3.00413E+2
  -1.00436E+2   5.47743E+1
  -7.30562E+1   1.23328E+2
  -1.84686E+2  -1.65442E+2
  -1.60466E+1  -2.54743E+1
   1.30024E+2  -7.41743E+0
   9.33172E+1   3.37731E+2
  -1.72229E+2   2.00102E+2
  -3.06815E+2   3.82649E+1
   1.10877E+1  -2.93589E+1
   2.45472E+2   6.02658E+1
  -2.81998E+2   2.34405E+2
  -4.07197E+1  -1.24917E+2
  -2.12764E+2  -8.31048E+1
  -1.54902E+2  -3.36418E+2
  -7.07107E+1   1.37758E+2
  -1.14428E+2   2.89690E+2
  -3.07488E+2   3.30897E+1
  -1.49808E+2  -2.41940E+2
   2.86788E+2  -1.70556E+2
   4.14556E+0   4.01905E+1
  -2.81641E+2   2.39251E+1
  -8.96923E+1   1.47802E+2
  -3.69644E+1  -9.35252E+1
  -2.76155E+1   1.47072E+2
  -3.14160E+2  -4.34720E+0
  -1.90986E+2   2.34915E+0
   2.36879E+0  -1.80466E+2
   1.98192E+2   2.61989E+1
   3.42111E+2   3.15282E+2
  -2.71748E+2   1.37028E+2
  -2.61034E+2   4.10362E+1
  -3.72339E+2  -1.41863E+2
  -1.59092E+1  -3.55285E+2
   9.28807E+1   3.09545E+1
   1.37433E+2  -5.42054E+1
  -2.36905E+2   5.06629E+1
  -1.05446E+2   2.36926E+2
  -3.11530E+2  -9.91195E+0
  -1.27647E+2   1.26996E+2
  -1.29887E+2   1.16885E+2
  -9.11541E+1   1.41551E+2
  -1.01164E+2  -1.85380E+2
  -6.14163E+1  -9.70093E+1
  -8.90950E+0   1.66584E+2
  -1.02332E+2   8.88974E+1
  -3.03931E+2   1.35940E+2
  -3.87655E+1  -9.37583E+1
  -3.77887E+1   1.33345E+2
   1.31558E+2   1.88747E+1
  -1.76888E+2   1.16942E+2
  -2.62831E+2  -1.24518E+2
  -3.81793E+0   4.71607E+1
  -3.99871E+1   8.43566E+1
  -3.48457E+1   1.62710E+2
  -1.69377E+2  -3.63904E+1
  -8.65625E+1  -8.84764E+1
   7.48821E+1  -1.92216E+2
   4.21951E+1   1.43510E+2
   1.88782E+1   4.00331E+1
  -5.65789E+1  -7.97181E+1
   1.47429E+2  -8.75733E+1
  -1.53138E+1  -8.19251E+1
   1.38496E+2   8.47042E-1
  -2.03266E+2   1.05965E+0
   4.32571E+1  -1.48459E+1
  -1.79992E+1  -1.79831E+2
   5.81551E+0  -1.82700E+2
  -9.03770E+1  -1.23534E+2
  -1.19130E+2  -1.48957E+2
  -1.16751E+2   1.33884E+2
   5.99854E+1   1.86419E+1
   1.76817E+1   2.83228E+0
  -4.83845E+1   9.56274E+0
  -1.50806E+2  -1.72884E+2
   1.23360E+1  -2.00316E+2
   7.50654E+1   4.45831E+0
   1.57641E+1   3.63633E+1
  -6.66967E+0   7.39492E+1
  -1.20026E+2  -9.41799E+0
  -4.78495E+1  -9.39843E+1
   6.09694E+1  -1.64612E+2
   6.08823E+1  -5.07397E+0
  -1.73252E+2  -1.35866E+2
  -4.41503E+1  -3.02561E+2
  -1.83480E+2  -1.43696E+2
  -1.45382E+2   1.36497E+2
   1.18684E+2  -1.07090E+2
   6.90633E+1  -2.81477E+2
  -1.44888E+1  -2.03766E+2
   2.02908E+2   8.91950E+1
  -7.80576E+1  -2.95645E+2
  -6.82424E+1   6.76184E+1
  -1.09125E+2   1.54991E+2
  -1.37980E+1  -1.57168E+2
   1.85225E+2  -1.66307E+2
   5.03001E+1   5.45752E+1
  -1.19258E+2  -1.10043E+0
  -1.43987E+2  -1.07968E+2
   9.26199E+1  -9.86991E+1
  -1.84943E+2   1.57753E+2
   1.16548E+1   2.06616E+2
  -1.27532E+2   1.89168E+1
   1.10252E+1  -9.55718E+1
   8.03987E+1   8.81036E+0
  -3.79849E+1  -3.39181E+1
  -1.48067E+2   3.99189E+1
  -1.76522E+2   2.21802E+2
  -9.72734E+1  -1.08696E+2
  -6.80905E+1   2.67793E+1
  -1.45876E+2  -4.43274E+1
  -7.06598E+0  -3.65898E+1
   6.71012E+1  -1.46976E+2
   8.96251E+1  -1.49092E+2
  -3.62632E+1  -1.74143E+2
   1.25815E+2  -3.97541E+1
  -3.73969E+2  -3.25871E+1
   3.13851E+0  -5.88045E+1
  -1.04356E+2  -1.23778E+2
  -1.36593E+2   9.01277E+1
   1.30042E+1   2.52627E+1
  -4.44547E+1   1.34442E+2
  -3.04013E+2  -1.26172E+2
  -4.64064E+1  -1.73767E+2
  -1.05199E+2  -4.52593E+1
  -1.56152E+1  -8.59570E+1
  -1.36729E+2   3.89982E+1
  -1.46539E+2   2.54237E+1
   2.64288E+2  -6.77725E+0
   8.76945E+1   2.47720E+2
   1.67351E+2   1.44492E+2
  -2.72920E+1   3.42397E+2
   4.24643E+1   4.68697E+0
   6.48245E+1  -3.91301E+1
   4.62870E+0   1.05295E+2
   6.15860E+1  -1.93556E+1
   1.84203E+2  -7.40268E+1
  -6.85080E+1  -3.93280E+1
  -5.89115E+1   1.32899E+1
  -1.54421E+2   9.63203E+1
  -2.08847E+2   1.00140E+2
  -1.95443E+2  -9.36991E+1
   2.64990E+2   1.25724E+2
   2.14938E+2  -5.02413E+1
  -3.55365E+1   1.07290E+2
  -1.39427E+2   2.38705E+2
   1.55218E+2   3.62983E+1
   2.29156E+1   7.40199E+1
   1.12012E+2  -1.79446E+2
   9.03128E+1   2.24278E+1
  -2.26935E+2   5.81594E+1
   1.52814E+2   1.60258E+1
   4.95172E+1   2.16510E+2
  -1.08984E+1   1.56099E+2
  -9.98432E+1   8.64662E+1
  -1.49037E+2  -1.41709E+2
   3.16857E+1  -2.53735E+1
  -1.96863E+2  -8.38198E-1
  -2.87179E+1   3.65438E+2
  -1.83308E+1  -1.58530E+2
  -2.15911E+2  -1.29071E+2
  -2.97470E+1  -2.44888E+1
   5.88036E+1   1.10241E+2
   1.97086E+1  -3.19931E+1
  -7.37529E+1  -7.29045E+1
  -1.78692E+1   3.13364E+1
  -1.10649E+2   6.90812E+1
  -4.31844E+1   2.68945E+1
  -5.69194E+1  -3.08980E+1
  -1.50755E+2  -7.09896E+1
  -1.83737E+2  -2.34847E+2
   1.59288E+2  -5.82883E+1
  -2.22474E+2   6.96650E+1
  -2.24112E+0   1.85526E+2
  -1.18943E+2  -1.03945E+2
   2.49857E+2   7.07660E+1
   1.38193E+2   1.60561E+2
  -3.62294E+1   1.78286E+2
  -1.14021E+2   2.36816E+2
  -7.34504E+1  -2.39349E+0
   1.11211E+2  -5.22056E+1
  -2.74829E+1  -4.36206E+0
  -1.94495E+2  -5.02405E+0
   6.57491E+1   1.10711E+2
  -2.04987E+1  -1.15192E+2
   1.23261E+2  -1.78044E+2
  -8.50441E+1   1.19335E+2
   2.71359E+1  -8.63261E+1
   1.50525E+1  -1.64261E+2
   9.40219E+1   9.63424E+1
   1.50211E+2   2.26556E+0
  -1.10410E+1   2.73165E+2
  -2.79493E+1   4.21853E+1
  -4.86277E+1  -1.24127E+2
   1.21492E+2  -1.14332E+2
   1.34369E+2  -9.48463E+1
  -3.50527E+1   7.20907E+1
   2.41261E+2  -1.63164E+2
   3.41613E+1   1.01167E+2
   8.60413E+1  -1.56995E+2
   1.04166E+1   1.08019E+2
  -2.36935E+1   2.18961E+2
  -7.79462E+1  -3.83519E+0
  -9.47358E+1   1.58412E+1
  -3.44911E+1  -1.12849E+2
   1.63272E+2   1.82663E+2
   1.61736E+2  -1.02512E+2
   5.86503E+0  -2.66984E+2
