 
 $NMID
 ID=''
 FMTDAT='(2E13.5)'
 TRAMP=   1.00000E+0
 VOLUME=   1.00000E+0
 $END
  -1.05811E+4   9.53520E+3
  -1.08348E+4   2.44348E+4
   2.00986E+4   2.23137E+4
   2.38091E+4  -5.26987E+3
  -3.91230E+3  -2.17228E+4
  -1.91639E+4  -1.02278E+4
  -1.25884E+4   9.66681E+3
   1.72446E+3   1.64848E+4
   1.43460E+4   4.71125E+3
   9.17424E+3  -1.09889E+4
  -8.93035E+3  -1.30351E+4
  -1.30006E+4  -7.89548E+2
  -1.46369E+3   9.44771E+3
   7.17971E+3   7.20092E+3
   7.25649E+3  -4.39355E+3
   2.72765E+3  -9.71540E+3
  -3.26191E+3  -1.42720E+3
  -4.62478E+3   6.81148E+3
   1.26652E+2   4.81594E+3
   3.87934E+3  -3.39852E+1
   2.36316E+3  -2.70265E+3
  -1.32569E+3  -3.08018E+3
  -3.36729E+3   1.68871E+2
  -2.21126E+3   1.62249E+3
   1.41511E+3  -4.03676E+2
   4.15468E+3  -1.05633E+3
   1.38774E+3  -5.75547E+2
  -2.38772E+3  -1.68293E+3
  -1.24028E+3  -6.38680E+2
   1.30689E+3   2.16559E+3
   1.27209E+3   2.01109E+3
   2.19686E+2  -1.34102E+3
  -4.14746E+2  -1.67140E+3
  -1.56393E+3  -5.62993E+2
  -6.58631E+2  -3.99507E+2
   2.37514E+3   3.94691E+1
   1.71946E+3   1.40737E+3
  -1.34910E+3   5.86073E+2
  -1.24777E+3  -1.08776E+3
  -5.41010E+1  -2.79065E+2
  -5.09928E+2   4.90391E+2
  -5.79626E+1  -6.65339E+2
   1.32014E+3  -1.41299E+3
   1.62690E+3  -2.34975E+2
   4.75798E+2   7.88201E+2
  -1.25699E+2   1.32843E+3
  -4.67210E+2   1.61276E+3
  -1.19948E+3  -2.54500E+2
  -5.77920E+2  -1.84642E+3
   1.24455E+1  -7.14292E+2
   2.04942E+2   1.99083E+1
   6.92352E+2  -2.52692E+2
   9.85710E+2  -1.12653E+2
   2.97845E+2   3.35586E+2
  -3.60366E+2   7.08304E+2
  -8.23322E+2   1.52245E+2
  -3.62598E+2  -2.70102E+2
  -1.02832E+2  -1.04883E+3
   1.09520E+3  -8.24735E+2
   1.15013E+3   5.97269E+1
   4.66843E+2   9.77664E+2
   1.16334E+2   1.11569E+3
  -2.60874E+2   7.41647E+2
  -1.32915E+3   3.17752E+2
  -1.67600E+3  -4.24434E+2
  -9.50398E+2  -9.95357E+2
   4.56446E+2  -1.21009E+3
   1.36335E+3  -6.77327E+2
   1.01790E+3   2.52551E+2
  -5.83088E+2   5.90137E+2
  -4.68850E+2  -6.15877E+1
   6.47127E+2   5.67907E+0
   8.12914E+2   5.73865E+2
  -1.98263E+2   7.98993E+2
  -9.88014E+2   2.59291E+2
  -3.20580E+2  -1.93362E+2
   1.87508E+2   3.24181E+2
   6.08135E+1   6.54291E+2
  -4.54627E+2   4.26157E+1
  -6.78370E+2  -3.89864E+1
  -4.16360E+2  -2.58153E+2
   8.14121E+1  -6.74901E+0
   2.11997E+2   4.35839E+2
  -8.18558E+1  -2.00281E+2
  -3.76834E+2  -5.32221E+2
   2.88730E+2  -9.30467E+1
   4.87443E+2   6.28101E+2
   2.59787E+2   7.35306E+2
   1.43470E+2   2.23179E+2
  -1.78591E+1   5.39809E+1
   2.65607E+2   5.61227E+2
  -3.92447E+2   9.49670E+2
  -5.57075E+2   7.93941E+2
  -8.76735E+2   8.98878E+0
  -2.28994E+2  -7.15042E+2
   4.40304E+2  -7.68891E+2
   5.35955E+2   1.14702E+2
  -3.30579E+2   5.39229E+2
  -1.33086E+2  -1.10969E+2
   8.42753E+2  -3.37052E+2
   4.98680E+2   6.23864E+2
  -5.23937E+2   1.17402E+3
  -9.14744E+2  -7.59773E+1
  -1.48581E+2  -7.08574E+2
   8.64788E+2  -1.21977E+2
   5.08336E+2   5.18463E+2
  -2.63961E+2   3.45455E+2
  -1.07563E+3  -4.18065E+2
  -5.38751E+2  -6.23531E+2
   7.16616E+2  -6.34343E+2
   1.16801E+3   2.31294E+2
   5.17037E+2   4.17016E+2
  -3.59841E+2   2.23726E+2
  -4.33679E+2   3.94768E+2
  -1.40679E+2   3.22136E+2
  -1.01354E+2   2.03682E+2
  -6.99837E+2   5.91957E+1
  -6.05496E+2  -9.09585E+2
   2.10987E+1  -1.00824E+3
   5.32991E+2  -3.85947E+2
   5.08384E+2   4.04064E+2
   4.22410E+2   5.79344E+2
   1.65650E+2   4.36047E+2
  -2.65132E+2   1.93917E+2
  -6.40803E+2   4.64005E+1
  -5.29859E+2  -7.81003E+1
   1.81063E+2  -1.31737E+2
   4.65410E+2  -3.21565E+2
   2.42030E+2   1.83948E+2
  -3.23702E+0   3.68759E+2
  -6.67009E+2   4.60397E+2
  -4.92929E+2  -8.47928E+0
   1.48470E+2  -4.73521E+2
   8.57672E+1  -8.32976E+1
  -9.37727E+1  -1.85032E+2
  -2.13781E+1  -2.79225E+2
   1.70156E+2  -1.36301E+2
   3.78786E+2   3.19536E+2
   1.27743E+2   5.04353E+2
  -4.88628E+2  -6.72766E+1
  -5.89055E+2  -3.76160E+2
   1.68777E+2  -4.09367E+2
   3.94871E+2   1.80529E+2
   4.13044E+2   5.95810E+2
  -6.75560E+1   5.18777E+2
  -3.98438E+2   6.97633E+1
  -4.72903E+2   1.37172E+2
  -3.55216E+2  -3.91944E+1
  -1.61509E+2  -1.10584E+2
  -5.02678E+1  -3.12961E+2
   2.12785E+2  -4.51205E+2
   3.99003E+2  -1.06220E+2
   5.39928E+2   2.28877E+2
   1.22267E+2   5.86217E+2
  -3.04870E+2   1.87812E+2
   1.40487E+2  -4.32776E+1
  -5.53383E+1   3.30433E+2
  -2.22336E+2   4.11812E+2
  -4.86200E+2  -1.53260E+2
  -2.39588E+2  -9.00100E+1
  -8.27952E+0   2.78832E+2
  -8.12334E+1   2.43851E+2
  -8.02251E+1  -1.65903E+2
  -2.24768E+2  -3.35650E+2
   2.36481E+2  -1.95574E+2
   1.70569E+2  -6.60794E+1
   1.36095E+2   1.28525E+2
  -1.24572E+2   3.38932E+2
   5.71117E+1  -1.73957E+2
   5.04855E+1  -4.90419E+2
   1.88169E+2  -6.73977E+1
   7.89840E+1   2.81036E+2
   2.19193E+1  -4.49004E+1
  -1.57084E+2  -1.02008E+2
  -8.97183E+0  -1.96990E+2
   1.51078E+2   9.17779E+1
  -3.73826E+2   1.51243E+2
  -3.75447E+2  -1.53775E+2
   3.00406E+2  -5.23645E+2
   4.06835E+2   7.90278E+1
   1.42625E+2   2.23241E+2
  -2.44348E+2   3.54846E+2
  -2.53248E+2  -5.10279E+1
  -2.88068E+2  -3.02295E+2
  -2.07890E+2  -2.99470E+2
  -5.17842E+1  -1.23458E+2
   7.27508E+1  -5.00726E+2
   2.84594E+2  -4.82045E+2
   3.87242E+2  -1.87791E+2
   3.62395E+2   4.62439E+2
  -1.47537E+2   6.71994E+2
  -6.52496E+2   2.35358E+2
  -3.04175E+2  -2.17040E+2
   5.55521E+1  -4.32540E+2
  -5.02401E+0  -4.77064E+1
   3.10022E+1  -1.27698E+2
  -8.39117E+1   4.62109E+1
   9.50855E+1   1.44481E+2
  -1.19802E+2   2.03250E+2
  -1.18182E+2   2.68843E+2
  -2.51415E+2  -1.15459E+2
  -2.55090E+2  -4.32550E+2
   2.18621E+2  -1.52039E+2
   4.35184E+2  -2.26480E+2
   3.01639E+1   3.25943E+1
   6.05512E+1   2.32372E+2
  -5.24745E+0  -9.91173E+1
  -1.96058E+2   9.89224E+1
  -1.04398E+1   1.21436E+2
  -2.40047E+2   1.77684E+1
  -1.70963E+2  -4.11903E+2
   1.36151E+2  -2.07782E+2
   3.11147E+2   2.09257E+2
   1.49204E+1   3.01447E+2
  -5.62632E+2   9.54381E+0
  -3.71903E+2  -3.40335E+2
   1.97795E+0  -3.36695E+2
  -7.07021E+1  -1.29547E+2
   8.86951E+1  -1.11856E+2
  -8.21723E+1  -4.28975E+0
   1.03635E+2   4.84188E+1
   3.25330E+2  -9.48454E-1
   2.45299E+1   3.95696E+2
  -1.58903E+2   2.58785E+2
  -8.98582E+1  -2.12885E+2
  -2.18577E+2  -2.61657E+2
   3.43316E+2  -4.31651E+1
   2.31103E+2   1.70382E+2
  -2.54489E+2   1.67662E+2
  -1.34415E+2  -1.79701E+1
   4.93770E+0  -1.80050E+2
   1.94205E+2  -2.00274E+2
  -3.10588E+1   8.23817E+1
  -1.09023E+2   1.06530E+0
  -7.16089E+1  -1.36647E+2
   5.60733E+1  -1.89962E+2
   3.69731E+1   7.97773E+1
  -7.00756E+0  -4.73101E+1
   7.27431E+1  -4.80331E+1
   7.20703E+1  -2.09425E+2
   3.05638E+2  -3.62342E+1
  -1.28781E+2   2.94218E+2
   1.13509E+2   1.26534E+2
  -2.60577E+0  -2.37749E+2
   8.69832E+1  -2.83367E+2
   1.61323E+2  -7.54369E+1
   4.94632E+1  -1.76239E+2
  -1.24300E+2  -1.87900E+2
  -5.06977E+1   1.76943E+1
   1.96975E+2  -2.26393E+2
   8.18075E+1   5.29929E+1
  -3.28987E+2   6.03060E+1
  -2.03161E+1  -8.86864E+1
  -2.63611E+2  -5.09686E+2
   3.66329E+2  -4.57635E+2
   2.35900E+2   3.90708E+1
   3.00434E+2  -2.35007E+1
   2.06332E+1   1.01625E+2
   7.42083E+1   8.95317E+1
  -5.99867E+1   4.08073E+2
  -1.20811E+2   8.65971E+1
  -4.18467E+2  -2.12324E+2
   4.23421E+1  -5.41128E+2
   2.44753E+2  -3.27500E+2
   4.86446E+2   2.87037E+2
   1.40048E+2   3.21220E+2
  -1.84770E+2   1.15318E+2
  -2.14960E+1  -1.29092E+2
   2.27762E+2  -1.04208E+2
   5.19029E+1  -1.55249E+1
   2.70813E+1  -7.46149E+1
   1.64969E+2  -2.61226E+2
   2.04322E+2   2.55905E+1
   2.49199E+2  -9.40416E+1
   3.84458E+1   3.36998E+2
  -7.64214E+1   1.35853E+2
   8.97786E+1  -1.11788E+2
   2.73091E+1  -1.34584E+2
   2.49954E+2  -1.25101E+1
   7.99737E+1   1.33457E+2
   1.88617E+2  -2.13670E+2
   4.51054E+1   1.45750E+2
   3.45835E+2   3.31820E+1
  -2.02968E+1   3.96974E+2
  -1.65663E+2  -5.46487E+1
  -1.79320E+2  -3.35285E+2
   9.42822E+1  -3.32923E+2
   3.14854E+2  -1.70952E+2
  -4.60584E+0   1.10794E+2
   3.53722E+1   3.25170E+2
  -1.87937E+2  -5.18819E+0
   2.83978E+1  -5.62650E+1
  -3.12148E+2   3.71809E+1
   2.58878E+2   2.22579E+1
   9.30198E+1  -3.11198E+2
   2.37369E+1  -2.68788E+2
   1.06010E+1  -2.09991E+2
   4.41838E+0  -4.69875E+1
  -3.79507E+1   2.22645E+2
  -3.45752E+0  -2.51418E+0
  -3.44997E+1  -3.48519E+2
   1.59508E+2  -2.69732E+2
   8.57322E+1   7.28132E+1
  -2.51889E+2  -3.79956E+1
  -9.86803E+1  -8.39093E+1
   1.05337E+0  -1.63530E+2
   4.18610E+2  -2.16477E+2
   3.07099E+2   1.44945E+2
   2.01054E+1  -2.35196E+1
   1.32751E+2   1.97916E+2
   1.07055E+2   2.23288E+1
   3.99971E+1   4.93697E+0
  -4.34249E+1   2.37741E+2
   2.07130E+1  -1.28405E+2
  -7.42006E+1  -2.16221E+2
   3.11321E+2  -4.41517E+1
   8.63779E+1  -1.08367E+1
   9.21474E+1   1.70422E+2
  -7.26227E+1   1.74238E+2
   9.72713E+1  -1.02514E+2
  -1.12169E+2  -1.50494E+2
   5.58508E+1   2.83591E+1
  -1.99446E+2  -9.22926E+1
  -1.78044E+1   4.56989E+1
   1.94293E+2   1.48356E+2
   1.17624E+2   3.50714E+2
   8.23507E+1   4.49222E+2
  -1.84157E+2   2.56552E+2
   1.21697E+2  -1.86284E+2
  -1.14683E+2  -1.26187E+2
   4.14769E+1  -5.38103E+1
   5.96148E+1  -1.57885E+1
   1.43977E+2  -1.55149E+1
   2.26177E+2  -1.48442E+2
   5.96543E+1   1.62679E+2
  -6.33114E+1   2.73542E+2
  -7.63568E+1   4.07780E+1
  -3.11658E+1  -2.04880E+2
   1.62873E+2  -3.09937E+2
   2.59516E+1  -5.16597E+1
   1.93057E+1   2.34248E+2
   1.47740E+2   8.52761E+1
  -5.55631E+1   1.08791E+2
   5.84768E+1  -5.75038E+1
   1.26201E+1   1.96508E+2
   2.59443E+2   1.11417E+1
   6.91535E+1  -1.44977E+2
   2.31683E+2  -3.99571E+1
   1.21050E+2   9.91408E+1
   1.24340E+2   1.98076E+2
  -1.64306E+2   6.73678E+1
   6.47174E+1  -1.17272E+1
  -1.54871E+2  -4.24913E+1
  -1.04387E+1  -1.91487E+1
   9.91516E+1   1.06212E+2
   1.48285E+2  -2.92819E+2
   8.17026E+1  -9.05640E+1
   9.83687E+1  -2.20029E+2
   4.19885E+1   2.91702E+2
  -6.60528E+1   2.82902E+2
  -1.47373E+2   2.24900E+2
   7.38408E+1  -2.57316E+2
   3.74613E+2   2.47030E+1
   7.73912E+1  -7.85548E+1
   5.71384E+1   3.00541E+2
   3.60517E+0   1.85874E+2
   1.37289E+2  -7.33013E+1
